record_id,input,event,transition,event_index,k,peak,value_cos,value_sin,value_return,x_input,rr,knowledge,decision,decision_norm,entropy,delta_t,cosine_similarity,delta_h_over_delta_d,frobenius_norm,matrix_size,timestamp,scale,P,zdot,zdot_back
0312,cdot_cos,Q,P-Q,1,0,2063,-0.005314024404108049,-0.0033559464988285556,-0.0435652110589856,0.25178208838015054,1142.0,0.001250637267731458,0.5003126592761805,0.5003126592761805,,,1.0,,0.004967141530112327,1,2026-10-08 01:31:18.147244,25.0,,,
0312,cdot_cos,R,Q-R,2,0,2122,0.08251203994744179,0.09064177913558925,0.08782606435154984,0.899858343731593,1142.0,0.008089812133465615,0.5014300863548565,0.7091292287049503,-1.1520000006322316e-05,,1.0,,0.009934283060224654,2,2026-10-08 01:31:18.206244,25.0,,,
0312,cdot_cos,S,R-S,3,0,2179,-0.006384203745753323,-0.01747613451045512,-0.08889624369319511,0.09775638129472247,1142.0,0.010748987452923442,0.5015514777204555,0.8687126420230786,-9.03401001539366e-06,0.057,1.0000000000000002,0.020479133574800377,0.014901424598158316,3,2026-10-08 01:31:18.263244,25.0,0.7594344781848733,0.0763698754286055,0.04665219858697941
0312,cdot_cos,T,S-T,4,0,2415,-0.015817799125273042,0.012764731150559606,-0.009433595379519719,0.4413117990626325,1142.0,0.016795977932326643,0.502099484902032,1.0041989698049887,-3.0037128361985094e-05,0.236,1.0000000000000002,-0.0383263560272478,0.019868566183322438,4,2026-10-08 01:31:18.499244,25.0,0.4969635682914365,0.035882046516678645,0.025622841014420347
0312,cdot_cos,P,T-P,5,1,3112,0.04011619392253153,-0.0002826765921451073,0.055933993047804574,0.8019219003149615,1116.0,0.02768531340879576,0.5030952725940206,1.1249552286861813,-8.734673438055347e-05,0.697,1.0,-0.05755203290785831,0.024835708079317925,5,2026-10-08 01:31:19.196243,25.0,0.5188625932919896,0.011965282697640071,0.015623149894503757
0312,cdot_cos,Q,P-Q,6,1,3225,-0.0019890189935483486,-0.0014057924833864926,-0.04210521291607988,0.25872032659624283,1116.0,0.0334755820128369,0.5034165340794661,1.2331136366429754,-6.38611624435839e-05,0.113,0.9999999999999997,0.0731042250657817,0.02980284964307618,6,2026-10-08 01:31:19.309243,25.0,0.6922834090809604,0.08928368822756996,0.0512413150800101
0312,cdot_cos,R,Q-R,7,1,3259,0.08193511180957447,0.08774422568815139,0.08392413080312282,0.8907186899678592,1116.0,0.047863426948226574,0.5045225453623019,1.3348411859386913,-0.0002110297305867235,0.034,1.0,-0.13306244739727915,0.03476999115582953,7,2026-10-08 01:31:19.343244,25.0,0.4978865186813852,0.2814771410167952,0.4231719098644021
0312,cdot_cos,S,R-S,8,1,3318,-0.0046131771380254465,-0.03717507875899222,-0.08654828894759992,0.10305726418122695,1116.0,0.052616027601978976,0.504650509597378,1.42736718995169,-8.611039318172967e-05,0.059,1.0,0.976205088325649,0.0397371327479732,8,2026-10-08 01:31:19.402244,25.0,0.23440889570048454,0.11554480767126929,0.08055255345343054
0312,cdot_cos,T,S-T,9,1,3548,-0.02388266946696496,0.019243529396461588,-0.019269492328939514,0.3818419691989437,1116.0,0.06149771425343635,0.5051246300294916,1.5153738902007041,-0.00018275628509578144,0.23,0.9999999999999999,-0.2038424952141641,0.04470427475326192,9,2026-10-08 01:31:19.632244,25.0,0.5892976336769583,0.055314488375864806,0.03861602891937988
0312,cdot_cos,P,T-P,10,2,4228,0.04325010750489012,0.0020194285036307692,0.06713277697185507,0.8426818669273809,1118.0,0.07806069225487679,0.5061709261583364,1.6006530122486697,-0.0004167857113481994,0.68,1.0,-0.2236741777022658,0.04967141831968725,10,2026-10-08 01:31:20.312243,25.0,0.5703470775501615,0.017997808368973717,0.024357320590353584
0312,cdot_cos,Q,P-Q,11,2,4344,-0.0008830149120477638,-0.0006469175654089738,-0.044133122416937884,0.2491168356329558,1118.0,0.08597473363524061,0.5064802262815723,1.6798048750773165,-0.00023407097449635222,0.116,0.9999999999999998,0.5907360622435722,0.05463856004165631,11,2026-10-08 01:31:20.428244,25.0,0.458133136295248,0.11680328761189422,0.06822449465830879
0312,cdot_cos,R,Q-R,12,2,4383,0.08388536472966238,0.0985203261265658,0.08476837964171013,0.8927562676936386,1118.0,0.10515905498083625,0.5075886180804556,1.7583385525874167,-0.0006611019073862643,0.039,0.9999999999999997,-0.3852707439013267,0.05960570150005972,12,2026-10-08 01:31:20.467244,25.0,0.5241705687856902,0.32572036162068296,0.49190567552809333
0312,cdot_cos,S,R-S,13,2,4437,-0.0007141941101236086,-0.0017285192448283002,-0.08459955883978598,0.10764848584003724,1118.0,0.11138092184165388,0.5077222630590126,1.8306186540457068,-0.00024290684064830537,0.054,0.9999999999999999,3.1291491177108934,0.06457284311433441,13,2026-10-08 01:31:20.521244,25.0,0.17877497690226835,0.1609422820641098,0.115219756681808
0312,cdot_cos,T,S-T,14,2,4667,-0.021276997698274795,0.01615013140389837,-0.020562803588151185,0.3742398872326094,1118.0,0.1225408214437601,0.5081868710247552,1.9014611607916285,-0.00047065099553357157,0.23,1.0,-0.4901856439788452,0.06953998592291104,14,2026-10-08 01:31:20.751244,25.0,0.616379893902604,0.0678813215387165,0.04852130261785316
0312,cdot_cos,P,T-P,15,3,5346,0.0392312580777594,-0.0006909110617757775,0.06050825577603419,0.819461948065854,1098.0,0.14260632974946347,0.5092041587721974,1.9721392281385763,-0.0009591234083753287,0.679,0.9999999999999996,-0.480171332123057,0.07450713251214312,15,2026-10-08 01:31:21.430244,25.0,0.6009217987520719,0.022134650705076152,0.029551558624010838
0312,cdot_cos,Q,P-Q,16,3,5456,-0.0010455927385788007,-0.0007643196048935936,-0.0402768508163382,0.2675827951788182,1098.0,0.15259967710125352,0.5095363224648779,2.0381452929473096,-0.0005318176112811861,0.11,0.9999999999999993,1.2864313785948034,0.0794742744617618,16,2026-10-08 01:31:21.540244,25.0,0.44776718948527144,0.15128933860040772,0.0908486122890005
0312,cdot_cos,R,Q-R,17,3,5490,0.0904847819704875,0.09656857118211312,0.0915303747090663,0.9079000059042552,1098.0,0.17588998424155317,0.5106632789298834,2.1055186415055536,-0.0013790623488743304,0.034,0.9999999999999994,-0.7517989948165533,0.08444141577175135,17,2026-10-08 01:31:21.574244,25.0,0.5409854498570335,0.4438787265820564,0.6850090335382247
0312,cdot_cos,S,R-S,18,3,5539,-0.0044964460875753665,-0.03171814962090397,-0.09498122805806286,0.0851355903919827,1098.0,0.18278343050883336,0.5107689504996371,2.167009134495426,-0.0004456753625042648,0.049,0.9999999999999994,8.832905468759957,0.08940855735903608,18,2026-10-08 01:31:21.623244,25.0,0.1231539153436323,0.20866059381285118,0.1406825768832693
0312,cdot_cos,T,S-T,19,3,5789,-0.0215938506224678,0.016182426286561157,-0.017097404534892433,0.3947389688398369,1098.0,0.19633872243521258,0.5112588936931926,2.2285258551145493,-0.0009263014069054651,0.25,0.999999999999999,-0.9809832052433901,0.09437570161560778,19,2026-10-08 01:31:21.873244,25.0,0.5951952846386775,0.07255489932998194,0.05422116770551688
0312,cdot_cos,P,T-P,20,4,6444,0.03219735771738053,-0.0012150509164660533,0.05379120833984834,0.7932749459198098,1159.0,0.21906088017382433,0.5122434264900497,2.2908222499397195,-0.0017011386637725114,0.655,0.9999999999999991,-0.7870101019899818,0.09934285222810126,20,2026-10-08 01:31:22.528243,25.0,0.6341425299649271,0.0267623917566254,0.03469031715818587
0312,cdot_cos,Q,P-Q,21,4,6553,-0.0008765983776887795,-0.0005870917331758898,-0.033073956095069315,0.30431176515355995,1159.0,0.23139745563639186,0.5126210827456427,2.3491249227282203,-0.0010015139278716162,0.109,0.9999999999999983,1.8525437498776458,0.10430999454556476,21,2026-10-08 01:31:22.637243,25.0,0.49729734325526226,0.17664377590123842,0.1131795913997021
0312,cdot_cos,R,Q-R,22,4,6586,0.08259880642657753,0.07894220041607324,0.08347540480426631,0.8896219317863842,1159.0,0.2575692233202943,0.5137250350008772,2.409584009149346,-0.0023060541776899696,0.033,0.9999999999999979,-1.1816998820671116,0.10927713567629078,22,2026-10-08 01:31:22.670244,25.0,0.5679611035267059,0.5178877357415852,0.7930838692091651
0312,cdot_cos,S,R-S,23,4,6633,-0.008410992662058575,-0.037973679841832864,-0.09100979908863611,0.09319401826514123,1159.0,0.2655780461953365,0.513840674032723,2.4642933113136625,-0.0007549953814498917,0.047,0.9999999999999977,13.412934815188938,0.11424427721881598,23,2026-10-08 01:31:22.717243,25.0,0.12817034507821082,0.2677993237461144,0.17040048670302502
0312,cdot_cos,T,S-T,24,4,6884,-0.013115415674151955,0.013035384416526975,-0.004704423012093379,0.4706312014133056,1159.0,0.28274235975242906,0.5144246300010448,2.5201557182991285,-0.0016958357839357027,0.251,0.9999999999999977,-1.6111495618235778,0.11921142328830225,24,2026-10-08 01:31:22.968243,25.0,0.5741902327575618,0.0842106262240726,0.06838371935096646
0312,cdot_cos,P,T-P,25,5,7603,0.036645568882180644,-0.00016002296860407494,0.0497609845563326,0.7762637795608653,1142.0,0.30785178055982093,0.5153877259775366,2.5769386410615103,-0.002671768671315972,0.719,0.9999999999999973,-1.0133287971311316,0.12417858118955173,25,2026-10-08 01:31:23.687244,25.0,0.694005101328308,0.026629687553030933,0.03492269931487047
0312,cdot_cos,Q,P-Q,26,5,7717,-0.0011669028351152062,-0.0008367467845953015,-0.03781247171729585,0.27982863494967136,1142.0,0.32103585045368754,0.5157348764903101,2.62974221769995,-0.001493746109049435,0.114,0.9999999999999959,3.3934057963927766,0.12914572408954464,26,2026-10-08 01:31:23.801243,25.0,0.4544640776488715,0.18516309384653423,0.11564973591111063
0312,cdot_cos,R,Q-R,27,5,7751,0.08162541773183767,0.08551507140744605,0.08279232056695288,0.8879338588705258,1142.0,0.35006896595683074,0.5168363295743003,2.6855603657381995,-0.0035097472792605566,0.034,0.9999999999999959,-1.830310522993824,0.13411286496737698,27,2026-10-08 01:31:23.835244,25.0,0.5630422187690832,0.5607939419817334,0.8539151618571527
0312,cdot_cos,S,R-S,28,5,7799,-0.005446938618408589,-0.026877227791918583,-0.08707235635024625,0.10185247362517622,1142.0,0.3591698385084454,0.5169626640005819,2.7355093118824216,-0.0011626793094965512,0.048,0.999999999999995,18.578213705042536,0.1390800064452846,28,2026-10-08 01:31:23.883244,25.0,0.1328317711044054,0.2837897472120146,0.18960151149197252
0312,cdot_cos,T,S-T,29,5,8043,-0.014996599287212345,0.013841829384225887,-0.009549660668803757,0.44059650742081247,1142.0,0.37731278168918414,0.517509140095294,2.7868720287647983,-0.002406699687144742,0.244,0.9999999999999946,-2.2764406159494968,0.14404715445290775,29,2026-10-08 01:31:24.127244,25.0,0.596367088019136,0.09283370055084131,0.07435632451122429
0312,cdot_cos,P,T-P,30,6,8745,0.03137667392949637,-0.0004478703720562884,0.04637327321670871,0.761211283748087,1175.0,0.404472684377256,0.5184531783631087,2.83968503159311,-0.003823916558211248,0.702,0.9999999999999942,-1.5012282016355445,0.1490143193460693,30,2026-10-08 01:31:24.829243,25.0,0.6903067647709428,0.0300122720397588,0.0386893200684784
0312,cdot_cos,Q,P-Q,31,6,8856,-0.002552663402317646,-0.0016740841564494885,-0.03392933733181402,0.2998035664591971,1175.0,0.4194500116330055,0.5188249526738071,2.88869511747648,-0.002222231407754397,0.111,0.9999999999999916,4.3082190037491825,0.15398146276850253,31,2026-10-08 01:31:24.940243,25.0,0.4863847320751497,0.21082672260436452,0.13493087617792357
0312,cdot_cos,R,Q-R,32,6,8891,0.08265708229229798,0.08108890379489453,0.08520974569461563,0.8938081358959318,1175.0,0.4512762167954249,0.519933202781947,2.9411863846398267,-0.004989537027395636,0.035,0.9999999999999911,-2.497004601502822,0.15894860339877057,32,2026-10-08 01:31:24.975244,25.0,0.5742894610062087,0.5956081629595853,0.9093201474976973
0312,cdot_cos,S,R-S,33,6,8934,-0.004983079617180375,-0.0476194575068842,-0.08764016190947836,0.1005612423440077,1175.0,0.46114258304017647,0.5200578785504061,2.9875051003649444,-0.0016208265714658158,0.043,0.9999999999999899,27.01976893798033,0.163915744578944,33,2026-10-08 01:31:25.018244,25.0,0.12513145640701842,0.35791407053343754,0.2294503777849202
0312,cdot_cos,T,S-T,34,6,9201,-0.0077584831752830355,0.00791492323614322,-0.0027754035581026605,0.4826606835793818,1175.0,0.4820568268613005,0.5206562459352913,3.035921561447722,-0.0035513083755364027,0.267,0.9999999999999893,-3.226248376557262,0.1688828962093274,34,2026-10-08 01:31:25.285243,25.0,0.5806556720095847,0.09378005629873672,0.07833050120271182
0312,cdot_cos,P,T-P,35,7,9920,0.03682072269768791,-0.001550013476325425,0.04457920587297094,0.7529634055006161,1162.0,0.5112211331037019,0.5215895958736206,3.0857657067041195,-0.00521430616184926,0.719,0.9999999999999888,-1.7817516432148435,0.17385007097991037,35,2026-10-08 01:31:26.004243,25.0,0.7269265547617376,0.031096916834077448,0.04056231744422997
0312,cdot_cos,Q,P-Q,36,7,10030,-0.0012480398317292164,-0.0008420934345436875,-0.03806876252941713,0.27853923591997537,1162.0,0.5267741932687039,0.5219348265735804,3.13160902138479,-0.002905756221917669,0.11,0.9999999999999849,6.686977549218157,0.17881721504478443,36,2026-10-08 01:31:26.114244,25.0,0.4518184915197074,0.22508349118827758,0.1413914560454729
0312,cdot_cos,R,Q-R,37,7,10063,0.07985746613778598,0.07683572262898167,0.0811055059695152,0.8836684517903957,1162.0,0.5607395011651229,0.5230299340903556,3.1814669495964973,-0.006647104434783808,0.033,0.9999999999999835,-3.416420904390605,0.18378435519046682,37,2026-10-08 01:31:26.147244,25.0,0.5695812521372045,0.6774001226791931,1.0292517544369408
0312,cdot_cos,S,R-S,38,7,10110,-0.005843000077885841,-0.050001319020417545,-0.08570046621567182,0.10503305679550733,1162.0,0.5714826013655306,0.5231600843326659,3.2249754141159195,-0.0021888348847272634,0.047,0.9999999999999818,34.25479254526563,0.18875149639574826,38,2026-10-08 01:31:26.194243,25.0,0.130442450308334,0.3397932259986071,0.22857660000867439
0312,cdot_cos,T,S-T,39,7,10380,-0.015081116748311037,0.015201746251695994,-0.009238116670425196,0.44251705206415404,1162.0,0.592680064408992,0.5237083883980405,3.2705579024919897,-0.004440220729596986,0.27,0.9999999999999806,-4.106090009257607,0.19371865144369824,39,2026-10-08 01:31:26.464243,25.0,0.602273464485998,0.09899975371538333,0.07850912238319027
0312,cdot_cos,P,T-P,40,8,11082,0.037108497315281305,0.0006350502161181808,0.05218961406359234,0.7866316954486453,1175.0,0.6249424683718376,0.5246829283701315,3.318386279793793,-0.007066986964686758,0.702,0.9999999999999795,-2.6953909642654463,0.1986858355928645,40,2026-10-08 01:31:27.166244,25.0,0.6895642822083495,0.03449470125304256,0.04595784040291401
0312,cdot_cos,Q,P-Q,41,8,11196,-0.00385149108153878,-0.0023310983981630227,-0.040959988396820086,0.2642490380874522,1175.0,0.6411106249682638,0.5250102586365484,3.3617060111348853,-0.003682213684800198,0.114,0.9999999999999736,10.340544786579953,0.20365298074045252,41,2026-10-08 01:31:27.280244,25.0,0.3988290522561743,0.2319224618588084,0.14182593505636948
0312,cdot_cos,R,Q-R,42,8,11230,0.08358603493078232,0.08399477782574767,0.08743752601232109,0.8989796258476386,1175.0,0.677820789675646,0.5261236790581927,3.409671241865643,-0.008707749843745501,0.034,0.9999999999999724,-4.513601566175298,0.2086201205197034,42,2026-10-08 01:31:27.314244,25.0,0.5615054878234809,0.7062423527450218,1.0797107266877117
0312,cdot_cos,S,R-S,43,8,11276,-0.003823315550318818,-0.04391396932216576,-0.08740935048110113,0.10108436133599183,1175.0,0.6891351049549252,0.526248859839246,3.45084464974273,-0.0027814339895001,0.046,0.9999999999999694,47.3420584564256,0.21358726148449153,43,2026-10-08 01:31:27.360243,25.0,0.11875778937317685,0.3782921769113502,0.24596337563650622
0312,cdot_cos,T,S-T,44,8,11538,-0.008454997782839119,0.008451003300928893,-0.004631682232520301,0.4710842868380975,1175.0,0.7126236699514902,0.5268321970989185,3.4946095543116087,-0.005920546610348148,0.262,0.9999999999999676,-5.381299700640246,0.2185544197109272,44,2026-10-08 01:31:27.622243,25.0,0.5884834030478534,0.10902360657165854,0.08965101143727072
0312,cdot_cos,P,T-P,45,9,12257,0.03940718680473088,-0.001491969436606153,0.04786218458757,0.7679113016373806,1179.0,0.7462634747984743,0.5277829334842141,3.540475664911919,-0.008823009132892391,0.719,0.9999999999999659,-3.0528573087498985,0.22352161711561244,45,2026-10-08 01:31:28.341243,25.0,0.7196680967684356,0.03534954805228221,0.04678693302779436
0312,cdot_cos,Q,P-Q,46,9,12366,-0.0012831702469405554,-0.000842168500872434,-0.04069035705167144,0.26556167224088806,1179.0,0.763456320050672,0.5281116738032678,3.581827790206409,-0.004666095756627742,0.109,0.9999999999999581,12.644975791926932,0.22848876280716027,46,2026-10-08 01:31:28.450243,25.0,0.4102961184129234,0.25701683853846374,0.15773252524951986
0312,cdot_cos,R,Q-R,47,9,12399,0.0857682485300969,0.08072010636796738,0.08705141877703745,0.8980996329251338,1179.0,0.8022931455998594,0.5292232541893677,3.628171992092674,-0.010928598209145903,0.033,0.9999999999999563,-5.6338727552501,0.23345590201329983,47,2026-10-08 01:31:28.483244,25.0,0.5638099592980552,0.7649606017258254,1.1768735014905283
0312,cdot_cos,S,R-S,48,9,12453,-0.0058874226298349045,-0.03820035118713707,-0.09165567115993181,0.0918384038798885,1179.0,0.8139437197645765,0.5293369066875498,3.667353821968487,-0.003384068924952822,0.054,0.9999999999999516,66.38243245739666,0.2384230435375792,48,2026-10-08 01:31:28.537244,25.0,0.10759023157851273,0.3250327728841371,0.21575137342068598
0312,cdot_cos,T,S-T,49,9,12697,-0.01684719442497322,0.01823944235264231,-0.010959771795138315,0.4319267654859185,1179.0,0.8373966850713462,0.5298713867028363,3.709099863772357,-0.006959308079795879,0.244,0.9999999999999489,-6.689191461961375,0.2433902040178105,49,2026-10-08 01:31:28.781244,25.0,0.5982569955170799,0.12245042778266998,0.09611871027364659
0312,cdot_cos,P,T-P,50,10,13436,0.03652098000882521,-2.973013423353044e-05,0.05336817443379843,0.7915352349878845,1164.0,0.8736995285225194,0.5308506790876031,3.7536813202945787,-0.011159457529568168,0.739,0.9999999999999466,-4.288963658971472,0.24835741683570153,50,2026-10-08 01:31:29.520243,25.0,0.6863443751507554,0.03713508860310175,0.049124280718772916
0312,cdot_cos,Q,P-Q,51,10,13526,-0.0015005926355217234,-0.0008119123483504558,-0.03802157264434693,0.2787763740862069,1164.0,0.8922823460267306,0.5311955267982538,3.7934950543797092,-0.005895063686546666,0.09,0.9999999999999369,15.265851216144716,0.253324561447497,51,2026-10-08 01:31:29.610244,25.0,0.40941854954540113,0.3294409389439602,0.20647575004679114
0312,cdot_cos,R,Q-R,52,10,13583,0.08366465567706047,0.08457452300883118,0.0851652483125822,0.8937025027358441,1164.0,0.9329988975324323,0.5323008386180302,3.838476157665679,-0.013346551340743607,0.057,0.9999999999999342,-6.741525351374508,0.2582917028469683,52,2026-10-08 01:31:29.667244,25.0,0.5721763133223703,0.4674561133764365,0.7143254650123094
0312,cdot_cos,S,R-S,53,10,13625,-0.003870516738500776,-0.008669779147854053,-0.08753517241556125,0.10079889539374738,1164.0,0.9455723429516444,0.5324254848104213,3.876116261873177,-0.004241663184232518,0.042,0.9999999999999275,73.04585869696079,0.26325884285918355,53,2026-10-08 01:31:29.709243,25.0,0.11688820888579186,0.430742293367239,0.29936774807647915
0312,cdot_cos,T,S-T,54,10,13878,-0.019497545436561042,0.019933325785059516,-0.015627028698060267,0.40355464607162506,1164.0,0.9691812501752803,0.5329244729018038,3.9161793159549236,-0.008116823393873967,0.253,0.999999999999924,-7.766037459741724,0.26822600852577977,54,2026-10-08 01:31:29.962244,25.0,0.6203798975240074,0.12300949237991529,0.09331583882860062
0312,cdot_cos,P,T-P,55,11,14600,0.03754253005673952,0.001132409225804426,0.05704007549330056,0.8062775990196749,1178.0,1.0078151460958815,0.5339212224859259,3.959666006464497,-0.013710567628395263,0.722,0.9999999999999211,-5.611985521366473,0.27319323441152227,55,2026-10-08 01:31:30.684243,25.0,0.664986995927907,0.04005090812689486,0.05350955113656673
0312,cdot_cos,Q,P-Q,56,11,14707,-0.002010009346991029,-0.0013127674570659563,-0.03955253940373055,0.2711465002532488,1178.0,1.0270147615105165,0.5342563631635678,3.9980088386966868,-0.007012321445606683,0.107,0.9999999999999083,19.98637178249254,0.27816038193820836,56,2026-10-08 01:31:30.791244,25.0,0.38473097956980407,0.28965970308057687,0.17943565808070092
0312,cdot_cos,R,Q-R,57,11,14751,0.08479287781928814,0.0878537299035644,0.08680288716627917,0.897529605078829,1178.0,1.069802322555125,0.5353654994432859,4.041921193448706,-0.016098464429963676,0.044,0.9999999999999051,-8.192088880787855,0.2831275214857498,57,2026-10-08 01:31:30.835244,25.0,0.5686952717174562,0.6373887921069648,0.9724445691956468
0312,cdot_cos,S,R-S,58,11,14805,-0.0010656261004773594,-0.04348223078818979,-0.0858585039197655,0.10466224292476446,1178.0,1.0831049752159294,0.5354948148924343,4.078207321342851,-0.0051387082279894586,0.054,0.9999999999998966,84.75210250707691,0.2880946628423773,58,2026-10-08 01:31:30.889244,25.0,0.11850687604859345,0.3613514294867008,0.2463454196445266
0312,cdot_cos,T,S-T,59,11,15039,-0.012253463509197628,0.01213598409996794,-0.011187837408720269,0.43052832316889167,1178.0,1.1088282769396887,0.5360267038436646,4.117299551389474,-0.010115281852173513,0.234,0.9999999999998919,-9.356414741598606,0.29306183049968454,59,2026-10-08 01:31:31.123244,25.0,0.6114111330391204,0.14155669677065202,0.10992863984512499
0312,cdot_cos,P,T-P,60,12,15778,0.04576578418930637,0.0001608354250666785,0.058019247698504,0.810072478925252,1156.0,1.1493535093045946,0.5370272711000202,4.159795690175596,-0.016412725393490986,0.739,0.9999999999998878,-6.293873301685331,0.2980290755152697,60,2026-10-08 01:31:31.862243,25.0,0.6813407452628025,0.040179261502068665,0.05483793283478472
0312,cdot_cos,Q,P-Q,61,12,15882,-0.00028293200688379525,-0.0001831004229271607,-0.046048716196190165,0.2402666980605349,1156.0,1.1682132254397462,0.5373239813999083,4.196634862997214,-0.00783835906406375,0.104,0.9999999999998715,28.898108129920534,0.30299622373425034,61,2026-10-08 01:31:31.966244,25.0,0.33490842896691725,0.30670238419308177,0.18134342437645753
0312,cdot_cos,R,Q-R,62,12,15925,0.08990354313387963,0.09217182555239074,0.09018647514076343,0.9050519012824138,1156.0,1.2131476052167556,0.5384414096269544,4.239692318745165,-0.019182878938459005,0.043,0.9999999999998672,-10.15234768534931,0.3079633627245333,62,2026-10-08 01:31:32.009243,25.0,0.5535585430579041,0.6790913680255699,1.0449855762095217
0312,cdot_cos,S,R-S,63,12,15984,-0.0005220277460005273,-0.0010849583654427323,-0.09042557087988017,0.09443568577590035,1156.0,1.2266150830899452,0.5385579832045246,4.274671891748976,-0.005890172341596771,0.059,0.9999999999998567,114.02846917737308,0.31293050482194695,63,2026-10-08 01:31:32.068243,25.0,0.10468910617997483,0.28990750013162614,0.22826233683372174
0312,cdot_cos,T,S-T,64,12,16214,-0.038708373610619275,0.037802219759048857,-0.03818634586461875,0.2779488962973738,1156.0,1.2473566902322875,0.538901065182982,4.311208946620627,-0.00919781870048745,0.23,0.999999999999848,-9.640979610072938,0.31789767621925863,64,2026-10-08 01:31:32.298244,25.0,0.6979470481445956,0.14122551741780512,0.09018090061887957
0312,cdot_cos,P,T-P,65,13,16934,0.034528589799395874,-3.8918581981045266e-06,0.07323696341001515,0.8618717748770779,1158.0,1.2915788211021355,0.5399646677351314,4.353334776426705,-0.020118352062486463,0.72,0.9999999999998441,-10.267494507163141,0.32286493504070224,65,2026-10-08 01:31:33.018244,25.0,0.5811104091197944,0.04563651724470029,0.061419626208122295
0312,cdot_cos,Q,P-Q,66,13,17046,-0.0017966800169229448,-0.0012078052897613837,-0.03632526981631882,0.2873822920058517,1158.0,1.3130732750646559,0.5403192346603377,4.389574752265724,-0.010030612142974932,0.112,0.9999999999998256,28.450876836981017,0.3278320858721546,66,2026-10-08 01:31:33.130244,25.0,0.3657901967049345,0.3036599976816236,0.19191476752250325
0312,cdot_cos,R,Q-R,67,13,17081,0.08634660280630843,0.08850759407424408,0.08814328282323138,0.9005707211274567,1158.0,1.3595986605828192,0.5414300760986569,4.431796724250696,-0.022270404933508087,0.035,0.9999999999998197,-11.018487759200957,0.3327992229116491,67,2026-10-08 01:31:33.165244,25.0,0.5771812004434774,0.8643048860463693,1.3292967290903805
0312,cdot_cos,S,R-S,68,13,17124,-0.004088160687798298,-0.009132651764296833,-0.09043476349410673,0.09441603435291755,1158.0,1.3735746170879017,0.5415465133079891,4.4657075020397965,-0.006841074043839346,0.043,0.9999999999998064,132.51202925733048,0.33776636194336745,68,2026-10-08 01:31:33.208243,25.0,0.10483202424927077,0.4884730505265232,0.3250222443042452
0312,cdot_cos,T,S-T,69,13,17370,-0.014462144260202963,0.014867838418494402,-0.010373983572404665,0.4355236002672467,1158.0,1.4016073429281002,0.5420835575582474,4.5028847680504205,-0.013930086168966491,0.246,0.9999999999997985,-13.200052177668471,0.3427335415504404,69,2026-10-08 01:31:33.454243,25.0,0.6011568639661621,0.14309811650615573,0.11395417008210751
0312,cdot_cos,P,T-P,70,14,18092,0.03525093957368047,0.0001668558222590016,0.04971308383388344,0.7760557278258357,1170.0,1.4439788904089303,0.5430402689195403,4.543401443645015,-0.021582441762292567,0.722,0.999999999999792,-7.998604284353074,0.34770082033706107,70,2026-10-08 01:31:34.176243,25.0,0.7014792633371892,0.04473658892392345,0.05868635385156532
0312,cdot_cos,Q,P-Q,71,14,18206,-0.0014388360651353248,-0.000962528218863009,-0.0366897756388158,0.2855197011881001,1170.0,1.4662069773342457,0.5433921743748914,4.578704540901866,-0.011577747679114169,0.114,0.9999999999997695,28.43006248140061,0.3526679731576187,71,2026-10-08 01:31:34.290244,25.0,0.42141748157054626,0.3093003158929041,0.1949832186431167
0312,cdot_cos,R,Q-R,72,14,18240,0.08719612627413616,0.08756954685409957,0.08863496233927148,0.9016659771734185,1170.0,1.5144993624325125,0.5445031993678364,4.620263563381921,-0.025753018882555736,0.034,0.9999999999997634,-12.758732965913614,0.3576351092987233,72,2026-10-08 01:31:34.324243,25.0,0.5767009462862626,0.9239682284029211,1.4203642675960833
0312,cdot_cos,S,R-S,73,14,18296,-0.0026967015994787693,-0.039227506026709345,-0.08989282787361492,0.09558082678205498,1170.0,1.5290368168656443,0.5446209474657325,4.653244123360927,-0.007915507511226562,0.056,0.9999999999997468,151.48874325823533,0.3626022508581939,73,2026-10-08 01:31:34.380243,25.0,0.1050320973812349,0.38807703270604876,0.2595974005916395
0312,cdot_cos,T,S-T,74,14,18528,-0.013526191220513607,0.012731428679349283,-0.010829489621034838,0.4327261125205104,1170.0,1.55796399009559,0.5451539695589668,4.689592480114127,-0.01597242515966034,0.232,0.9999999999997363,-15.115541645837549,0.367569433031606,74,2026-10-08 01:31:34.612243,25.0,0.6038516668598918,0.1584874694564926,0.1246860915083864
0312,cdot_cos,P,T-P,75,15,19262,0.04023865327709353,-0.0009096032627576344,0.053764844497607135,0.7931668399928142,1155.0,1.6025750026934569,0.5461307047997126,4.729631391080716,-0.025210134572353007,0.734,0.9999999999997293,-9.457741491582622,0.37253673538525506,75,2026-10-08 01:31:35.346244,25.0,0.6932057644562022,0.04536683592918107,0.0607779463186198
0312,cdot_cos,Q,P-Q,76,15,19359,-0.0012174733545655602,-0.00071264990290423,-0.04145612663165909,0.2618446014938898,1155.0,1.6245625052396278,0.546453072439155,4.763868321546527,-0.012685658325536793,0.097,0.9999999999997021,38.85153071964879,0.37750388577549815,76,2026-10-08 01:31:35.443244,25.0,0.3725834835138438,0.36859540539157615,0.22667528398114306
0312,cdot_cos,R,Q-R,77,15,19409,0.08312025713885071,0.08438392807924165,0.08433773049341627,0.8917211147395172,1155.0,1.6740825113394227,0.5475506131222757,4.804738024429609,-0.02919141012193804,0.05,0.9999999999996941,-15.0388519079484,0.3824710251840036,77,2026-10-08 01:31:35.493243,25.0,0.5681147774139447,0.6486691426749602,0.990400121995898
0312,cdot_cos,S,R-S,78,15,19462,-0.0035234386454972484,-0.007517289865212375,-0.08664369578434795,0.10283699606337317,1155.0,1.6894294195071238,0.5476771565611555,4.836954576906163,-0.009224260377543328,0.053,0.9999999999996744,157.78889779793042,0.3874381659100246,78,2026-10-08 01:31:35.546243,25.0,0.11479191454786425,0.3868001802449443,0.2895643050509646
0312,cdot_cos,T,S-T,79,15,19712,-0.03067005457906297,0.030408569576183105,-0.02714661593356572,0.33655923692066114,1155.0,1.7150833304453867,0.5480912577550668,4.871542560723912,-0.015604745815032661,0.25,0.9999999999996598,-15.408034391841635,0.39240535831105994,79,2026-10-08 01:31:35.796243,25.0,0.66439323235013,0.145950531677713,0.10261564375305188
0312,cdot_cos,P,T-P,80,16,20417,0.030411356359234948,-0.0005088332009190154,0.061081410938297914,0.8215721251555116,1150.0,1.7624046853459803,0.549101836179906,4.911317078913589,-0.029389940352507936,0.705,0.9999999999996512,-13.640895351262504,0.3973726743422076,80,2026-10-08 01:31:36.501244,25.0,0.6255996441588663,0.04952413672012238,0.06712248922070004
0312,cdot_cos,Q,P-Q,81,16,20515,-0.01187890265466885,-0.0059644175171331484,-0.0422902590139038,0.25783409481356934,1150.0,1.7849123632207593,0.54941890305645,4.94477122453257,-0.014257776252234164,0.098,0.9999999999996196,47.72546494043744,0.4023398262100717,81,2026-10-08 01:31:36.599244,25.0,0.3459963391635893,0.37956527671072693,0.2296701823957044
0312,cdot_cos,R,Q-R,82,16,20563,0.08035979938426491,0.08220321397034391,0.09223870203893375,0.9093700645299773,1150.0,1.8367994795812828,0.5505368625839648,4.985324435447762,-0.03354273238001605,0.048,0.9999999999996104,-17.250137999764387,0.4073069647572991,82,2026-10-08 01:31:36.647244,25.0,0.5627403505049763,0.7071313718724446,1.0809815908442386
0312,cdot_cos,S,R-S,83,16,20617,-0.0046086959129788595,-0.05509586680679962,-0.08496849529724376,0.10676568323045453,1150.0,1.852796974920514,0.5506680847044251,5.0168261262641005,-0.010534952233382749,0.054,0.9999999999995874,175.33461634317007,0.4122741056301248,83,2026-10-08 01:31:36.701244,25.0,0.11259620493318774,0.4410229219773327,0.2962499136894672
0312,cdot_cos,T,S-T,84,16,20851,-0.012568432829480563,0.01146345129792795,-0.007959736916501703,0.4504151596754957,1150.0,1.8844299551548347,0.5512215970324124,5.0520305087031,-0.021095619444855645,0.234,0.9999999999995721,-19.07937127592855,0.41724130004487614,84,2026-10-08 01:31:36.935244,25.0,0.6061611002745432,0.16432867894496947,0.13518367621504573
0312,cdot_cos,P,T-P,85,17,21567,0.030187266259813057,0.00128713363126784,0.04275569908929362,0.7443862385712076,1181.0,1.9297027966667597,0.5521360898651011,5.090444399528994,-0.030801387938841778,0.716,0.9999999999995611,-10.613280002916786,0.4222086424481423,85,2026-10-08 01:31:37.651244,25.0,0.7297099489526958,0.04951109177882654,0.06323022557531427
0312,cdot_cos,Q,P-Q,86,17,21675,-0.0017009972351436876,-0.0011085900782822782,-0.03188826349495674,0.3106233737986528,1181.0,1.9553298385821143,0.5525175927706184,5.123838714454277,-0.017756597710983243,0.108,0.9999999999995259,34.19316088869681,0.42717579886311385,86,2026-10-08 01:31:37.759244,25.0,0.47967586214113944,0.36075265952998636,0.2372874251421721
0312,cdot_cos,R,Q-R,87,17,21722,0.07956783777213487,0.08523394399875515,0.08126883500727856,0.884087544236006,1181.0,2.0076253711252368,0.5536030757995027,5.1636671000396674,-0.03694434432784378,0.047,0.9999999999995144,-17.676689645329372,0.4321429367422308,87,2026-10-08 01:31:37.806243,25.0,0.594895817712476,0.730676171176111,1.1126709051728185
0312,cdot_cos,S,R-S,88,17,21773,-0.006234859600663764,-0.03445995000478283,-0.08580269737279864,0.10479305313160124,1181.0,2.0240133986726687,0.5537317070788446,5.194465223189053,-0.01177736831666851,0.051,0.9999999999994864,195.65206954288266,0.43711007653168904,88,2026-10-08 01:31:37.857243,25.0,0.11802096412448128,0.4549581770925867,0.32133387347905806
0312,cdot_cos,T,S-T,89,17,22026,-0.023144124099244497,0.02263941790885461,-0.016909264498580732,0.3958632843897759,1181.0,2.0540311051886806,0.554217555907474,5.228479343753399,-0.021816105941627043,0.253,0.9999999999994674,-20.66226577776697,0.4420772836991471,89,2026-10-08 01:31:38.110244,25.0,0.6311873260885816,0.1597218442982137,0.11864706132811019
0312,cdot_cos,P,T-P,90,18,22748,0.04138852623678693,0.0005034166095927864,0.06453265033603142,0.8338712963521544,1172.0,2.104832651887565,0.5552406384197189,5.267476642275755,-0.0376359160982499,0.722,0.9999999999994562,-15.462887858291982,0.4470446525775049,90,2026-10-08 01:31:38.832243,25.0,0.6568246977560688,0.0517477755026622,0.07036225304554607
0312,cdot_cos,Q,P-Q,91,18,22854,-0.0007115844005284717,-0.00045840997344956706,-0.042100110637315405,0.2587447907501098,1172.0,2.128754893014525,0.5555579994523983,5.299687188497454,-0.018038458996404938,0.106,0.9999999999994137,61.75130240910007,0.45201181008561375,91,2026-10-08 01:31:38.938244,25.0,0.33742016446571566,0.3675051736272967,0.22568152006565995
0312,cdot_cos,R,Q-R,92,18,22898,0.08225260427955952,0.08517195892218421,0.082964188680088,0.888360700127447,1172.0,2.1827437486965517,0.5566472636020039,5.339174655870474,-0.04143872304517515,0.044,0.9999999999994,-21.482634912057016,0.45697894639135295,92,2026-10-08 01:31:38.982244,25.0,0.5685331891163268,0.8035017363522867,1.227019447318794
0312,cdot_cos,S,R-S,93,18,22954,-0.004730695929775264,-0.021573127528622348,-0.08698330020933479,0.10205632239991759,1172.0,2.199463045813526,0.5567723653680257,5.369319917189247,-0.013042472161575693,0.056,0.9999999999993671,226.9852120125924,0.46194608771273565,93,2026-10-08 01:31:39.038244,25.0,0.11335692171739983,0.43090355455560214,0.2985588770888265
0312,cdot_cos,T,S-T,94,18,23182,-0.01927703035003788,0.01940210199107102,-0.014546334420262617,0.4100742693900748,1172.0,2.231004946806779,0.5572749661817469,5.402982938095339,-0.024870562216576502,0.228,0.9999999999993446,-23.533766225777587,0.4669132931529018,94,2026-10-08 01:31:39.266243,25.0,0.6215207672495726,0.1781443490445476,0.13834167102304015
0312,cdot_cos,P,T-P,95,19,23920,0.031800504859680265,-0.00077660314099611,0.051077535209718146,0.7819281703524047,1165.0,2.2806968689778397,0.558232997845412,5.440983971712317,-0.03988223407290367,0.738,0.9999999999993301,-15.669285709093275,0.4718806939934905,95,2026-10-08 01:31:40.004243,25.0,0.6863277650771156,0.05178830026954086,0.06733322787406579
0312,cdot_cos,Q,P-Q,96,19,24013,-0.0014123879878806425,-0.0007593117359336718,-0.033212892847560904,0.30357692136934605,1165.0,2.3074444780046215,0.5586048290629173,5.473189179368867,-0.021827225670326973,0.093,0.9999999999992829,48.556999930540485,0.47684784823314674,96,2026-10-08 01:31:40.097243,25.0,0.4372814045262304,0.44557242645830814,0.287608699212707
0312,cdot_cos,R,Q-R,97,19,24061,0.0875176725689688,0.08218925462952821,0.08893006055684943,0.9023181595966178,1165.0,2.363573340299085,0.5597096291775774,5.512502552175573,-0.0466062584205648,0.048,0.9999999999992683,-22.42852116091771,0.48181498557769675,97,2026-10-08 01:31:40.145243,25.0,0.5876242906346767,0.7537636804260025,1.1693512978013243
0312,cdot_cos,S,R-S,98,19,24110,-0.008583211136679229,-0.04854530006642112,-0.09610088370564802,0.08298057639525314,1165.0,2.3798057913255177,0.5598112012359224,5.541850162965916,-0.013686646281375527,0.049,0.9999999999992291,324.1010635755726,0.48678212399882637,98,2026-10-08 01:31:40.194243,25.0,0.09024421007801486,0.5303748569073298,0.3312745107435239
0312,cdot_cos,T,S-T,99,19,24362,-0.0120752476815381,0.01268537599156797,-0.0034920365448588703,0.4781886226945599,1165.0,2.4155500762760034,0.5603964283601788,5.575876078253746,-0.030459904775867592,0.252,0.9999999999992059,-28.6611091647639,0.4917493464237427,99,2026-10-08 01:31:40.446244,25.0,0.5765652246333337,0.16693799743608803,0.14184240059716527
0312,cdot_cos,P,T-P,100,20,25085,0.0275583772095271,-0.0005559709635690616,0.0396336248910652,0.7292539290098701,1172.0,2.463942542033306,0.5612885958759808,5.612888058985684,-0.04194324896050332,0.723,0.9999999999991863,-12.871287041103269,0.49671676940556303,100,2026-10-08 01:31:41.169244,25.0,0.7604971640152242,0.053069149138029834,0.06693287103361371
0312,cdot_cos,Q,P-Q,101,20,25188,-0.0022935519453937256,-0.0014612213730005293,-0.029851929154920825,0.3216284326527601,1172.0,2.4922880659295945,0.5616819498098998,5.644836100051061,-0.024949412933884654,0.103,0.9999999999991337,43.20240516551285,0.5016839293734598,101,2026-10-08 01:31:41.272243,25.0,0.5060439786027309,0.4120379649872912,0.2751992611290138
0312,cdot_cos,R,Q-R,102,20,25231,0.07801706458100714,0.07708720274664625,0.08031061652640087,0.8816099886479435,1172.0,2.548822362820688,0.5627597664257563,5.683597433703822,-0.05058547900501469,0.043,0.9999999999991157,-23.78518357759623,0.5066510640327976,102,2026-10-08 01:31:41.315244,25.0,0.6024280391922648,0.8620682530674831,1.3147510904905484
0312,cdot_cos,S,R-S,103,20,25288,-0.009008816712027376,-0.05121236836604199,-0.08702588129303451,0.10195880957195173,1172.0,2.566425935693398,0.5628843786466754,5.712654921771778,-0.015981869988951833,0.057,0.9999999999990716,277.69033214272173,0.5116182056668148,103,2026-10-08 01:31:41.372243,25.0,0.11472939809776452,0.46128015298896125,0.30883461180192934
0312,cdot_cos,T,S-T,104,20,25540,-0.017804426894643715,0.01773286294676451,-0.00879561018261634,0.4452478720941532,1172.0,2.6014083002614297,0.5634284593685829,5.745867828360294,-0.032077199597905615,0.252,0.9999999999990424,-29.58261331613721,0.5165854364138022,104,2026-10-08 01:31:41.624243,25.0,0.6054589339648515,0.17791896868258125,0.13881890701599844
0312,cdot_cos,P,T-P,105,21,26257,0.045432831073724436,-0.00022100757687950557,0.06323725796836815,0.829336393451885,1164.0,2.656097095909419,0.5644414778858846,5.783806537874803,-0.050990353487003606,0.717,0.9999999999990241,-18.67009690945718,0.5215528859258797,105,2026-10-08 01:31:42.341243,25.0,0.6901016920191235,0.055478916616151744,0.07627447091769783
0312,cdot_cos,Q,P-Q,106,21,26369,-0.000781078216344008,-0.0005338427723793448,-0.046213909290068446,0.23951365393524052,1164.0,2.6809650666889913,0.564733939519292,5.81429457179415,-0.02353346172502537,0.112,0.9999999999989614,93.88202972844495,0.5265200521305122,106,2026-10-08 01:31:42.453243,25.0,0.31138752522586,0.3754463879016131,0.22203545338903802
0312,cdot_cos,R,Q-R,107,21,26403,0.0904446876909656,0.09126902608934333,0.0912257659073096,0.9072612585725569,1164.0,2.7401970867993803,0.5658413539650271,5.853111315338735,-0.0569031847535214,0.034,0.9999999999989416,-30.133003192263693,0.5314871816664088,107,2026-10-08 01:31:42.487243,25.0,0.556309883241464,1.129180402343842,1.7421182385408553
0312,cdot_cos,S,R-S,108,21,26450,-0.0008711182812695506,-0.001485958688324106,-0.09131580597223515,0.09254951959946592,1164.0,2.7577493340483725,0.5659542843189809,5.881572291103548,-0.01709993985091647,0.047,0.9999999999988901,352.4583383392245,0.5364543183136231,108,2026-10-08 01:31:42.534244,25.0,0.09752141070550752,0.5308570318872355,0.37345206912749324
0312,cdot_cos,T,S-T,109,21,26716,-0.020767087320964404,0.021838268049417384,-0.019895969039694855,0.3781520547196351,1164.0,2.7900976477967805,0.5664156400271121,5.913555741441889,-0.03179285065645921,0.266,0.999999999998854,-31.84725049801235,0.5414215647493665,109,2026-10-08 01:31:42.800243,25.0,0.6299309172627003,0.16234197138265127,0.12161020206168408
0312,cdot_cos,P,T-P,110,22,27421,0.032657604209457625,0.00018162713200733897,0.05342469153042203,0.7917682821589618,1155.0,2.844115262823943,0.5673812450065249,5.950747659518108,-0.053888174369910787,0.705,0.9999999999988318,-22.882363062055163,0.5463890372108402,110,2026-10-08 01:31:43.505243,25.0,0.6636358140038875,0.058632786579419484,0.07662073053498229
0312,cdot_cos,Q,P-Q,111,22,27528,-0.0010337422776586843,-0.000677843842550127,-0.03369134648711631,0.301054036445086,1155.0,2.872769876873762,0.5677482630956923,5.981602404992001,-0.028999538956764385,0.107,0.9999999999987634,67.81310280811527,0.551356203130755,111,2026-10-08 01:31:43.612243,25.0,0.4239064640574033,0.4137632901147365,0.26780013130671915
0312,cdot_cos,R,Q-R,112,22,27571,0.08412932917444388,0.08874449587128763,0.08516307145210256,0.8936973326718086,1155.0,2.9326606069084966,0.5688373392609003,6.020011867423272,-0.06151312047566462,0.043,0.9999999999987407,-29.85427700797168,0.5563233363196431,112,2026-10-08 01:31:43.655244,25.0,0.5894511920203637,0.9066648835362703,1.3928076752263876
0312,cdot_cos,S,R-S,113,22,27627,-0.006004774757864133,-0.01858179751283179,-0.09013410393230802,0.0950606687208106,1155.0,2.950743056857881,0.568953142982188,6.048058200396046,-0.018820511566390533,0.056,0.9999999999986825,368.6635320051729,0.5612904772863486,113,2026-10-08 01:31:43.711244,25.0,0.10347672958888081,0.4664383914384229,0.3229008919532959
0312,cdot_cos,T,S-T,114,22,27857,-0.022483756636648332,0.021562115438975096,-0.0164789818787842,0.39843875646803656,1155.0,2.9849017067496,0.5694384423107797,6.079942151865935,-0.0358587484976334,0.23,0.999999999998642,-35.108717295546825,0.5662577137080492,114,2026-10-08 01:31:43.941243,25.0,0.62179260292223,0.1954047000860268,0.14851586909442954
0312,cdot_cos,P,T-P,115,23,28576,0.03320649492448774,0.003901747292912109,0.05569025156113607,0.8009522025559952,1182.0,3.0406292188974535,0.5704135995203874,6.117007826999383,-0.05935398085163574,0.719,0.9999999999986179,-24.093789311626733,0.5712252246647593,115,2026-10-08 01:31:44.660243,25.0,0.6731081190925454,0.058949808305571526,0.07750697099840549
0312,cdot_cos,Q,P-Q,116,23,28702,-0.0014000359961974405,-0.001160344166982885,-0.03460653092068518,0.2962617199601026,1182.0,3.069671531093012,0.5707741593940571,6.147429653245272,-0.031360893959743695,0.126,0.999999999998542,77.63783198331656,0.5761924036840851,116,2026-10-08 01:31:44.786243,25.0,0.40958482501241517,0.34727253070104913,0.23049454123458973
0312,cdot_cos,R,Q-R,117,23,28749,0.06568658913351295,0.08535444417059639,0.06708662512971039,0.8425288486948974,1182.0,3.128141896634118,0.5717991319352465,6.184957141083234,-0.06400439770499125,0.047,0.999999999998513,-31.84817391046188,0.5811595383564718,117,2026-10-08 01:31:44.833244,25.0,0.6004837488931795,0.8565022486779341,1.2440503306618313
0312,cdot_cos,S,R-S,118,23,28803,-0.00026825174643651595,-0.04647988363328233,-0.06595484087994948,0.16126159256282863,1182.0,3.1501827424687376,0.5719952436398581,6.213462656182453,-0.024437543356148943,0.054,0.9999999999984505,201.75672037115487,0.5861266779592343,118,2026-10-08 01:31:44.887244,25.0,0.19807666193703383,0.531883852200463,0.4081638117522174
0312,cdot_cos,T,S-T,119,23,29046,-0.015234199811182443,0.011758706951648917,-0.014965948064745927,0.40753893065927027,1182.0,3.185585352671768,0.572490754538523,6.245140726008869,-0.039599803472761756,0.243,0.9999999999984047,-30.599246469581715,0.5910939305420329,119,2026-10-08 01:31:45.130244,25.0,0.6818897734717307,0.18724880885623799,0.14568975392193523
0312,cdot_cos,P,T-P,120,24,29758,0.034546872259389697,-2.4197513427314212e-05,0.04978107207057214,0.7763509866054613,1158.0,3.2411856635728693,0.5734342866995163,6.281661902196691,-0.063049858773423,0.712,0.999999999998375,-24.85347746490625,0.5960614698351578,120,2026-10-08 01:31:45.842243,25.0,0.6894033592397419,0.05943637900998673,0.07809032429929973
0312,cdot_cos,Q,P-Q,121,24,29864,-0.0022931412236349273,-0.0014838319685855105,-0.036840013483024625,0.2847541125781693,1158.0,3.270222756381989,0.5737802268438833,6.311586927470693,-0.0333542920806231,0.106,0.9999999999982903,85.840187027559,0.6010286397085376,121,2026-10-08 01:31:45.948243,25.0,0.41052961495684637,0.43158832385631446,0.273934837821884
0312,cdot_cos,R,Q-R,122,24,29905,0.08242908103147456,0.08452417664001066,0.08472222225510949,0.8926457370056932,1158.0,3.332682388230408,0.574864208869468,6.349587199445856,-0.07270627184736919,0.041,0.9999999999982618,-36.303166323740655,0.6059957700361018,122,2026-10-08 01:31:45.989243,25.0,0.5820225925862534,0.997800039035834,1.5234056548394868
0312,cdot_cos,S,R-S,123,24,29964,-0.0037115294263718054,-0.05368995614455692,-0.08614061045784636,0.1040031918177607,1158.0,3.3520423595829274,0.5749904582732573,6.376957152224931,-0.02281350789012075,0.059,0.9999999999981886,395.1920758413441,0.6109629126794229,123,2026-10-08 01:31:46.048243,25.0,0.11225486195091257,0.48949377841755076,0.32813510766982096
0312,cdot_cos,T,S-T,124,24,30194,-0.011997334905100791,0.010876209612794856,-0.008285805478728986,0.44839809989342627,1158.0,3.390442654083679,0.575534656228656,6.408887199394135,-0.04562603563298553,0.23,0.9999999999981397,-41.919539602376695,0.6159301662896814,124,2026-10-08 01:31:46.278244,25.0,0.6065371745516533,0.20767935697638393,0.16695780217718065
0312,cdot_cos,P,T-P,125,25,30916,0.0393519095511574,0.0002137233349771769,0.05134924445625819,0.7830842247804198,1192.0,3.447574863792064,0.5764846059070787,6.445298465022041,-0.06880382831852151,0.722,0.9999999999981083,-24.398968926458107,0.6208977460791645,125,2026-10-08 01:31:47.000243,25.0,0.7140032414077571,0.05940858612115018,0.07913048436064413
0312,cdot_cos,Q,P-Q,126,25,31006,-0.001035615953076375,-0.0005077651131272284,-0.04038752550423377,0.2670408871688269,1192.0,3.47622865244262,0.5768084210028592,6.474663560845627,-0.0349333211315425,0.09,0.9999999999980123,104.59829584331166,0.6258649077105192,126,2026-10-08 01:31:47.090244,25.0,0.3792438314271132,0.5141228480769182,0.3183754294506199
0312,cdot_cos,R,Q-R,127,25,31065,0.08484394177982744,0.08350364692664997,0.08587955773290382,0.8953870696114165,1192.0,3.5401169764459093,0.5778936887943403,6.512536257760529,-0.07887633284858728,0.059,0.9999999999979826,-40.490478075530255,0.6308320494934221,127,2026-10-08 01:31:47.149244,25.0,0.5728606630081525,0.7061844454028169,1.0828529492082963
0312,cdot_cos,S,R-S,128,25,31119,-0.0037489671507749357,-0.009150530337791537,-0.08859290893060238,0.09842727824958042,1192.0,3.559558417000152,0.5780129434274163,6.539475102359466,-0.02428556073968463,0.054,0.9999999999978991,457.7664674389693,0.6357991887421981,128,2026-10-08 01:31:47.203244,25.0,0.10562401336732483,0.5176426074411747,0.36002667693042417
0312,cdot_cos,T,S-T,129,25,31370,-0.019908077471521592,0.02187922155298889,-0.016159110320746656,0.40035701705659815,1192.0,3.596022378049556,0.5784979226795868,6.570478530832646,-0.04589387423073779,0.251,0.9999999999978414,-44.55512971811909,0.6407664660120369,129,2026-10-08 01:31:47.454243,25.0,0.6244823615633802,0.191351643756578,0.14527474521674888
0312,cdot_cos,P,T-P,130,26,32108,0.03722249406525628,-0.001373764039809116,0.05713057153677788,0.8066307277266649,1158.0,3.6556169421659543,0.5794745877793321,6.607032169544704,-0.07596506694118915,0.738,0.9999999999978074,-30.78966650727199,0.6457340919092497,130,2026-10-08 01:31:48.192243,25.0,0.6731039244856697,0.06069089656347803,0.08075144189213847
0312,cdot_cos,Q,P-Q,131,26,32216,-0.00044579206290821177,-0.0002963349987182468,-0.037668286128164495,0.280555634608659,1158.0,3.6856021413772497,0.5798141379894941,6.636281978528208,-0.038685643529347925,0.108,0.9999999999977015,109.79060620831002,0.6507012679936588,131,2026-10-08 01:31:48.300243,25.0,0.38149784455733554,0.43858751435598226,0.2776407334379203
0312,cdot_cos,R,Q-R,132,26,32249,0.08260360092800675,0.07848249850854977,0.08304939299091496,0.888571780928123,1158.0,3.7503518452668465,0.5808890566941395,6.673913052455457,-0.08455535224302113,0.033,0.999999999997666,-42.672723542201176,0.6556683903996605,132,2026-10-08 01:31:48.333244,25.0,0.5813039938660101,1.2777842053792934,1.96211223907869
0312,cdot_cos,S,R-S,133,26,32305,-0.007859407854893693,-0.020641804806219546,-0.09046300878290045,0.09435567617409867,1158.0,3.769935898932283,0.5810031552872512,6.700461157332605,-0.0258625173149961,0.056,0.9999999999975732,514.4045454666466,0.6606355307857209,133,2026-10-08 01:31:48.389244,25.0,0.10337243475793259,0.5022270505452286,0.3497152440256533
0312,cdot_cos,T,S-T,134,26,32530,-0.02547522086112316,0.026213164595131417,-0.017615813006229466,0.39164677521488683,1158.0,3.806601274927912,0.5814766572298082,6.731084867898975,-0.04876669499043944,0.225,0.9999999999975077,-48.37187689612316,0.6656027988167089,134,2026-10-08 01:31:48.614244,25.0,0.6252095269139036,0.22135214699114256,0.1629572266472401
0312,cdot_cos,P,T-P,135,27,33266,0.04234934100509883,-0.00027691572944142076,0.06782456186622199,0.8449610356826771,1145.0,3.8695443650782972,0.5824977050064974,6.768017803577076,-0.0847595761041687,0.736,0.9999999999974741,-35.25092746437163,0.6705704605269278,135,2026-10-08 01:31:49.350244,25.0,0.6540007501196378,0.06249074174180283,0.08552050292171892
0312,cdot_cos,Q,P-Q,136,27,33362,-0.0006641874961808351,-0.0003846048637951229,-0.043013528501279666,0.2543892299646057,1145.0,3.898587646771846,0.5828049699499805,6.7966221261149355,-0.03957027923354363,0.096,0.9999999999973566,147.0694845899683,0.6755376299972826,136,2026-10-08 01:31:49.446244,25.0,0.31917971658432875,0.49887938078434224,0.3025341843077983
0312,cdot_cos,R,Q-R,137,27,33409,0.08806999644073371,0.08745573810287453,0.08873418393691454,0.9018856938380606,1145.0,3.965329206188891,0.583893796263924,6.834308353063079,-0.09198515041078453,0.047,0.9999999999973198,-48.138872569498005,0.680504762123422,137,2026-10-08 01:31:49.493243,25.0,0.5656279018094896,0.9238342225558217,1.4200331790860654
0312,cdot_cos,S,R-S,138,27,33460,-0.0012238189249643774,-0.002164159592689109,-0.08929381536569808,0.09688323309828975,1145.0,3.985428063692093,0.5840107127268265,6.860579181233655,-0.028004467651551283,0.051,0.9999999999972171,547.2341633582423,0.6854718983899376,138,2026-10-08 01:31:49.544243,25.0,0.10180868682323016,0.5538341702489231,0.39409524516082695
0312,cdot_cos,T,S-T,139,27,33708,-0.021605251859370803,0.020064372995591547,-0.020381432934406425,0.37530234567389814,1145.0,4.021820291554281,0.5844635296380382,6.890730109075742,-0.05105084607195135,0.248,0.999999999997143,-50.895577991402085,0.6904391944406982,139,2026-10-08 01:31:49.792243,25.0,0.6367108215546579,0.19905039001335664,0.1467428542830161
0312,cdot_cos,P,T-P,140,28,34411,0.03768929515138564,-0.0008607541263421346,0.05929454701075644,0.8149293344610999,1172.0,4.084157057138718,0.585446281775704,6.927100726813779,-0.08846305296503612,0.703,0.9999999999971022,-38.068812530841114,0.6954068670208148,140,2026-10-08 01:31:50.495244,25.0,0.6551353921181389,0.06463699941646434,0.08867249727515919
0312,cdot_cos,Q,P-Q,141,28,34497,-0.009072694880644662,-0.004227053778706964,-0.0467619900320303,0.2370267892302178,1172.0,4.11269991273383,0.585731993523037,6.9551895544559095,-0.04095147665780788,0.086,0.9999999999969741,166.29199446903755,0.7003740302327299,141,2026-10-08 01:31:50.581243,25.0,0.31342599195117093,0.5609850980647924,0.33189366971060397
0312,cdot_cos,R,Q-R,142,28,34557,0.07970199898322969,0.07826828016180618,0.08877469386387435,0.9019752733188439,1172.0,4.180646494005862,0.5868187043674885,6.9927594438042435,-0.09855675726553123,0.06,0.999999999996935,-53.00883938155212,0.7053411727817104,142,2026-10-08 01:31:50.641243,25.0,0.5573909543637346,0.738891979991226,1.1324430212005392
0312,cdot_cos,S,R-S,143,28,34616,-0.007548687559032165,-0.057904516918942266,-0.08725068654226185,0.10144536226733186,1172.0,4.201366950332777,0.5869408742975682,7.018799579625218,-0.030373772148687972,0.059,0.9999999999968225,558.0995673185699,0.7103083155076255,143,2026-10-08 01:31:50.700243,25.0,0.10594893241580684,0.5380511414308706,0.35119417503245376
0312,cdot_cos,T,S-T,144,28,34864,-0.012110989870127096,0.011949690301287017,-0.004562302311094931,0.47151648266926854,1172.0,4.244136528694705,0.5875085775307748,7.050110519470778,-0.06314428651682694,0.248,0.999999999996751,-57.72472737744034,0.7152756226233096,144,2026-10-08 01:31:50.948243,25.0,0.5951282809925956,0.20341806201213739,0.17245797726583856
0312,cdot_cos,P,T-P,145,29,35583,0.02683302380405398,-0.0018957892930156453,0.03894401367418108,0.7258365403481817,1138.0,4.302262309090797,0.5883820254783332,7.085065596832185,-0.0867860797711885,0.719,0.9999999999966974,-27.067203398266674,0.720243347080686,145,2026-10-08 01:31:51.667244,25.0,0.7615384789121554,0.06419538619402523,0.0808425318443563
0312,cdot_cos,Q,P-Q,146,29,35691,-0.002801849295072461,-0.0016730697116214223,-0.029634873099126442,0.32281352852202144,1138.0,4.336449494041713,0.5887703102465076,7.114147169602277,-0.05158068532474811,0.108,0.9999999999965654,90.66900721334771,0.7252105314221062,146,2026-10-08 01:31:51.775244,25.0,0.5053365844391342,0.47567796515103056,0.31654800880477874
0312,cdot_cos,R,Q-R,147,29,35724,0.08175012635351846,0.07996962644659601,0.08455197564859092,0.8922371894364308,1138.0,4.40500874956342,0.5898429297348268,7.151473971905928,-0.10458777554052673,0.033,0.9999999999965209,-49.41835459175087,0.7301776493786404,147,2026-10-08 01:31:51.808243,25.0,0.6024086906034121,1.3591240692037683,2.0775531976274695
0312,cdot_cos,S,R-S,148,29,35772,-0.00510072116617834,-0.04399595572935934,-0.0868508475196968,0.10236017437197721,1138.0,4.426151682609162,0.5899659295006933,7.177253815679211,-0.032581746657749065,0.048,0.9999999999963981,585.4159833193039,0.7351447820366439,148,2026-10-08 01:31:51.856243,25.0,0.10969940690048562,0.6337695338368884,0.4404777717862962
0312,cdot_cos,T,S-T,149,29,36024,-0.01989961301035342,0.01834863565661873,-0.014798891844175079,0.4085477158220719,1138.0,4.465850624811761,0.5904567433031289,7.2074516078290864,-0.061575900149544255,0.252,0.9999999999963132,-59.0736310753943,0.7401121042761293,149,2026-10-08 01:31:52.108243,25.0,0.6244596716917703,0.20498020527240587,0.15753548493094865
0312,cdot_cos,P,T-P,150,30,36721,0.03547575847518949,-0.00015934113248204686,0.055375371485542904,0.7996942130332393,1133.0,4.529461706066455,0.5914169434416763,7.243357435737465,-0.09973957282938045,0.697,0.9999999999962628,-39.74553965131901,0.7450798480913933,150,2026-10-08 01:31:52.805243,25.0,0.6820630289219213,0.06876152594958741,0.09126410509999068
0312,cdot_cos,Q,P-Q,151,30,36831,-0.0020553733816625988,-0.0014652989953815479,-0.037531131856852085,0.2812482498368371,1133.0,4.561704191985486,0.591754475438021,7.271610175203081,-0.05108054161570742,0.11,0.9999999999961173,144.16124023982658,0.7500470374806977,151,2026-10-08 01:31:52.915244,25.0,0.3857390134107896,0.46331460201821156,0.29311350835483035
0312,cdot_cos,R,Q-R,152,30,36866,0.08227092390268509,0.08516503861604303,0.08432629728434769,0.8916935134351667,1133.0,4.631390918510461,0.592824042342922,7.308835173892181,-0.1115485921549951,0.035,0.9999999999960693,-56.53508000500832,0.7550141559040916,152,2026-10-08 01:31:52.950243,25.0,0.5815384920762711,1.3029919773917114,1.9910493292850058
0312,cdot_cos,S,R-S,153,30,36911,-0.004410668065281252,-0.03926313147024018,-0.08668159196796635,0.10274961993289332,1133.0,4.652913630402906,0.592947231961372,7.334361726875735,-0.03479025373221132,0.045,0.9999999999959364,623.0909664998704,0.7599812850854479,153,2026-10-08 01:31:52.995244,25.0,0.11010538871971419,0.6948542127843855,0.4782824864987687
0312,cdot_cos,T,S-T,154,30,37160,-0.017469942220311292,0.01556150926395878,-0.01305927415503004,0.4190968877187426,1133.0,4.693927797661056,0.5934495786555495,7.364525134341088,-0.06671775043169495,0.249,0.9999999999958451,-63.556697136745925,0.7649486165055986,154,2026-10-08 01:31:53.244244,25.0,0.6196839049333419,0.21151849712482235,0.16471553115722934
0312,cdot_cos,P,T-P,155,31,37854,0.036516208611629734,-0.0007855311009034651,0.05398615083194103,0.7940730181974428,1149.0,4.758249841971067,0.5944008504175405,7.4002406814652675,-0.10573347622148781,0.694,0.999999999995791,-41.014279356018186,0.7699163973479579,155,2026-10-08 01:31:53.938244,25.0,0.6914249326609206,0.06992467708333124,0.09268306096543434
0312,cdot_cos,Q,P-Q,156,31,37952,-0.0011508593079173626,-0.0006767095545781266,-0.0376670679195471,0.2805617818574388,1149.0,4.79098324945272,0.5947367846819458,7.42827057427357,-0.0543458127073084,0.098,0.9999999999956342,152.9694019309307,0.7748835778691109,156,2026-10-08 01:31:54.036243,25.0,0.38845884869494124,0.5295172658515049,0.33401436205767676
0312,cdot_cos,R,Q-R,157,31,38000,0.08468351256825106,0.08585331970043367,0.08583437187616842,0.8952812094164744,1149.0,4.862035226077962,0.5958081666881284,7.465465514578074,-0.1191454883827569,0.048,0.9999999999955848,-60.48232591317503,0.779850708431873,157,2026-10-08 01:31:54.084243,25.0,0.5804972827679569,0.9590022851285462,1.4802495130258886
0312,cdot_cos,S,R-S,158,31,38053,-0.008385341727103295,-0.025057537409333377,-0.09306885429535436,0.08893395653138832,1149.0,4.88304746882506,0.5959145441801893,7.490540275490711,-0.035568013373070716,0.053,0.9999999999954382,785.6687856661671,0.7848178452596267,158,2026-10-08 01:31:54.137243,25.0,0.09538888915050599,0.5702397055320916,0.3964574103225998
0312,cdot_cos,T,S-T,159,31,38299,-0.027414567305385485,0.02517396913776311,-0.01902922557828219,0.38326077807837655,1149.0,4.922480634864364,0.5963728746105518,7.519986446782857,-0.06713905551044402,0.246,0.9999999999953341,-68.88271004045066,0.7897851855933615,159,2026-10-08 01:31:54.383244,25.0,0.6248562628019533,0.21505806627619425,0.16029742292399965
0312,cdot_cos,P,T-P,160,32,39003,0.030697614753953453,-0.0002769699499464808,0.058112182059338935,0.8104296819685136,1133.0,4.988856037432948,0.5973414893234829,7.55584946788794,-0.11414141996988877,0.704,0.9999999999952783,-48.525346385884426,0.79475301730052,160,2026-10-08 01:31:55.087244,25.0,0.66246297753284,0.07099250099895145,0.09428324228491997
0312,cdot_cos,Q,P-Q,161,32,39109,-0.005936947215904991,-0.0035435848747367065,-0.03663456196985845,0.2858013717626998,1133.0,5.022438076270888,0.5976828946747142,7.58375744323895,-0.05831509307956326,0.106,0.9999999999951102,163.51919115786833,0.7997202089293194,161,2026-10-08 01:31:55.193243,25.0,0.3839196121005183,0.49720004839466203,0.31681168715037716
0312,cdot_cos,R,Q-R,162,32,39152,0.07758684909936044,0.08353661195002551,0.08352379631526542,0.8897406706116321,1133.0,5.094262447692616,0.5987451309986598,7.6207931353729705,-0.12592655499663347,0.043,0.9999999999950552,-63.65011287312855,0.8046873332591112,162,2026-10-08 01:31:55.236243,25.0,0.5845506372695426,1.104100105195357,1.6703342191099624
0312,cdot_cos,S,R-S,163,32,39210,-0.003199550456317416,-0.04127543964815317,-0.08078639955567785,0.11715415332678929,1133.0,5.117390685317688,0.5988849291947866,7.646062719302767,-0.040925632131408166,0.058,0.9999999999948999,608.0258917510663,0.8096544752820528,163,2026-10-08 01:31:55.294244,25.0,0.12531051068676788,0.5693204220911164,0.3987627176736607
0312,cdot_cos,T,S-T,164,32,39457,-0.014763868780363787,0.012041995027291056,-0.01156431832404637,0.4282222677067007,1133.0,5.160303616655185,0.5993957830150053,7.676023154018249,-0.07639367624059434,0.247,0.9999999999947938,-69.42894954569516,0.8146218291514963,164,2026-10-08 01:31:55.541243,25.0,0.6285876231988736,0.21616988742639506,0.1737365641194218
0312,cdot_cos,P,T-P,165,33,40136,0.030231374674270613,-5.0807462067462665e-05,0.044995243454634404,0.7548929849963962,1158.0,5.224178609706327,0.6002958167414653,7.710951473750204,-0.1148058474986587,0.679,0.9999999999947244,-42.678590955861004,0.8195896753121182,165,2026-10-08 01:31:56.220243,25.0,0.7156359060652123,0.07270652748078008,0.0940721547144948
0312,cdot_cos,Q,P-Q,166,33,40247,-0.004104906283925126,-0.002537715711168157,-0.03433628095819574,0.2976722714136878,1158.0,5.259039080974085,0.6006505357388991,7.738853734840684,-0.06323349349155727,0.111,0.9999999999945471,145.38932050492508,0.8245568758851125,166,2026-10-08 01:31:56.331244,25.0,0.4423800028188725,0.48807577959156867,0.3140582997095259
0312,cdot_cos,R,Q-R,167,33,40282,0.08312864671499634,0.08413988012256632,0.08723355299892147,0.8985155862053053,1158.0,5.332531432775656,0.6017206036948627,7.775956918240239,-0.13456418366206294,0.035,0.9999999999944895,-66.65996283037579,0.8295239899625555,167,2026-10-08 01:31:56.366244,25.0,0.5885539130944907,1.3735480827337934,2.099781480044882
0312,cdot_cos,S,R-S,168,33,40328,-0.0028892596384999,-0.04942789455003513,-0.08601790635349624,0.10428939850211116,1158.0,5.35518744676545,0.6018447422043217,7.800812464819191,-0.04185524469084244,0.046,0.9999999999943205,746.8185285551568,0.8344911180070006,168,2026-10-08 01:31:56.412243,25.0,0.10915463047694994,0.7365198625346072,0.4925220432564058
0312,cdot_cos,T,S-T,169,33,40595,-0.010586631091846904,0.009732094261042844,-0.007697371453347004,0.45203933957226383,1158.0,5.4002912601288395,0.6023826653214255,7.830987702183924,-0.08381564346146447,0.267,0.9999999999942111,-78.0044534924268,0.8394585085290754,169,2026-10-08 01:31:56.679244,25.0,0.6061503060531807,0.20551049272213012,0.16892813993778727
0312,cdot_cos,P,T-P,170,34,41294,0.03372518436368871,-0.001290757257465331,0.044311815455535614,0.7517178748970437,1159.0,5.464930049879068,0.6032766553821493,7.865778615364296,-0.12124960242644689,0.699,0.9999999999941356,-41.87290285383715,0.8444264210627944,170,2026-10-08 01:31:57.378243,25.0,0.7343755780534923,0.07141512099769029,0.09247323283294463
0312,cdot_cos,Q,P-Q,171,34,41405,-0.0011690937596405776,-0.0007921805723614334,-0.034894278123329285,0.29476410587572993,1159.0,5.500129599283611,0.6036270195354793,7.893461834004673,-0.0666139421314109,0.111,0.999999999993943,155.93964101565714,0.8493936251379384,171,2026-10-08 01:31:57.489243,25.0,0.4403508156824855,0.4911477226539503,0.31711305769858317
0312,cdot_cos,R,Q-R,172,34,41439,0.08121176248450332,0.07978308239548924,0.0823808562441439,0.8869061741195705,1159.0,5.573964844308245,0.6046805764623199,7.930325817424221,-0.14099065599098162,0.034,0.9999999999938797,-70.5958187590395,0.8543607363072644,172,2026-10-08 01:31:57.523244,25.0,0.5900609846089422,1.4222564900145427,2.171624853665713
0312,cdot_cos,S,R-S,173,34,41487,-0.005565925951419117,-0.04016803677001621,-0.08677768843592244,0.10252834774745065,1159.0,5.5968430406045995,0.6048023075503585,7.954946765890936,-0.044063462949454436,0.048,0.9999999999936965,796.2402587808966,0.8593278659472845,173,2026-10-08 01:31:57.571244,25.0,0.11083440812907337,0.704155092652046,0.47662908950738914
0312,cdot_cos,T,S-T,174,34,41753,-0.015859899299838852,0.015414703478433179,-0.010293973348419735,0.43601541195694743,1159.0,5.641563733202841,0.6053198398767261,7.984731513681868,-0.08661393063267081,0.266,0.9999999999935745,-82.21799009515313,0.8642952694757371,174,2026-10-08 01:31:57.837244,25.0,0.6118513815898294,0.21622654378028544,0.16812290450466819
0312,cdot_cos,P,T-P,175,35,42453,0.04579559025206613,-0.0005591402759649256,0.06165548955190498,0.8236662984349269,1138.0,5.711875561895711,0.6062968528630776,8.0205682343095,-0.13745300737249203,0.7,0.9999999999935051,-52.03521084164355,0.869263228021708,175,2026-10-08 01:31:58.537244,25.0,0.6908274847039054,0.0731211964674694,0.10044546956124303
0312,cdot_cos,Q,P-Q,176,35,42565,-0.000504047119947671,-0.0003579386887924338,-0.0462996373720138,0.2391234943698301,1138.0,5.743933408257298,0.6065803365705855,8.047213293863097,-0.06321917335020863,0.112,0.9999999999932888,261.8627880764413,0.874230436993668,176,2026-10-08 01:31:58.649244,25.0,0.3090569396085052,0.48250702400048123,0.2862307710855986
0312,cdot_cos,R,Q-R,177,35,42599,0.08911858233326783,0.09283892944333637,0.0896226294532155,0.9038336424153456,1138.0,5.819957135271819,0.6076511922462952,8.08428918742302,-0.15119032328469756,0.034,0.9999999999932222,-82.15033260779241,0.8791975463531523,177,2026-10-08 01:31:58.683244,25.0,0.5588595927026813,1.4533461072974934,2.2359919710153164
0312,cdot_cos,S,R-S,178,35,42642,-0.0004095204784419616,-0.0007214207105759189,-0.0895281028117098,0.09637195628267604,1138.0,5.842760943553528,0.6077653121807235,8.108616508712092,-0.04573339884196749,0.043,0.9999999999930239,924.0885474654197,0.8841646686273178,178,2026-10-08 01:31:58.726244,25.0,0.09966844779165959,0.6792123176893711,0.5303211228304373
0312,cdot_cos,T,S-T,179,35,42892,-0.036379677938983807,0.03397312173279912,-0.03597015746054184,0.28920383777662295,1138.0,5.878369394593105,0.6081077054297923,8.135942503365564,-0.0717487102622344,0.25,0.999999999992865,-75.98079544797945,0.8891320651311292,179,2026-10-08 01:31:58.976243,25.0,0.6958722006484778,0.21956385094792985,0.14243380415830842
0312,cdot_cos,P,T-P,180,36,43591,0.03859296756556806,-0.0009721315481454119,0.07497264550455188,0.8669569011066279,1158.0,5.952542869027493,0.6091334718235513,8.172399335985885,-0.15071343554450917,0.699,0.9999999999928002,-76.98119743707535,0.8941000656560614,180,2026-10-08 01:31:59.675244,25.0,0.5921830289465073,0.0776921502281992,0.10611369733102693
0312,cdot_cos,Q,P-Q,181,36,43702,-0.001554393288367746,-0.0010591113341129207,-0.04014736085393581,0.26821771566529373,1158.0,5.9869830206121275,0.6094506269500056,8.199336903039681,-0.07060100523091205,0.111,0.9999999999925748,252.5969900257171,0.8990672768703614,181,2026-10-08 01:31:59.786243,25.0,0.3215118695589273,0.5003688648645256,0.3102716358976094
0312,cdot_cos,R,Q-R,182,36,43735,0.08512996443622237,0.08351703900349786,0.08668435772459011,0.8972567544172549,1158.0,6.0636247570274175,0.6105109183246904,8.236259986120574,-0.15841895499247372,0.033,0.9999999999925032,-82.82435551045583,0.9040343831066432,182,2026-10-08 01:31:59.819244,25.0,0.574451323805125,1.508194527054361,2.322476861069395
0312,cdot_cos,S,R-S,183,36,43780,-0.005867968368278343,-0.0378594480085932,-0.0909979328045007,0.09321909145431138,1158.0,6.086523859397715,0.6106210159352116,8.260345407579168,-0.04771871109526967,0.045,0.9999999999922903,1005.4736281122408,0.9090015070550522,183,2026-10-08 01:31:59.864243,25.0,0.09828834430232307,0.7506225812383842,0.5088689415621733
0312,cdot_cos,T,S-T,184,36,44031,-0.0193858985278073,0.019057086941242442,-0.013517930159528957,0.41630795663249615,1158.0,6.131180789338872,0.6111125640257868,8.28955156341396,-0.09353363772023925,0.251,0.9999999999921445,-93.20538011113132,0.9139689188168362,184,2026-10-08 01:32:00.115244,25.0,0.612734841300292,0.2283270063213105,0.17791605554245726
0312,cdot_cos,P,T-P,185,37,44749,0.03343605953533973,-0.0014665377419016054,0.05282195806314703,0.7892730232610737,1158.0,6.201144016571013,0.6120438632074601,8.324714342062531,-0.14778287010165087,0.718,0.9999999999920601,-58.25113287863537,0.9189369929292803,185,2026-10-08 01:32:00.833244,25.0,0.6927490828555916,0.07435689780849418,0.09744182065757814
0312,cdot_cos,Q,P-Q,186,37,44859,-0.0011656211897743635,-0.0007873157530528015,-0.03460168072511409,0.2962870011029736,1158.0,6.23795729459187,0.6123932549375553,8.351949428036946,-0.07840783306178592,0.11,0.9999999999918242,198.5594708293909,0.9239042063765157,186,2026-10-08 01:32:00.943244,25.0,0.41279784919828094,0.5168589601104909,0.3346661638259686
0312,cdot_cos,R,Q-R,187,37,44892,0.0806681248366845,0.07805017966596414,0.08183374602645886,0.8855269685738569,1158.0,6.314852987795321,0.61343680840173,8.388641256873399,-0.16511152969376064,0.033,0.9999999999917458,-83.08505467953422,0.928871310646291,187,2026-10-08 01:32:00.976243,25.0,0.5914831992433496,1.5240772667155107,2.330172521316711
0312,cdot_cos,S,R-S,188,37,44941,-0.0070848459465047905,-0.05988419236109226,-0.08775297078318928,0.10030644420466497,1158.0,6.3385463941950935,0.613554949538653,8.412660696166334,-0.05127672851006075,0.049,0.9999999999915183,963.5492272086715,0.9338384393664941,188,2026-10-08 01:32:01.025243,25.0,0.10860812626227685,0.7666272548683536,0.48353890611780087
0312,cdot_cos,T,S-T,189,37,45191,-0.006013548785421555,0.005785611991383926,0.0010712971610832359,0.5066952070563872,1158.0,6.38998245877242,0.6141515316297284,8.443206742031954,-0.11191348397956417,0.25,0.9999999999913806,-101.64025433650106,0.9388058641200538,189,2026-10-08 01:32:01.275244,25.0,0.5816896984166544,0.23421727441784945,0.20574425830930565
0312,cdot_cos,P,T-P,190,38,45907,0.030305122975856205,-0.0003666406501677003,0.03631867176127776,0.7125839258051232,1158.0,6.455655031404018,0.6149899465260831,8.4770708788245,-0.14408669427661047,0.716,0.9999999999912734,-38.37385337131968,0.9437739851002497,190,2026-10-08 01:32:01.991244,25.0,0.7998823370580297,0.07074687322909598,0.09172147015586357
0312,cdot_cos,Q,P-Q,191,38,45996,-0.009093677747094523,-0.0038015232589766043,-0.039398800722950725,0.2719067373189379,1158.0,6.491291981236485,0.6153096880795316,8.50376978405997,-0.07878020547284732,0.089,0.9999999999910171,204.2477372722316,0.9487411707106178,191,2026-10-08 01:32:02.080243,25.0,0.4364983056480639,0.645675065127949,0.400415166656934
0312,cdot_cos,R,Q-R,192,38,46051,0.08129942426406649,0.07993205573091429,0.090393102011161,0.90549487488545,1158.0,6.570585192996793,0.6163737615649428,8.540746167755179,-0.17665994447975275,0.055,0.9999999999909396,-91.98588288202183,0.9537083065370044,192,2026-10-08 01:32:02.135243,25.0,0.5746136710239893,0.9440476737692549,1.4416947592783236
0312,cdot_cos,S,R-S,193,38,46100,-0.003089256604307683,-0.051953472351407425,-0.08438868086837417,0.10815595932560809,1158.0,6.595137225351103,0.6165007845380269,8.56472345983954,-0.05512830038899934,0.049,0.9999999999906958,956.7690091012022,0.9586754344619672,193,2026-10-08 01:32:02.184243,25.0,0.11030305145306746,0.7581972401790151,0.5010618847818418
0312,cdot_cos,T,S-T,194,38,46349,-0.0074982935875492675,0.006953209907001906,-0.004409036983241584,0.4724713853713807,1158.0,6.644888522534337,0.6170554884602084,8.594609299808237,-0.11227871319697266,0.249,0.9999999999905406,-103.02867984639002,0.9636428719968951,194,2026-10-08 01:32:02.433243,25.0,0.6010934420886106,0.23538115104675067,0.1998044063583664
0312,cdot_cos,P,T-P,195,39,47065,0.031495756046652904,-0.001528838426896371,0.03899404963420217,0.7260853962347498,1180.0,6.712357038572385,0.6179073529759166,8.628627867748172,-0.1534808377945642,0.716,0.9999999999904287,-48.36699244754793,0.9686110424162879,195,2026-10-08 01:32:03.149244,25.0,0.7645626851638081,0.07249718583811,0.09422977100286117
0312,cdot_cos,Q,P-Q,196,39,47156,-0.007195350557195515,-0.0029099659831507414,-0.03869110660384842,0.2754234537147626,1180.0,6.74870449265451,0.618230298583466,8.65524675632759,-0.08330080966818978,0.091,0.9999999999901564,217.31222374849966,0.9735782333281949,196,2026-10-08 01:32:03.240243,25.0,0.43063726854263673,0.6375222444095161,0.39942257233104306
0312,cdot_cos,R,Q-R,197,39,47206,0.07907351926607849,0.07260107932019733,0.086268869823274,0.896295230126458,1180.0,6.828386087054917,0.6192805181604397,8.692038948375174,-0.18399297239734955,0.05,0.9999999999900716,-95.87724789830344,0.9785453607540445,197,2026-10-08 01:32:03.290244,25.0,0.5785322902895008,1.0390976586394984,1.5936318880081402
0312,cdot_cos,S,R-S,198,39,47258,-0.009263458819274761,-0.05260270569313546,-0.08833697808535325,0.09899651730989384,1180.0,6.85261425851846,0.619396447533863,8.715703287232252,-0.05636692981832716,0.052,0.999999999989809,1100.8947845599582,0.9835124926806136,198,2026-10-08 01:32:03.342243,25.0,0.10391305790690465,0.7139326887321935,0.4659263742989007
0312,cdot_cos,T,S-T,199,39,47505,-0.014515999643502357,0.015732035099853537,-0.005252540824227596,0.467218710954961,1180.0,6.902635086683065,0.6199433977435538,8.745400578017524,-0.11694017567129954,0.247,0.9999999999896413,-110.74727604039204,0.9884799413589629,199,2026-10-08 01:32:03.589243,25.0,0.5957197708801121,0.2511166496810089,0.20251347435062872
0312,cdot_cos,P,T-P,200,40,48245,0.042779210084606445,-0.0004201719935223182,0.0572952097281088,0.8072719143295143,1160.0,6.976665883460878,0.6208877136210047,8.780701411326582,-0.17446363843743246,0.74,0.999999999989542,-60.91548828069211,0.9934482022234157,200,2026-10-08 01:32:04.329243,25.0,0.7191278965578408,0.07372575406179666,0.100041617267315
0312,cdot_cos,Q,P-Q,201,40,48336,-0.0010074236284431058,-0.0005355577410816469,-0.04378663371304955,0.2507406884057038,1160.0,7.011749202694524,0.6211808345542293,8.806782880348006,-0.08330351541808954,0.091,0.9999999999892435,310.99833784125855,0.9984153954239111,201,2026-10-08 01:32:04.420243,25.0,0.3347695019574693,0.6321742071923494,0.3855309805895158
0312,cdot_cos,R,Q-R,202,40,48393,0.08103140550091631,0.08236734288134366,0.08203882912935942,0.8860456686646015,1160.0,7.091721589169886,0.6222159299360088,8.843374628578422,-0.1912470545371865,0.057,0.9999999999891496,-104.28366411366454,1.0033825336260458,202,2026-10-08 01:32:04.477243,25.0,0.5686902582084357,0.9261846129342359,1.4030243241291516
0312,cdot_cos,S,R-S,203,40,48436,-0.0009183219281132236,-0.0015619839354862053,-0.08194972742902953,0.11417943698227613,1160.0,7.117334248569027,0.6223492357482182,8.86713645430963,-0.061700505023920216,0.043,0.9999999999888719,971.7997090013422,1.00834964954134,203,2026-10-08 01:32:04.520243,25.0,0.12250508474792607,0.8009004453671422,0.5956432418404944
0312,cdot_cos,T,S-T,204,40,48684,-0.02340557722932693,0.022256128470590643,-0.022487255301213704,0.36304288028309306,1160.0,7.16059902747146,0.622772969503079,8.895001947748932,-0.1046830747190086,0.248,0.9999999999886646,-101.43768156777186,1.0133171142794275,204,2026-10-08 01:32:04.768243,25.0,0.6632540851361168,0.2418147137497454,0.1744547536388426
0312,cdot_cos,P,T-P,205,41,49405,0.04048405042017475,-0.00020123377481923207,0.06388962764950168,0.8316323802881245,1159.0,7.237274346588901,0.6237429202203639,8.930664730058039,-0.18689090718060342,0.721,0.9999999999885643,-84.7546488668131,1.018285394625285,205,2026-10-08 01:32:05.489243,25.0,0.6441197062476411,0.07833501398149376,0.10634579627939077
0312,cdot_cos,Q,P-Q,206,41,49515,-0.0010304618293874572,-0.0007044705523006076,-0.04151451224956221,0.2615625773475653,1159.0,7.273558117632774,0.6240477817159621,8.956797340729088,-0.08910443997776689,0.11,0.9999999999882523,320.7570277478678,1.023252623031925,206,2026-10-08 01:32:05.599244,25.0,0.33372548418244324,0.5375294048780263,0.32985246403521146
0312,cdot_cos,R,Q-R,207,41,49551,0.08698981934748871,0.0873857141527441,0.08802028117687617,0.900295033050069,1159.0,7.355530815662067,0.6250963586791504,8.993597296394354,-0.20272018839457706,0.036,0.9999999999881538,-108.35232167541923,1.0282197239494768,207,2026-10-08 01:32:05.635243,25.0,0.5709486448250525,1.4821983434559762,2.2770193897025703
0312,cdot_cos,S,R-S,208,41,49610,-0.0019239436003100402,-0.003695702698415549,-0.08891376294779875,0.0977177581121971,1159.0,7.380276398361604,0.6252101005269335,9.016935143068906,-0.061635337498027645,0.059,0.9999999999878544,1240.3952779592948,1.0331868667692228,208,2026-10-08 01:32:05.694243,25.0,0.10136520783232793,0.5824743405892099,0.41941665592436866
0312,cdot_cos,T,S-T,209,41,49842,-0.02393787901997652,0.022909088514904263,-0.02201393541966648,0.3657835846701555,1159.0,7.424262787851593,0.6256357437298019,9.044737921008995,-0.11002038578317926,0.232,0.9999999999876323,-113.6751343827027,1.038154317723234,209,2026-10-08 01:32:05.926244,25.0,0.6441764675483218,0.259352248502439,0.18959650642236642
0312,cdot_cos,P,T-P,210,42,50564,0.03518001891808492,-0.0007812244301886467,0.05911789793806144,0.8142623547264985,1161.0,7.500615841666736,0.6265825597597159,9.0800712586078,-0.19233307820900888,0.722,0.9999999999875219,-86.93631056638124,1.0431226519083652,210,2026-10-08 01:32:06.648243,25.0,0.651831291583919,0.07830297104806706,0.10575215209853557
0312,cdot_cos,Q,P-Q,211,42,50651,-0.006333410630996948,-0.0026657550333109644,-0.04151342954908187,0.2615678054061664,1161.0,7.537332278045002,0.6268865028280464,9.106081321299156,-0.09315861969211148,0.087,0.9999999999871918,326.2928780105088,1.048089842420324,211,2026-10-08 01:32:06.735244,25.0,0.3448739474547562,0.6848152170087962,0.4220280043478869
0312,cdot_cos,R,Q-R,212,42,50711,0.07863615401460958,0.07869417676545969,0.08496956464560652,0.8932368662502843,1161.0,7.619773689426267,0.6279236918540317,9.142735937072166,-0.210593223653067,0.06,0.9999999999870891,-113.2239167777422,1.0530569854599094,212,2026-10-08 01:32:06.795244,25.0,0.5725603439425402,0.8986932026409915,1.374023523021073
0312,cdot_cos,S,R-S,213,42,50770,-0.00802684340756953,-0.02170490308502217,-0.0866629974221791,0.10279248461996214,1161.0,7.645175462361921,0.6280429748147646,9.166014501470805,-0.06534100112483565,0.059,0.9999999999867705,1217.7114118886893,1.0580241280794078,213,2026-10-08 01:32:06.854244,25.0,0.10828513359769312,0.6294910097211137,0.43053852433312884
0312,cdot_cos,T,S-T,214,42,51006,-0.019958261229806262,0.018993011782539454,-0.011931417822236732,0.42597667367404324,1161.0,7.694053628573358,0.6285371223952827,9.194734514810467,-0.12627248559520463,0.236,0.9999999999865522,-123.30624872528936,1.0629916002806783,214,2026-10-08 01:32:07.090244,25.0,0.617213875453592,0.267244913843067,0.20711087377727463
0312,cdot_cos,P,T-P,215,43,51725,0.03915596764659838,0.0008506005632658554,0.05911422887640464,0.8142484816803894,1154.0,7.771315061695849,0.6294809301370223,9.230031827611114,-0.20102958533738208,0.719,0.9999999999864351,-79.20797471356259,1.0679599830024555,215,2026-10-08 01:32:07.809243,25.0,0.6894430830001037,0.07968744882784552,0.10745679154727508
0312,cdot_cos,Q,P-Q,216,43,51840,-0.001860837975116674,-0.0012615267321170248,-0.04101680562171505,0.26397296835129774,1154.0,7.8086441799878,0.6297866934291431,9.255967467522368,-0.09781457377440647,0.115,0.9999999999860871,337.56508456947495,1.0729272287001481,216,2026-10-08 01:32:07.924243,25.0,0.34811897586465956,0.5239175566063033,0.3246010286256615
0312,cdot_cos,R,Q-R,217,43,51874,0.08174005783892714,0.08552687412914735,0.08360089581404381,0.8899296193908501,1154.0,7.891816099715299,0.630816742480999,9.292542244887848,-0.2193704106497523,0.034,0.9999999999859744,-118.00975560953451,1.077894321682874,217,2026-10-08 01:32:07.958244,25.0,0.5745821069077505,1.609178805217584,2.4462329331617267
0312,cdot_cos,S,R-S,218,43,51931,-0.001766008178016861,-0.04332968824700376,-0.083506066016944,0.11030282143723112,1154.0,7.918068338742596,0.6309443297166526,9.315812758978804,-0.06971435161637136,0.057,0.9999999999856403,1172.9704642213724,1.0828614603318392,218,2026-10-08 01:32:08.015244,25.0,0.11686875388366874,0.6841725484317965,0.46056559697012295
0312,cdot_cos,T,S-T,219,43,52159,-0.008639309383310183,0.00800868452667015,-0.006873301205293322,0.45714725628536257,1154.0,7.969811770236523,0.6314729164720331,9.344977203250842,-0.1380032090443865,0.228,0.9999999999854188,-129.19138955508006,1.0878289317884748,219,2026-10-08 01:32:08.243244,25.0,0.6096713203769033,0.2690385402591349,0.22694487497336752
0312,cdot_cos,P,T-P,220,44,52879,0.028375929342378713,-0.0006695009948004743,0.0370152387256889,0.7161372451833931,1140.0,8.040749913100761,0.6323003315261434,9.378561408194305,-0.19047885977216164,0.72,0.999999999985265,-63.42119407556508,1.0927973710462153,220,2026-10-08 01:32:08.963244,25.0,0.7591975144400159,0.07507501101926921,0.09852519842255239
0312,cdot_cos,Q,P-Q,221,44,52990,-0.014283015701006459,-0.0069953384777554145,-0.042658945043385174,0.25607428122152387,1140.0,8.077919786104271,0.6325960074818198,9.404249345754108,-0.10044644334664785,0.111,0.9999999999848962,304.4969152786274,1.0977646131625276,221,2026-10-08 01:32:09.074244,25.0,0.40806753485113134,0.5529644491377036,0.3348637207523417
0312,cdot_cos,R,Q-R,222,44,53024,0.07816025825070755,0.0797721118551659,0.092443273951714,0.9097906837254153,1140.0,8.163508020809331,0.6336456887423909,9.441141902134301,-0.23277145243247602,0.034,0.9999999999847833,-126.0620857552782,1.1027317039369722,222,2026-10-08 01:32:09.108243,25.0,0.5663878959696503,1.652873354762875,2.5173010207370665
0312,cdot_cos,S,R-S,223,44,53071,-0.00393617204153744,-0.059210108270476715,-0.08209643029224499,0.11380901422132937,1140.0,8.190315174228147,0.6337769081780776,9.464341297626442,-0.07340004405756373,0.047,0.9999999999844318,1214.541180891816,1.1076988221864703,223,2026-10-08 01:32:09.155244,25.0,0.11403255623135573,0.8547781795270344,0.5703649663577709
0312,cdot_cos,T,S-T,224,44,53317,-0.00818427180292346,0.007249138163993397,-0.00424809976138602,0.47347430368300336,1140.0,8.243857169684873,0.6343226010355149,9.49370518956662,-0.14722938241154185,0.246,0.9999999999842049,-135.2946760210657,1.1126663441107583,224,2026-10-08 01:32:09.401243,25.0,0.6056470370437711,0.2559579653780629,0.21765038803547154
0312,cdot_cos,P,T-P,225,45,54019,0.030560978468275216,0.004372450364845961,0.03874525027119868,0.7248465941852835,1181.0,8.316246493194154,0.6351573396260889,9.527394433293498,-0.20038637136095055,0.702,0.9999999999840439,-63.681000914134735,1.1176348018543445,225,2026-10-08 01:32:10.103244,25.0,0.7669969330080699,0.08146430226271714,0.10311869445766518
0312,cdot_cos,Q,P-Q,226,45,54163,-0.0005195331843925471,-0.0005013050820009769,-0.031080511652667762,0.31496405474496886,1181.0,8.358233050061727,0.6355198016840913,9.55399363396617,-0.11697941176144175,0.144,0.999999999983678,230.1122497046551,1.1226021164410322,226,2026-10-08 01:32:10.247243,25.0,0.49016879744552433,0.4246093919622915,0.2915733115803744
0312,cdot_cos,R,Q-R,227,45,54196,0.061830095517563126,0.08313171395926673,0.06234962870195567,0.8261725798798292,1181.0,8.438533998079293,0.6364698337607612,9.589421319399563,-0.2251169734527821,0.033,0.9999999999835284,-113.82516900944182,1.1275692027268638,227,2026-10-08 01:32:10.280244,25.0,0.6185596468336545,1.6872466623386158,2.433362061138365
0312,cdot_cos,S,R-S,228,45,54248,-0.002583457194302183,-0.0200142814165406,-0.0644135527118653,0.1665415784945327,1181.0,8.469591329776076,0.6366612145936139,9.613409889944073,-0.08762414591546601,0.052,0.9999999999831736,718.4252753414664,1.1325363301797555,228,2026-10-08 01:32:10.332243,25.0,0.20822827687419174,0.7234734900997216,0.5972563787842807
0312,cdot_cos,T,S-T,229,45,54475,-0.02893978029008835,0.02315955711345882,-0.026356323095786168,0.34098493945363895,1181.0,8.513775241049665,0.6370529215363839,9.64039643112196,-0.12515568517570386,0.227,0.9999999999828852,-95.81535367953236,1.1375038272992068,229,2026-10-08 01:32:10.559244,25.0,0.7409079980383734,0.2801448878599899,0.19464278094091828
0312,cdot_cos,P,T-P,230,46,55200,0.04213593894446531,0.0009670481943666033,0.07107571923455366,0.8553127878380913,1149.0,8.596777108864512,0.6380346623887557,9.67631166069504,-0.23659562691821906,0.725,0.9999999999827627,-113.51258478577809,1.1424723878487946,230,2026-10-08 01:32:11.284243,25.0,0.6243686019876381,0.08315457157669263,0.11448533491703031
0312,cdot_cos,Q,P-Q,231,46,55291,-0.0017453618864156414,-0.0008991678713041987,-0.04388130083088095,0.2502963234494571,1149.0,8.634349369835869,0.6383217389147615,9.701689327819532,-0.10781691850740933,0.091,0.9999999999823511,448.5866894188752,1.14743959550765,231,2026-10-08 01:32:11.375243,25.0,0.30287950427364335,0.6775144851978239,0.41288198869623466
0312,cdot_cos,R,Q-R,232,46,55351,0.08045254980910108,0.08746279165124168,0.08219791169551671,0.8864466117201716,1149.0,8.720084745170515,0.6393376507841884,9.738139926748234,-0.24748283971301505,0.06,0.999999999982222,-137.4783831243179,1.1524067381550638,232,2026-10-08 01:32:11.435244,25.0,0.5687320435581066,0.9390387165508478,1.42892292224411
0312,cdot_cos,S,R-S,233,46,55403,-0.004068750476084612,-0.019591479565256188,-0.08452130028518569,0.10783656864140485,1149.0,8.74703401582197,0.6394611520077457,9.760989891099243,-0.0782850181765565,0.052,0.9999999999818241,1370.009273292291,1.1573738648601823,233,2026-10-08 01:32:11.487243,25.0,0.11517469000855826,0.7739602081129509,0.5182552048356758
0312,cdot_cos,T,S-T,234,46,55640,-0.010821054388258458,0.009352486768792297,-0.006752303912173846,0.45789803125772166,1149.0,8.800576606814262,0.6399853599797785,9.789932591714503,-0.15615332631874584,0.237,0.9999999999815636,-148.5446851184459,1.1623413984918693,234,2026-10-08 01:32:11.724244,25.0,0.6073404923085094,0.2773219698341247,0.22591810545270782
0312,cdot_cos,P,T-P,235,47,56349,0.038978378267991186,-0.0005065021587137491,0.04979943265624964,0.7764306752685854,1164.0,8.878484629523346,0.6408734653214532,9.824443818045733,-0.2286676174766008,0.709,0.9999999999814037,-81.65055174773912,1.1673099819560522,235,2026-10-08 01:32:12.433243,25.0,0.7282458565400106,0.08274644104811922,0.10988437617642224
0312,cdot_cos,Q,P-Q,236,47,56462,-0.0009527688521211156,-0.0006670136924879803,-0.0399311471201123,0.26927998838897643,1164.0,8.917911060220495,0.6411812510727982,9.850054872901065,-0.11644457161913951,0.113,0.999999999980981,364.61416867752405,1.1722772414162776,236,2026-10-08 01:32:12.546243,25.0,0.38146106975649874,0.5578662176049515,0.3489064663464574
0312,cdot_cos,R,Q-R,237,47,56496,0.0812025149093531,0.08159954619375073,0.08215528376147421,0.8863392953859704,1164.0,9.004562394702065,0.6421935107171213,9.886485217072698,-0.2574131491965599,0.034,0.9999999999808423,-139.261283770423,1.1772443252552947,237,2026-10-08 01:32:12.580243,25.0,0.5783156247494582,1.6694060316090786,2.548568661222628
0312,cdot_cos,S,R-S,238,47,56545,-0.005377278010445741,-0.014695749544148894,-0.08657979291979884,0.1029844840431972,1164.0,9.031430670369913,0.6423110439981309,9.909133959549338,-0.080310973512002,0.049,0.999999999980424,1506.8257617183433,1.1822114445169198,238,2026-10-08 01:32:12.629244,25.0,0.11022790520751292,0.7605561602078771,0.5483321564866938
0312,cdot_cos,T,S-T,239,47,56812,-0.025996343514263928,0.026351197288823618,-0.020619065503818187,0.3739105539761858,1164.0,9.079096898402437,0.6427376336154282,9.936524511628441,-0.14299029112565903,0.267,0.999999999980118,-146.9311841454547,1.1871790618427946,239,2026-10-08 01:32:12.896243,25.0,0.6451021080915084,0.24239463417591664,0.17852519862368524
0312,cdot_cos,P,T-P,240,48,57513,0.03359650147686509,-0.0004812797134315922,0.05959284499112902,0.8160514228709689,1139.0,9.160869405019852,0.6436678698792064,9.97170225855672,-0.24676954090632763,0.701,0.9999999999799621,-111.56224909913178,1.1921476824639934,240,2026-10-08 01:32:13.597243,25.0,0.6566846935866402,0.08790117741927907,0.1166512219934601
0312,cdot_cos,Q,P-Q,241,48,57626,-0.002145855911251098,-0.0015021075127807254,-0.03574235738811619,0.29037593461472033,1139.0,9.202334349144266,0.6439986153538522,9.997591530776083,-0.1259243899239628,0.113,0.9999999999795266,365.372046622268,1.1971149463141644,241,2026-10-08 01:32:13.710243,25.0,0.3830214158803166,0.5680272816719463,0.3669464081806523
0312,cdot_cos,R,Q-R,242,48,57660,0.0767639709469668,0.08018904589311864,0.0789098268582179,0.8779057196965001,1139.0,9.289243570677712,0.6449977355187045,10.033854719482939,-0.26544371858343724,0.034,0.9999999999793783,-139.64219076700275,1.2020820276635042,242,2026-10-08 01:32:13.744244,25.0,0.5911958378163414,1.6998209639851323,2.556153574513122
0312,cdot_cos,S,R-S,243,48,57704,-0.0018943277433675426,-0.05227710211703335,-0.07865829869033435,0.12276989900498139,1139.0,9.317922174695255,0.6451373560652,10.05674083421238,-0.08812410649338322,0.044,0.999999999978945,1270.0108726181038,1.2070491339946892,243,2026-10-08 01:32:13.788243,25.0,0.13369985978672697,0.9501173666018579,0.6517864549441558
0312,cdot_cos,T,S-T,244,48,57973,-0.008125674203797858,0.006878384664273122,-0.006231346460430316,0.4611326573484808,1139.0,9.372853898938676,0.6456615600844408,10.085600724492657,-0.1694405201522141,0.269,0.9999999999786585,-155.12359820628646,1.212016774814158,244,2026-10-08 01:32:14.057244,25.0,0.6188383045785154,0.2507418862065134,0.20420715332126627
0312,cdot_cos,P,T-P,245,49,58652,0.04290383240764463,-0.0005719842528594109,0.05102950661144249,0.7817233593252647,1135.0,9.45282130947436,0.6465494041865238,10.120144378232766,-0.24816317764172652,0.679,0.9999999999784808,-88.66720779561476,1.2169854015139416,245,2026-10-08 01:32:14.736243,25.0,0.7281695591323631,0.08734220054507358,0.11777232774032925
0312,cdot_cos,Q,P-Q,246,49,58760,-0.0013529915174803643,-0.0009175183959586918,-0.04425682392512499,0.24853880177229343,1135.0,9.491464607278886,0.6468314713612452,10.145202715882792,-0.12063386834481156,0.108,0.99999999997801,452.1238936182537,1.22195265818903,246,2026-10-08 01:32:14.844243,25.0,0.3474411173127885,0.5968121251867211,0.35780831300487365
0312,cdot_cos,R,Q-R,247,49,58795,0.09092089933546207,0.09113416747858187,0.09227389085294244,0.9094425415886308,1135.0,9.581732728514691,0.6478627267582182,10.182009676309825,-0.2833323054401832,0.035,0.9999999999778701,-157.76735576165754,1.2269197397700047,247,2026-10-08 01:32:14.879244,25.0,0.563137270291874,1.661358592602927,2.5790891781658685
0312,cdot_cos,S,R-S,248,49,58840,-0.004118340418454907,-0.011254925267521216,-0.09503923975391698,0.08502269865546568,1135.0,9.60775970876109,0.647959067344842,10.204117300491102,-0.08218113055056304,0.045,0.9999999999774006,2087.9172728638378,1.231886847256615,248,2026-10-08 01:32:14.924243,25.0,0.08649605632892299,0.8494038681141132,0.5783773388088775
0312,cdot_cos,T,S-T,249,49,59092,-0.020940701671629234,0.019576804414624793,-0.016822361253174326,0.39638298658988724,1135.0,9.658179076644961,0.6484080562778396,10.23175427427465,-0.15974172809565554,0.252,0.9999999999770727,-172.74500960919198,1.2368544648932538,249,2026-10-08 01:32:15.176243,25.0,0.6153663552250347,0.2680874118528091,0.20007685668202654
0312,cdot_cos,P,T-P,250,50,59787,0.04296763048626491,-0.0008106942015606883,0.06390833215789414,0.8316978452498737,1145.0,9.742875764334906,0.6493492794872244,10.267162002496743,-0.26989079029853147,0.695,0.9999999999769122,-117.02756700492684,1.2418231866691112,250,2026-10-08 01:32:15.871244,25.0,0.6648960488799244,0.08931126175253172,0.12186573768337425
0312,cdot_cos,Q,P-Q,251,50,59896,-0.00017631232973786752,-0.00012024521512442374,-0.04314394281600278,0.2537713158060695,1145.0,9.78232173048098,0.6496362388212568,10.292224222468178,-0.12645356420063106,0.109,0.9999999999764219,499.85210127975404,1.2467904502042328,251,2026-10-08 01:32:15.980243,25.0,0.3216447836904162,0.5986734317758288,0.3618895976704035
0312,cdot_cos,R,Q-R,252,50,59930,0.09140281067526854,0.09017493149015654,0.09157912300500641,0.9080018606282776,1145.0,9.873386572462037,0.6506621008623983,10.328991432673025,-0.29348353768527696,0.034,0.9999999999762761,-162.8191382330358,1.2517575270407624,252,2026-10-08 01:32:16.014244,25.0,0.5660182622591923,1.7314892269811015,2.6783777053251967
0312,cdot_cos,S,R-S,253,50,59983,-0.0011704310543130042,-0.002095227724923036,-0.09257324172958153,0.0899430045277703,1145.0,9.900062997915695,0.6507636429066471,10.351080204446,-0.08647625219728905,0.053,0.9999999999757871,2038.6361828672675,1.2567246535698389,253,2026-10-08 01:32:16.067244,25.0,0.09128169476825798,0.6459130096271953,0.5033287821444948
0312,cdot_cos,T,S-T,254,50,60230,-0.03875187646291178,0.03775420385714245,-0.03758144540859878,0.2809940506307517,1145.0,9.94185335148252,0.6510807857697817,10.376571095428096,-0.13588233013205675,0.247,0.9999999999753902,-155.78492748173826,1.2616922753835607,254,2026-10-08 01:32:16.314244,25.0,0.6951729788369222,0.26526347683239865,0.16919171484544324
0312,cdot_cos,P,T-P,255,51,60932,0.04044617061576028,0.0004994112530880434,0.07919804707867206,0.878675957448506,1130.0,10.0311031554709,0.6520716361428063,10.41280054210665,-0.2917278195756655,0.702,0.999999999975245,-157.28458472280332,1.2666610709452104,255,2026-10-08 01:32:17.016243,25.0,0.5861289953895964,0.09215739896663272,0.12713647291792088
0312,cdot_cos,Q,P-Q,256,51,61020,-0.0018740332102463377,-0.000970292345852038,-0.04232020382600662,0.25769086804304264,1130.0,10.071242339631672,0.6523619756405307,10.4378454563842,-0.132000241617279,0.088,0.9999999999747343,550.1407118572988,1.2716282842383027,256,2026-10-08 01:32:17.104243,25.0,0.29818082122830447,0.7439457927737946,0.45612709273604424
0312,cdot_cos,R,Q-R,257,51,61080,0.08317862031217559,0.08994439779540646,0.08505265352242192,0.8934347982847531,1130.0,10.162037614999088,0.6533677279710397,10.474335464581145,-0.30012294810940227,0.06,0.9999999999745799,-167.1611403644795,1.2765954266938806,257,2026-10-08 01:32:17.164243,25.0,0.5711065724564216,0.9912852945132075,1.5132545894569325
0312,cdot_cos,S,R-S,258,51,61135,-0.0023744470857965327,-0.03189856616408301,-0.08555306739797212,0.10537995261536687,1130.0,10.190196574973257,0.6534862656266854,10.496597754392921,-0.0936115788371604,0.055,0.9999999999740716,1742.1583727742118,1.281562557624685,258,2026-10-08 01:32:17.219244,25.0,0.11013535740399873,0.7343258500025324,0.5119810904394355
0312,cdot_cos,T,S-T,259,51,61365,-0.016699886738031924,0.014636279757153158,-0.014325439652235391,0.41141086465553434,1130.0,10.242813458499366,0.6539488626780646,10.524365072170525,-0.17550311906679625,0.23,0.9999999999737171,-177.025642479744,1.2865301517846288,259,2026-10-08 01:32:17.449243,25.0,0.6271245146942078,0.2989936690027769,0.22876905880917217
0312,cdot_cos,P,T-P,260,52,62062,0.04224082080369588,-0.0005054890911692713,0.0589407075417278,0.8135914686560288,1147.0,10.327733662714534,0.6548628207879289,10.559400481023948,-0.28480128392225623,0.697,0.9999999999735371,-119.58771816324362,1.2914989942744772,260,2026-10-08 01:32:18.146244,25.0,0.6812881625386688,0.08953755037162048,0.1218367348854631
0312,cdot_cos,Q,P-Q,261,52,62154,-0.0017533137400013367,-0.0009933431032187207,-0.043994134543697216,0.24976737065915955,1147.0,10.367628803717405,0.6551431709611951,10.58421900825191,-0.1345586346951095,0.092,0.9999999999730024,535.910670133515,1.2964662209426252,261,2026-10-08 01:32:18.238244,25.0,0.32740447033336323,0.7185608215656957,0.4336428369877301
0312,cdot_cos,R,Q-R,262,52,62207,0.08678652033518595,0.08793280624740522,0.08853983407518728,0.9014549132920536,1147.0,10.459948853882622,0.6561541060684969,10.620839356219388,-0.31293011395635784,0.053,0.9999999999728457,-176.4420663333473,1.3014333444973827,262,2026-10-08 01:32:18.291244,25.0,0.5655230634983227,1.1304015006189865,1.7418877389663552
0312,cdot_cos,S,R-S,263,52,62257,-0.003914081105661923,-0.03521278952581194,-0.09070060144084788,0.09384932444405726,1147.0,10.487451362783018,0.6562592721659988,10.642794305265179,-0.09374602164220691,0.05,0.9999999999723106,2084.170635981064,1.3064004614715883,263,2026-10-08 01:32:18.341243,25.0,0.09651441833910461,0.8117947721114405,0.5500501780079148
0312,cdot_cos,T,S-T,264,52,62504,-0.017107616571975712,0.015994938878131217,-0.013193535466313789,0.4182799466933626,1147.0,10.541128331093766,0.6567278037746186,10.670621225214857,-0.18355454861962534,0.247,0.9999999999719456,-191.68082862535857,1.3113681180904333,264,2026-10-08 01:32:18.588243,25.0,0.6130711261909431,0.27542662978951415,0.21731566117711865
0312,cdot_cos,P,T-P,265,53,63209,0.031711637745812926,-0.0002205042729035972,0.048819254317788635,0.7721482483900577,1132.0,10.623512117899038,0.6575919151954909,10.70487897792047,-0.2832018047308836,0.705,0.9999999999717358,-115.31760106893246,1.3163370415420135,265,2026-10-08 01:32:19.293243,25.0,0.7033789132011443,0.08999622906359905,0.11685643518478256
0312,cdot_cos,Q,P-Q,266,53,63312,-0.0017786610673682153,-0.0012050912697034917,-0.03349029881318114,0.3021127066435007,1132.0,10.668023014073441,0.6579297257598727,10.730569763002558,-0.153854942767589,0.103,0.9999999999712045,382.89762251803955,1.3213043015525212,266,2026-10-08 01:32:19.396243,25.0,0.4314055953555039,0.6628036231002148,0.43214462305245593
0312,cdot_cos,R,Q-R,267,53,63358,0.08063867668376434,0.08609699793376496,0.08241733775113255,0.8869976225170052,1132.0,10.760049664257682,0.658920605730723,10.766912275327146,-0.3196892615372987,0.046,0.9999999999710317,-167.36065280178593,1.3262714046260888,267,2026-10-08 01:32:19.442244,25.0,0.5952725157006713,1.3134901361544107,2.000579351831332
0312,cdot_cos,S,R-S,268,53,63417,-0.004320112016153828,-0.023063264540437604,-0.08495878869991817,0.10678882761025339,1132.0,10.788864106599647,0.6590398079406162,10.789007550880973,-0.10064559704147627,0.059,0.9999999999704794,1837.5805674406217,1.3312385458794251,268,2026-10-08 01:32:19.501244,25.0,0.11345080619865897,0.6555389108480418,0.48838037867736456
0312,cdot_cos,T,S-T,269,53,63662,-0.029263314736539224,0.024265349474909048,-0.024943202720385395,0.34896765937115626,1132.0,10.837403255737751,0.6594292001190989,10.815504027881119,-0.17005621531200601,0.245,0.9999999999700593,-178.25375574055192,1.3362062139601976,269,2026-10-08 01:32:19.746243,25.0,0.6648706397408195,0.2831073741745228,0.1981189760738956
0312,cdot_cos,P,T-P,270,54,64341,0.042794174531552896,6.216849741321494e-05,0.07205748926809212,0.8583237983267501,1142.0,10.927586719945163,0.6603860361472781,10.851311603220598,-0.3175495736206929,0.679,0.999999999969885,-154.14695304623723,1.3411751236912675,270,2026-10-08 01:32:20.425244,25.0,0.628465912472219,0.09624567507654133,0.1328180621611366
0312,cdot_cos,Q,P-Q,271,54,64456,-0.0015493315393061906,-0.0011033164649579565,-0.04434350607085909,0.24813428767864404,1142.0,10.968104882491694,0.6606624061086017,10.875940069593591,-0.14347072915375098,0.115,0.9999999999693061,629.8761400595737,1.3461424221981273,271,2026-10-08 01:32:20.540244,25.0,0.2972028170366553,0.5842512008919281,0.3523318482307078
0312,cdot_cos,R,Q-R,272,54,64489,0.08586850901933434,0.09095060347565193,0.08741784055864052,0.8989349235821956,1142.0,11.061964496150306,0.6616627151521318,10.912485545422872,-0.33390564909929854,0.033,0.9999999999691321,-190.37608544805389,1.351109486184531,272,2026-10-08 01:32:20.573244,25.0,0.5653413669795793,1.8523962820820095,2.844230716927638
0312,cdot_cos,S,R-S,273,54,64534,-0.002695929866027773,-0.005336004480744252,-0.08856443888536211,0.0984904566366692,1142.0,11.090363037109107,0.6617722249187393,10.934336140362433,-0.10157271033124121,0.045,0.9999999999685529,2121.572768945432,1.3560765865949775,273,2026-10-08 01:32:20.618243,25.0,0.10153457429548926,0.9444159037171811,0.631078687973346
0312,cdot_cos,T,S-T,274,54,64800,-0.012088747966775172,0.01052998781032682,-0.009392818100747399,0.44156316083726393,1142.0,11.146961927484853,0.662262977882455,10.96246739680818,-0.20306850592436537,0.266,0.9999999999681687,-206.8164699906362,1.3610443341229552,274,2026-10-08 01:32:20.884243,25.0,0.606645536129202,0.2666517039795613,0.2127777833674651
0312,cdot_cos,P,T-P,275,55,65483,0.04050136873148804,-0.0004011114358424616,0.05259011669826321,0.7883074040969378,1175.0,11.232221743626233,0.6631382334587644,10.9969689004979,-0.3074588929126023,0.683,0.999999999967947,-119.26846262254979,1.3660133154634315,275,2026-10-08 01:32:21.567244,25.0,0.7121075527735593,0.09318889653078082,0.12483135599030877
0312,cdot_cos,Q,P-Q,276,55,65595,-0.0009204213217922436,-0.0006113786694389285,-0.04142179005328028,0.2620105514787019,1175.0,11.2742579601459,0.663428895853205,11.021776592639318,-0.15238618808125726,0.112,0.9999999999673523,533.5148536494687,1.3709806102255198,276,2026-10-08 01:32:21.679244,25.0,0.3614506864324707,0.6078723149924462,0.37532336178272957
0312,cdot_cos,R,Q-R,277,55,65631,0.08342728581947462,0.0828731297349575,0.08434770714126687,0.891745194659895,1175.0,11.368385142184541,0.664417229415173,11.058174787829861,-0.34278767953483674,0.036,0.9999999999671682,-192.64901929915175,1.3759476805251118,277,2026-10-08 01:32:21.715244,25.0,0.5738138614888914,1.7079750205386794,2.61464394551784
0312,cdot_cos,S,R-S,278,55,65689,-0.004122009895385933,-0.027547748978915737,-0.08754929571486054,0.10076689704542705,1175.0,11.397232161624684,0.6645288204264821,11.079977894716057,-0.1056071197767117,0.058,0.9999999999665647,2125.445024431028,1.3809148185109203,278,2026-10-08 01:32:21.773243,25.0,0.10583472431895542,0.7157822819833045,0.4973624041403909
0312,cdot_cos,T,S-T,279,55,65919,-0.019305732386107933,0.020074268431578793,-0.015183722490722,0.40622504924677144,1175.0,11.451415886894605,0.664978494625506,11.107399014135499,-0.19895394727566662,0.23,0.9999999999661416,-207.5876883788057,1.3858824768503153,279,2026-10-08 01:32:22.003244,25.0,0.6255099042771035,0.30344255447918683,0.23558141421704631
0312,cdot_cos,P,T-P,280,56,66658,0.0314953995823414,-0.0009927249487741963,0.050801131968449334,0.7807475922319357,1140.0,11.53681573668511,0.6658419087670451,11.141735248906228,-0.3150854073134908,0.739,0.9999999999659119,-134.50261520017312,1.3908516879025463,280,2026-10-08 01:32:22.742244,25.0,0.6917218400937096,0.08895915097436842,0.11556136642828864
0312,cdot_cos,Q,P-Q,281,56,66768,-0.0012444543209056767,-0.0008640847211829995,-0.032739853903247074,0.3060829367544849,1140.0,11.582897512034721,0.6661800975431107,11.167285371324564,-0.17090647793829244,0.11,0.9999999999653104,426.32677243914134,1.3958189810048431,281,2026-10-08 01:32:22.852243,25.0,0.43015356058929105,0.6356773226544296,0.4189252304510111
0312,cdot_cos,R,Q-R,282,56,66802,0.07742499815385069,0.07714922122206787,0.07866945247475637,0.8772601286900078,1140.0,11.676664747669085,0.6671484283499493,11.203399484307514,-0.34935589442945203,0.034,0.9999999999651088,-184.28559251746609,1.4007860423446865,282,2026-10-08 01:32:22.886244,25.0,0.6000180784509533,1.817179904514093,2.75785987159892
0312,cdot_cos,S,R-S,283,56,66853,-0.006573268161698343,-0.05440787409807692,-0.08399826631554903,0.10910103389069688,1140.0,11.70646574554168,0.6672687570243392,11.225270207007213,-0.11160188127265547,0.051,0.999999999964482,1975.8716229710446,1.405753157984571,283,2026-10-08 01:32:22.937243,25.0,0.11879257287239323,0.878813916142466,0.5843332916195108
0312,cdot_cos,T,S-T,284,56,67097,-0.011703373554892328,0.010774815305805882,-0.005130105393193985,0.467980718996327,1140.0,11.766303767115616,0.6677846502710124,11.253779246991897,-0.22477105501786449,0.244,0.9999999999640761,-219.36548786980296,1.4107208764609922,284,2026-10-08 01:32:23.181243,25.0,0.6044197212133845,0.2966928860226424,0.24523779333580523
0312,cdot_cos,P,T-P,285,57,67798,0.03576952749279173,-0.00025412832701166417,0.04747290104768406,0.7661722939752548,1136.0,11.851251873920729,0.6686283955519045,11.287819594886322,-0.3206499187479524,0.701,0.9999999999638239,-113.63484442688821,1.415690035341797,285,2026-10-08 01:32:23.882244,25.0,0.7415489145285054,0.09232468083365007,0.12118132211856349
0312,cdot_cos,Q,P-Q,286,57,67910,-0.0015743721285836141,-0.0011009103721270734,-0.03734389962137535,0.28219543197208347,1136.0,11.895742969644393,0.6689388900500589,11.312859152795289,-0.16877935607619254,0.112,0.9999999999631887,489.12481082422045,1.420657339647761,286,2026-10-08 01:32:23.994244,25.0,0.406643999346969,0.62868048749786,0.3972419261041463
0312,cdot_cos,R,Q-R,287,57,67943,0.08537206555497384,0.08815874401308221,0.08694643768355746,0.897859193812349,1136.0,11.99207630312025,0.6699258091931908,11.34933920404039,-0.3670570370539926,0.033,0.9999999999629909,-200.90569967929642,1.4256243951628802,287,2026-10-08 01:32:24.027244,25.0,0.5826420802723652,1.8974003598418416,2.919191923510796
0312,cdot_cos,S,R-S,288,57,67989,-0.004715068292186896,-0.010945439835628755,-0.09008713384716074,0.09516173079144542,1136.0,12.020971393393955,0.6700303226600566,11.37086789984002,-0.11065818373415034,0.046,0.999999999962331,2453.2613930899297,1.4305914938637516,288,2026-10-08 01:32:24.073244,25.0,0.09856542717961254,0.9188629445584324,0.6281541363848977
0312,cdot_cos,T,S-T,289,57,68236,-0.01894507128147537,0.01731373973124899,-0.014230002989288476,0.4119887409118348,1136.0,12.076611694019626,0.6704826044822235,11.398280562429074,-0.21368373996604967,0.247,0.9999999999618747,-227.79061899567333,1.4355592399632,289,2026-10-08 01:32:24.320243,25.0,0.6174603862877719,0.29310719550049213,0.22526437500271454
0312,cdot_cos,P,T-P,290,58,68934,0.03831998438552763,-0.0008557846422317642,0.057265055667003004,0.8071545999467089,1159.0,12.165766347971198,0.6713677849010035,11.433058558627975,-0.34397911168187933,0.698,0.9999999999616379,-147.19640081444416,1.4405284519685524,290,2026-10-08 01:32:25.018244,25.0,0.6846903298137591,0.09533909394690908,0.1277287305896456
0312,cdot_cos,Q,P-Q,291,58,69044,-0.0012489647926978713,-0.0008467188144275425,-0.0395689491782255,0.2710654328820706,1159.0,12.20970506916951,0.6716647812053568,11.457822995705541,-0.17037794012134122,0.11,0.9999999999609736,584.5230025287381,1.4454957547912695,291,2026-10-08 01:32:25.128243,25.0,0.3609852693562858,0.6394593366106947,0.39944291998465853
0312,cdot_cos,R,Q-R,292,58,69078,0.0835418681216234,0.08160017752362989,0.08479083291432127,0.8928099991655215,1159.0,12.306447402025551,0.6726420283712725,11.49419240393655,-0.37671925775961257,0.034,0.9999999999607655,-211.1454756125253,1.4504628108500104,292,2026-10-08 01:32:25.162244,25.0,0.5782596254376767,1.8538734053760488,2.8453627310600114
0312,cdot_cos,S,R-S,293,58,69129,-0.0055933319574221025,-0.02394188506094201,-0.0891352000790455,0.09723074668437427,1159.0,12.335768460735082,0.6727483645031763,11.515677467494035,-0.11474599109726208,0.051,0.9999999999600803,2463.633592571691,1.4554299246074391,293,2026-10-08 01:32:25.213243,25.0,0.10197055417654188,0.8198980881659166,0.5749227197947244
0312,cdot_cos,T,S-T,294,58,69376,-0.023367325076753827,0.023160526664693135,-0.017773993119331723,0.390704981807221,1159.0,12.390077007018474,0.67317547893936,11.542635450655904,-0.21311048935117938,0.247,0.9999999999595913,-230.30010208226648,1.4603976889746315,294,2026-10-08 01:32:25.460243,25.0,0.6302960001483576,0.298853711670921,0.21987265701778358
0312,cdot_cos,P,T-P,295,59,70093,0.04510869363136211,-0.0007313501420450056,0.06847601870811593,0.8470826211753878,1159.0,12.483402194300517,0.6741005141293134,11.578137874176424,-0.36786270306507696,0.717,0.9999999999593712,-167.29332612924912,1.4653670276132746,295,2026-10-08 01:32:26.177243,25.0,0.6566006585847833,0.09398937558827841,0.13016065171832975
0312,cdot_cos,Q,P-Q,296,59,70182,-0.0015360634300579906,-0.0008277015604040034,-0.0466447570614201,0.2375572228499599,1159.0,12.524857771612066,0.6743596895709817,11.602207302359895,-0.1642249304513629,0.089,0.9999999999586555,785.7139986061057,1.4703342644592738,296,2026-10-08 01:32:26.266243,25.0,0.28938622878345915,0.7773355981547693,0.4657930035005484
0312,cdot_cos,R,Q-R,297,59,70241,0.08014808297833237,0.0820892582394319,0.08168414640839036,0.8851473026591652,1159.0,12.621767930772066,0.6753244474762238,11.63841544253826,-0.38543660557605197,0.059,0.9999999999584381,-229.2924203292022,1.475301402345457,297,2026-10-08 01:32:26.325243,25.0,0.5633101437846548,1.0794702675634325,1.6425450705084768
0312,cdot_cos,S,R-S,298,59,70287,-0.004422360545437685,-0.012226778860064876,-0.08457044352377005,0.10771842645302147,1159.0,12.65223526318455,0.6754417528335642,11.660017253661849,-0.12176781883653731,0.046,0.999999999957728,2247.713085893319,1.4802684977576923,298,2026-10-08 01:32:26.371244,25.0,0.11471087170683447,0.9489705803877482,0.662333313314889
0312,cdot_cos,T,S-T,299,59,70532,-0.0181880417484943,0.017550059048405748,-0.013765681203056615,0.41480368061655143,1159.0,12.709073224167739,0.6758932682415885,11.687371961854177,-0.22778164045516075,0.245,0.9999999999572342,-234.79557892060294,1.4852362736306184,299,2026-10-08 01:32:26.616243,25.0,0.6278721969150969,0.3128173143951228,0.23199167748239977
0312,cdot_cos,P,T-P,300,60,71252,0.05932763788664475,-0.000750651529600672,0.07751567963513906,0.8741203737937921,1160.0,12.80551574723816,0.6768436798251887,11.723362120228938,-0.3882397542671613,0.72,0.9999999999570228,-168.83013273489044,1.4902056887552741,300,2026-10-08 01:32:27.336244,25.0,0.6614661593477621,0.092841916276286,0.13394794870891977
0312,cdot_cos,Q,P-Q,301,60,71365,-8.499583315390205e-05,-5.950067217608397e-05,-0.05941263371979866,0.18462583492919576,1160.0,12.84276558360559,0.6770442330186925,11.746367439238938,-0.15069044817762384,0.113,0.999999999956243,1184.470324003848,1.495173011132147,301,2026-10-08 01:32:27.449243,25.0,0.20671673278085304,0.610863915356542,0.329644569623271
0312,cdot_cos,R,Q-R,302,60,71399,0.09807893086338673,0.10013547256137477,0.09816392669654063,0.9208606258172964,1160.0,12.94357099210874,0.6780435613872505,11.783230084839891,-0.40932650112165647,0.034,0.9999999999560346,-258.8098777954645,1.5001400611570541,302,2026-10-08 01:32:27.483244,25.0,0.5316033867726263,1.8981159374435614,2.964864955974967
0312,cdot_cos,S,R-S,303,60,71448,-6.141197299487826e-06,-1.1000782526373047e-05,-0.09808507206068622,0.07928315934920088,1160.0,12.971837467351753,0.6781295244218797,11.80421882956264,-0.11533660679306633,0.049,0.999999999955279,3419.9571431704776,1.5051071653050982,303,2026-10-08 01:32:27.532243,25.0,0.07816189862142989,0.7698270851445734,0.5768668416941487
0312,cdot_cos,T,S-T,304,60,71691,-0.034322872370382215,0.03626921227254749,-0.034316731173082725,0.29777446017448345,1160.0,13.019014046452908,0.6784522796516859,11.829309023610561,-0.1929542046625058,0.243,0.9999999999546828,-240.4844002560382,1.5100749516241798,304,2026-10-08 01:32:27.775244,25.0,0.6688073896156275,0.2958413521357853,0.19414230082779801
0312,cdot_cos,P,T-P,305,61,72412,0.0406362892340541,-0.0007322331150818154,0.07495916160443632,0.8669180145832532,1177.0,13.115616364489744,0.67939095418246,11.865143165465316,-0.3966807314647518,0.721,0.9999999999544562,-217.03638494828863,1.515044432673518,305,2026-10-08 01:32:28.496243,25.0,0.5983507994487207,0.09764247053042835,0.13398379755455855
0312,cdot_cos,Q,P-Q,306,61,72518,-0.0009436683690563185,-0.0006270446630769134,-0.04157995760311042,0.2612466853355877,1177.0,13.159814488957785,0.6796735408761584,11.889524799938874,-0.18238513245463123,0.106,0.9999999999537008,758.3357737248251,1.5200117346585094,306,2026-10-08 01:32:28.602243,25.0,0.3088307167069449,0.676144800269686,0.4169634383777448
0312,cdot_cos,R,Q-R,307,61,72559,0.08363459071465745,0.08225586718303457,0.08457825908371377,0.8923003519538413,1177.0,13.258959062146918,0.6806377347197751,11.925830399867001,-0.4106981386279572,0.041,0.9999999999534652,-236.79160335324983,1.5249788066936145,307,2026-10-08 01:32:28.643244,25.0,0.5735475738358948,1.5809759646752293,2.4181603216861585
0312,cdot_cos,S,R-S,308,61,72604,-0.00323610400700101,-0.006811065234188109,-0.08687069472165847,0.10231459306851726,1177.0,13.289454518061154,0.6807481944204969,11.94717622968825,-0.12692202052004425,0.045,0.9999999999526942,2569.046595757351,1.5299458947870035,308,2026-10-08 01:32:28.688244,25.0,0.1069033152453264,0.9115989781671867,0.67767679809414
0312,cdot_cos,T,S-T,309,61,72849,-0.02914552216388739,0.030610788286717552,-0.02590941815688638,0.34350002890068765,1177.0,13.341002970181965,0.681118891490991,11.973071405728428,-0.21507417366885356,0.245,0.9999999999521069,-237.80105149284063,1.53491370617547,309,2026-10-08 01:32:28.933243,25.0,0.6637374512040611,0.3003970519442887,0.21040184539106324
0312,cdot_cos,P,T-P,310,62,73589,0.03929422530956291,-0.00019874912024988025,0.0684397474734503,0.8469651255651904,1163.0,13.436649073513856,0.6820319368392563,12.008506281417818,-0.4006540029556117,0.74,0.9999999999518566,-203.25368245875296,1.5398833222440529,310,2026-10-08 01:32:29.673243,25.0,0.6292716431125001,0.09479800357816404,0.12925149098904182
0312,cdot_cos,Q,P-Q,311,62,73701,-0.0020495307337957814,-0.0014063158875391015,-0.041343756043358694,0.26238794497442863,1163.0,13.481304015477647,0.6823145130141653,12.032845977773388,-0.1879472542774981,0.112,0.9999999999510703,752.7412696650916,1.5448506500368708,311,2026-10-08 01:32:29.785243,25.0,0.32247282863987076,0.6460236803289237,0.39870483896242703
0312,cdot_cos,R,Q-R,312,62,73735,0.08304593901122921,0.08353005815218455,0.08509546974502499,0.8935366676814118,1163.0,13.581358377907534,0.6832757908065495,12.069155518309154,-0.4226931026296634,0.034,0.9999999999508233,-244.20188442088116,1.5498176935991341,312,2026-10-08 01:32:29.819244,25.0,0.5738669806859433,1.9218331742075307,2.942775365584914
0312,cdot_cos,S,R-S,313,62,73783,-0.0043619688496713115,-0.04574175190201537,-0.08740790786090052,0.10108763852261615,1163.0,13.61198867132376,0.6833844438526269,12.090403751988422,-0.13000334012896667,0.048,0.9999999999500195,2693.8017208685033,1.554784790599809,313,2026-10-08 01:32:29.867244,25.0,0.10525157253292625,0.9845391144335617,0.6381311128380215
0312,cdot_cos,T,S-T,314,62,74030,-0.0077274178908765855,0.007507247963578521,-0.003365449041205274,0.478978342888286,1163.0,13.675874132893156,0.6838989968393652,12.118819846992636,-0.2718511812052852,0.247,0.9999999999495083,-275.6719807914765,1.559752628107189,314,2026-10-08 01:32:30.114244,25.0,0.5934603354197046,0.3085349837661259,0.258645593398368
0312,cdot_cos,P,T-P,315,63,74752,0.037801374112488066,0.000554284063437701,0.045528792003364654,0.757352642242411,1172.0,13.764404953304226,0.6847116807562261,12.152526545853698,-0.37830320564672354,0.722,0.9999999999491785,-130.98822584383862,1.5647222471948568,315,2026-10-08 01:32:30.836244,25.0,0.7547313673994946,0.0932966042395467,0.12261886483527604
0312,cdot_cos,Q,P-Q,316,63,74858,-0.0008376330872433373,-0.0005319341152268844,-0.0386390071997314,0.27568346065982696,1172.0,13.810594429415062,0.6850072253106729,12.177058161007878,-0.1982424013132817,0.106,0.9999999999483755,609.2509627540857,1.5696895573231977,316,2026-10-08 01:32:30.942244,25.0,0.4032147287056606,0.6936350396327328,0.4357497746305295
0312,cdot_cos,R,Q-R,317,63,74901,0.08427209078822445,0.08524151617876471,0.0851097238754678,0.8935705624183182,1172.0,13.911455581706365,0.685964141591886,12.213347918361999,-0.43448125562846845,0.043,0.9999999999481209,-246.87515402675226,1.5746566319080273,317,2026-10-08 01:32:30.985244,25.0,0.5805808400885949,1.5330731561674302,2.3456081928210053
0312,cdot_cos,S,R-S,318,63,74955,-0.002619269793999358,-0.005968187803416762,-0.08689136058222381,0.10226715073763291,1172.0,13.94243872084546,0.686073557964449,12.234547764299894,-0.13407666127840506,0.054,0.9999999999472861,2745.517762225852,1.5796237500387709,318,2026-10-08 01:32:31.039244,25.0,0.10640065798149928,0.750367221692227,0.5737618359091812
0312,cdot_cos,T,S-T,319,63,75205,-0.03326294908445105,0.033636484368369454,-0.03064367929045169,0.3173250946482945,1172.0,13.992495241649126,0.6864129347151509,12.259830743752936,-0.2171170819871175,0.25,0.9999999999466275,-244.68506029650985,1.5845916169158958,319,2026-10-08 01:32:31.289243,25.0,0.6821754544543603,0.29296616704237977,0.20022608321465896
0312,cdot_cos,P,T-P,320,64,75924,0.0326289498665557,-0.0005539426287610517,0.06589189895100675,0.8385254616795588,1145.0,14.08892180436665,0.6873087710957235,12.295057820163517,-0.4197825736388813,0.719,0.9999999999463459,-226.23047695630413,1.5895612893303837,320,2026-10-08 01:32:32.008243,25.0,0.6170613576777482,0.10060847836140151,0.1341120482858486
0312,cdot_cos,Q,P-Q,321,64,76034,-0.0022593029464738853,-0.0015494609016557046,-0.03488825281302958,0.29479542011442883,1145.0,14.13717023353282,0.6876233833793886,12.319894142910755,-0.21101101561216998,0.11,0.9999999999455285,663.5836197959561,1.5945286188153776,321,2026-10-08 01:32:32.118243,25.0,0.37180453326783897,0.6759873280236306,0.43862208332882024
0312,cdot_cos,R,Q-R,322,64,76069,0.07755632504703752,0.07838788474873581,0.07981562799351141,0.88031228096636,1145.0,14.23763901653185,0.6885618430296991,12.35590923284209,-0.44098091271517226,0.035,0.9999999999452512,-245.05038338823957,1.5994956598112213,322,2026-10-08 01:32:32.153243,25.0,0.5936316553019213,1.894377277734449,2.8705366571151
0312,cdot_cos,S,R-S,323,64,76113,-0.005042278422024616,-0.05711574244138257,-0.08259860346906214,0.11254895400027695,1145.0,14.269776642974232,0.688681714817027,12.377234747917518,-0.1416895838270253,0.044,0.9999999999443935,2496.762045180411,1.6044627376261935,323,2026-10-08 01:32:32.197243,25.0,0.12095908016031427,1.0952535639670227,0.7304006009632487
0312,cdot_cos,T,S-T,324,64,76349,-0.00957740043133746,0.00863435331304624,-0.004535122009312845,0.4716858115344295,1145.0,14.334021330160947,0.6891838150064891,12.405417363818401,-0.2839495051470604,0.236,0.9999999999438359,-283.329750328214,1.6094305693904671,324,2026-10-08 01:32:32.433243,25.0,0.6059218304639602,0.32436446963550636,0.2722232507911655
0312,cdot_cos,P,T-P,325,65,77069,0.03339048851576162,0.0004751259979646297,0.042967888947099075,0.7453942919333216,1172.0,14.422876672642191,0.6899763650647244,12.43883550649709,-0.39427170847262016,0.72,0.9999999999434721,-139.1990350378664,1.614400315522878,325,2026-10-08 01:32:33.153243,25.0,0.7559253666070361,0.09513174308397106,0.12341019789061658
0312,cdot_cos,Q,P-Q,326,65,77185,-0.0025623058877209696,-0.0016915476325223733,-0.035952794403482584,0.2892930768518004,1172.0,14.471011040201866,0.6902836596994184,12.463509484762241,-0.2144839908916782,0.116,0.9999999999426243,585.0662435416515,1.6193676737283818,326,2026-10-08 01:32:33.269243,25.0,0.4324737108060779,0.6491554582468111,0.41495144447995147
0312,cdot_cos,R,Q-R,327,65,77219,0.0826813692523099,0.08495926059820398,0.08524367514003087,0.8938886194679976,1172.0,14.573480738955451,0.6912321091142247,12.49976172273772,-0.4582009426412036,0.034,0.9999999999423486,-256.9635743823982,1.6243347077821715,327,2026-10-08 01:32:33.303244,25.0,0.5874878482165502,1.964578930694023,3.0138146692231116
0312,cdot_cos,S,R-S,328,65,77272,-0.005904564305469845,-0.03807924727867916,-0.08858593355777974,0.09844275408439104,1172.0,14.60460240748906,0.6913364622990043,12.520749660179662,-0.13977759772547654,0.053,0.9999999999414495,3051.4003534102003,1.6293018197017268,328,2026-10-08 01:32:33.356243,25.0,0.10248166445194576,0.8864836478894536,0.5872012930869389
0312,cdot_cos,T,S-T,329,65,77522,-0.013830018355190531,0.013176277736254578,-0.007925454049720686,0.45062732935188865,1172.0,14.667448005631734,0.6918138956085391,12.548481359637018,-0.28292525425630427,0.25,0.9999999999408519,-299.82754380980816,1.6342697256521326,329,2026-10-08 01:32:33.606244,25.0,0.6029290562360455,0.310710612143307,0.2513823925706973
0312,cdot_cos,P,T-P,330,66,78241,0.03640787670944922,-0.00011703324079192472,0.05023789506463975,0.7783276824176647,1155.0,14.759957713560713,0.6926375572995408,12.58250101114631,-0.4180583357849931,0.719,0.9999999999404992,-164.06381771179625,1.6392395362316377,330,2026-10-08 01:32:34.325243,25.0,0.7238002858483276,0.09744879085699817,0.12866440602083334
0312,cdot_cos,Q,P-Q,331,66,78353,-0.0014724020628423345,-0.0010188559504744552,-0.037880278772291553,0.2794871427962796,1155.0,14.807579366884097,0.6929330243161542,12.606930297313493,-0.21611544248964543,0.112,0.999999999939613,683.4701741330372,1.6442068834042274,331,2026-10-08 01:32:34.437243,25.0,0.39281308332620885,0.6751942680694535,0.4251933332445017
0312,cdot_cos,R,Q-R,332,66,78387,0.08551301632160643,0.08553455300499807,0.08698541838444877,0.897948530280931,1155.0,14.91120122960827,0.6938812420408197,12.643237076743839,-0.4718434651673744,0.034,0.9999999999393299,-269.6933584192914,1.649173914150539,332,2026-10-08 01:32:34.471244,25.0,0.5815976460542284,1.9753495707369793,3.0477018448286293
0312,cdot_cos,S,R-S,333,66,78431,-0.006469089849672469,-0.018520831176813565,-0.0919821061712789,0.09116001677074617,1155.0,14.941903137694212,0.6939774138726205,12.664018571716719,-0.1404096095236871,0.044,0.9999999999383921,3446.2674718547146,1.6541409877329416,333,2026-10-08 01:32:34.515244,25.0,0.09437505986236712,1.0223841665729145,0.6977706383168455
0312,cdot_cos,T,S-T,334,66,78681,-0.021700940958955865,0.02001154901631108,-0.015231851109283396,0.40593485892399905,1155.0,15.001171036266687,0.6944054611334448,12.690842019315822,-0.2716539018837904,0.25,0.9999999999377357,-306.6116860725805,1.659108912924657,334,2026-10-08 01:32:34.765243,25.0,0.6168493035802366,0.31129995754837125,0.2370715942899011
0312,cdot_cos,P,T-P,335,67,79396,0.037153300101710474,0.0004450544323059835,0.058854241060666335,0.8132634078906551,1122.0,15.097553116468397,0.69526201556666,12.725504542937465,-0.44336354563877034,0.715,0.9999999999374004,-200.46553621868966,1.6640787750779065,335,2026-10-08 01:32:35.480243,25.0,0.6788951423020646,0.10059678566881358,0.13480011217022428
0312,cdot_cos,Q,P-Q,336,67,79508,-0.0018489257984175488,-0.0013605353981718759,-0.03900222590012802,0.2738739521473666,1122.0,15.14502443977309,0.695550164452534,12.749769378826606,-0.21929868382731477,0.112,0.9999999999364808,777.6010000240321,1.669046127195833,336,2026-10-08 01:32:35.592243,25.0,0.35997030819187636,0.6751941674331844,0.4238511009347594
0312,cdot_cos,R,Q-R,337,67,79543,0.08221244800906075,0.08847562711854219,0.0840613738074783,0.8910522196109,1122.0,15.24879660997343,0.6964865990787872,12.78591889686625,-0.4809468544681983,0.035,0.9999999999361816,-279.4089019196009,1.6740131589220602,337,2026-10-08 01:32:35.627244,25.0,0.5804061278120888,1.946178825979824,2.9649191485811497
