record_id,input,event,transition,event_index,k,peak,value_cos,value_sin,value_return,x_input,rr,knowledge,decision,decision_norm,entropy,delta_t,cosine_similarity,delta_h_over_delta_d,frobenius_norm,matrix_size,timestamp,scale,P,zdot,zdot_back
0060,cdot_cos,Q,P-Q,1,0,1359,-0.02008853450970768,-0.0197443219855053,-0.060227268780588775,0.1806863316437116,760.0,0.0008974945818311289,0.5002243736303967,0.5002243736303967,,,1.0,,0.004967141530112327,1,2026-10-07 19:01:17.443244,25.1,,,
0060,cdot_cos,R,Q-R,2,0,1384,0.1649836555568972,0.2672717797786798,0.18507219006660489,0.9904848751180813,760.0,0.00822700799194223,0.5014543391835385,0.7091635273841984,-1.2060497401208959e-05,,1.0,,0.009934283060224654,2,2026-10-07 19:01:17.468243,25.1,,,
0060,cdot_cos,S,R-S,3,0,1414,-0.002553261482357676,-0.007531477841595508,-0.16753691703925488,0.014698871048839776,760.0,0.010202445252305032,0.501472591870374,0.8685760077227392,-6.565328738309606e-06,0.03,1.0,0.3010608088797264,0.014901424594555046,3,2026-10-07 19:01:17.498244,25.1,0.43300835751963235,0.059315817192094236,0.06584790867876009
0060,cdot_cos,T,S-T,4,0,1645,-0.30362405848548946,0.044095006390395645,-0.3010707970031318,0.0005222316091487618,760.0,0.011785957023467884,0.5014732403643248,1.0029464807289543,-6.279076168884003e-06,0.231,0.9999999999999999,0.44141131777807646,0.019868566160629642,4,2026-10-07 19:01:17.729243,25.1,0.9554352093699038,0.03047423561007911,0.0068550293123932965
0060,cdot_cos,P,T-P,5,1,2025,0.03221052468461168,-4.999131971280393e-05,0.3358345831701011,0.999781705689108,837.0,0.024281542104161582,0.5027147322592121,1.1241043146256626,-8.127264145153809e-05,0.38,1.0000000000000002,-0.06040600473631041,0.02483570781228628,5,2026-10-07 19:01:18.109244,25.1,0.397428358247984,0.022755301983611437,0.03288311863340447
0060,cdot_cos,Q,P-Q,6,1,2126,-0.022055281005826613,-0.020219052347302237,-0.05426580569043829,0.20390379934909078,837.0,0.029079986531012576,0.5029679288346248,1.2320147826388679,-4.61740513084534e-05,0.101,1.0000000000000002,0.1386218991543593,0.029802849388273742,6,2026-10-07 19:01:18.210243,25.1,0.4676025099274599,0.09976387142040398,0.04750935076090093
0060,cdot_cos,R,Q-R,7,1,2155,0.16536532423642133,0.23931045655163308,0.18742060524224796,0.9910246474607448,837.0,0.044433844131083186,0.50419850493132,1.333983855475128,-0.0002035356511250176,0.029,1.0000000000000002,-0.12787636639389569,0.03476999092279137,7,2026-10-07 19:01:18.239244,25.1,0.4615613819893862,0.3210009779560075,0.5294433655196762
0060,cdot_cos,S,R-S,8,1,2178,-0.004227600458920997,-0.00934269448800976,-0.16959292469534235,0.013969892515080556,837.0,0.04769804325246101,0.5042158513114041,1.426137790595348,-5.423008522139723e-05,0.023,1.0,8.60730395504465,0.03973713246558472,8,2026-10-07 19:01:18.262244,25.1,0.06372444711582174,0.13500784479523958,0.14192170092947073
0060,cdot_cos,T,S-T,9,1,2424,-0.22890238222396714,0.10057623385007601,-0.22467478176504613,0.0035426298148437336,837.0,0.05064420499166421,0.5042202501842434,1.5126607505758023,-5.2245673093802515e-05,0.246,1.0,0.4511183205520098,0.04470427439868706,9,2026-10-07 19:01:18.508243,25.1,0.9627299571346573,0.04343960047327623,0.01197626723253331
0060,cdot_cos,P,T-P,10,2,2862,0.03500194791483567,-0.001966563855758904,0.2639043301388028,0.9986736519160875,839.0,0.06907032668531292,0.5054602716747673,1.5984057252997244,-0.00039775308950629076,0.438,1.0000000000000002,-0.27863018427731856,0.0496714168780105,10,2026-10-07 19:01:18.946244,25.1,0.41951836460527964,0.02879941407225058,0.04206877099006555
0060,cdot_cos,Q,P-Q,11,2,2954,-0.018202825468427643,-0.015044471976333018,-0.053204773383263314,0.20826098010581143,839.0,0.07587249171895571,0.5057188547899332,1.6772796909343612,-0.00017777537350386482,0.092,0.9999999999999998,0.850704098994571,0.05463855855627665,11,2026-10-07 19:01:19.038244,25.1,0.29014009482536335,0.14815469384323338,0.07393657645263908
0060,cdot_cos,R,Q-R,12,2,2984,0.17864492314301314,0.2267242983514844,0.19684774861144078,0.9929024198568127,839.0,0.09633079035246786,0.5069516279335173,1.7561319533442854,-0.0006352015260958405,0.03,1.0000000000000002,-0.37105460560412173,0.0596057000655488,12,2026-10-07 19:01:19.068243,25.1,0.4866901487345284,0.4095333621531442,0.6819432877837383
0060,cdot_cos,S,R-S,13,2,3011,-0.004173310949455877,-0.008337118231291223,-0.18281823409246903,0.01006338152240213,839.0,0.10044449344814436,0.5069641220736549,1.8278851371909508,-0.00014594989381458588,0.027,1.0,39.15848765046131,0.06457284160022288,13,2026-10-07 19:01:19.095244,25.1,0.03500763756179006,0.1473087222349306,0.15235937391394463
0060,cdot_cos,T,S-T,14,2,3242,-0.24042297636858234,0.11829522052297042,-0.23624966541912645,0.0026517859828030514,839.0,0.10428546135315411,0.5069674143836049,1.8968983711300191,-0.0001417823862758168,0.231,1.0,1.265830861025519,0.06953998417845447,14,2026-10-07 19:01:19.326244,25.1,0.9710341025902132,0.05782991824085349,0.016627566688353888
0060,cdot_cos,P,T-P,15,3,3701,0.030406357291859393,-8.06606120970873e-06,0.2708293336604417,0.9988850345514102,800.0,0.12716191567541868,0.5082075289437407,1.9682792964587195,-0.0009545715577295339,0.459,1.0,-0.6554145863465692,0.07450712829303922,15,2026-10-07 19:01:19.785243,25.1,0.42678703670495044,0.034102151324869996,0.04983976976528228
0060,cdot_cos,Q,P-Q,16,3,3799,-0.02134095916280435,-0.02028851953265435,-0.05174731645466374,0.21435733654421893,800.0,0.13559123626938477,0.5084736406753679,2.033894563551445,-0.0003993009159260727,0.098,1.0,2.0866071495908263,0.07947427021195005,16,2026-10-07 19:01:19.883244,25.1,0.2489241661556552,0.16771086133816382,0.08601347544863355
0060,cdot_cos,R,Q-R,17,3,3823,0.16052126789554136,0.24644665234027355,0.1818622270583457,0.9896947378736238,800.0,0.1600332444976988,0.5097022225037682,2.1015561019524323,-0.0013025616167193221,0.024,0.9999999999999999,-0.735205974818462,0.08444141161574228,17,2026-10-07 19:01:19.907244,25.1,0.499848863526007,0.6129214046325104,1.0184170095130842
0060,cdot_cos,S,R-S,18,3,3853,-0.0034120888977796845,-0.008699270243002677,-0.16393335679332105,0.016067997106232485,800.0,0.16501146369174527,0.5097221679792916,2.162568009966611,-0.0002917006768591418,0.03,1.0,50.68121532992507,0.08940855313782659,18,2026-10-07 19:01:19.937243,25.1,0.03126034716360382,0.159671693004478,0.16594063980154933
0060,cdot_cos,T,S-T,19,3,4101,-0.22621269908885588,0.06135133953406619,-0.2228006101910762,0.003712629644611672,800.0,0.16961354607796747,0.5097267765246204,2.2218475086935245,-0.00027760862313112476,0.248,0.9999999999999997,3.057809508773768,0.09437569689482314,19,2026-10-07 19:01:20.185244,25.1,0.9505045734228784,0.06289481438481731,0.0185567838154121
0060,cdot_cos,P,T-P,20,4,4501,0.04226913753754112,0.0019038228705226638,0.268481836626397,0.9988174443232449,858.0,0.19620729162661465,0.5109665616688558,2.285111933742312,-0.0017535717005411056,0.4,0.9999999999999999,-1.1904990830651088,0.09934284264628496,20,2026-10-07 19:01:20.585243,25.1,0.43098171770170374,0.0446599720831287,0.06648436387161796
0060,cdot_cos,Q,P-Q,21,4,4606,-0.015910500191723374,-0.01498487782263996,-0.058179637729264495,0.18842008323962706,858.0,0.20534152374447043,0.5112004239990658,2.3426146406002757,-0.0006611149251919776,0.105,0.9999999999999999,4.671367014806889,0.10430998500110446,21,2026-10-07 19:01:20.690243,25.1,0.1915807107128268,0.1763315256505392,0.08699268683672165
0060,cdot_cos,R,Q-R,22,4,4635,0.166849147573028,0.24058965600722595,0.18275964776475137,0.9899219584680982,858.0,0.23323691201322788,0.5124290076337606,2.403505095770302,-0.0022049350149646392,0.029,0.9999999999999998,-1.256585263042486,0.10927712638584355,22,2026-10-07 19:01:20.719244,25.1,0.4965029765317635,0.5772953977435658,0.9619099403019811
0060,cdot_cos,S,R-S,23,4,4657,-0.0011918923008793455,-0.0025906784537137024,-0.16804103987390734,0.014516733891761845,858.0,0.23882465681359724,0.5124470231465006,2.457609590246999,-0.0004753905438958606,0.022,0.9999999999999997,96.00306669229774,0.11424426773409566,23,2026-10-07 19:01:20.741244,25.1,0.026300824977613095,0.2440529898609164,0.2539884000167891
0060,cdot_cos,T,S-T,24,4,4900,-0.2984452624461783,0.13954097093009593,-0.29725337014529896,0.0005747160461611291,858.0,0.2439752435671082,0.5124477363781871,2.510470950583052,-0.00044816628077043,0.243,1.0,38.17029394677112,0.11921141285711143,24,2026-10-07 19:01:20.984244,25.1,0.9410623353308092,0.07204151029092246,0.02119583026136198
0060,cdot_cos,P,T-P,25,5,5359,0.04005704267916429,-0.0024283590072492487,0.3385023051253426,0.9997958411189085,880.0,0.27383683081498555,0.5136884195116994,2.5684421010884533,-0.00278640339983274,0.459,0.9999999999999999,-1.8846368229757735,0.12417856232029714,25,2026-10-07 19:01:21.443244,25.1,0.43207349217496044,0.04389583303084895,0.0650579242873145
0060,cdot_cos,Q,P-Q,26,5,5450,-0.015704536113448842,-0.012003932960586617,-0.055761578792613134,0.19787711260590485,880.0,0.28427161828942754,0.5139339529287819,2.6205592599648044,-0.0010494200186869148,0.091,0.9999999999999994,7.074325775226712,0.12914570483200105,26,2026-10-07 19:01:21.534244,25.1,0.1910568694302163,0.2279740298678513,0.11466799422463722
0060,cdot_cos,R,Q-R,27,5,5480,0.1844427841324574,0.2114924331229917,0.20014732024590626,0.9934628653307475,880.0,0.3153281042509345,0.5151665752460837,2.6768840536945833,-0.0033550462440200554,0.03,1.0,-1.870505014366537,0.1341128461330175,27,2026-10-07 19:01:21.564243,25.1,0.5029766862860772,0.6179200211390448,1.0352161987168984
0060,cdot_cos,S,R-S,28,5,5507,-0.003580239594328807,-0.006189909847213178,-0.1880230237267862,0.008841850714757436,880.0,0.3213468195577702,0.5151775448173425,2.7260633349619954,-0.0006904078822520855,0.027,0.9999999999999994,242.91180565811226,0.13907998746248593,28,2026-10-07 19:01:21.591244,25.1,0.021078257102715898,0.21741705568900238,0.22291538173465672
0060,cdot_cos,T,S-T,29,5,5738,-0.26940608815646644,0.18400298031419474,-0.26582584856213765,0.0012639752380014097,880.0,0.3270686252581406,0.5151791129569016,2.7743244342349587,-0.0006684525264523094,0.231,0.9999999999999992,14.000894035517463,0.14404713402327318,29,2026-10-07 19:01:21.822243,25.1,0.9676884925410525,0.08335163091131913,0.024769721646625095
0060,cdot_cos,P,T-P,30,6,6239,0.04247211288302399,0.0011673043035049927,0.31187820103949043,0.9996017940130375,837.0,0.35985527303879966,0.516419163846,2.8285442588086918,-0.004057155153732087,0.501,0.9999999999999993,-2.7327125500015526,0.14901428839293543,30,2026-10-07 19:01:22.323244,25.1,0.4337698982586123,0.04366292839504961,0.0654424107398384
0060,cdot_cos,Q,P-Q,31,6,6340,-0.01757896000453959,-0.016059462397328982,-0.060051072887563575,0.1813419604484315,837.0,0.3708188795099803,0.5166441054671645,2.8765526489731603,-0.0014430461626411587,0.101,0.9999999999999992,11.621277456598778,0.15398143161280503,31,2026-10-07 19:01:22.424243,25.1,0.16340534425839542,0.22135388276729218,0.10855055912060063
0060,cdot_cos,R,Q-R,32,6,6362,0.16534850269626572,0.23625513707277576,0.18292746270080532,0.9899638943224925,837.0,0.4045687573577927,0.5178719629749967,2.929526225351952,-0.00471324925615049,0.022,0.9999999999999991,-2.6633408784403794,0.15894857248938155,32,2026-10-07 19:01:22.446244,25.1,0.4996577143230698,0.9190885440412361,1.5340853567187438
0060,cdot_cos,S,R-S,33,6,6391,-0.0023969542986747613,-0.005289772365318599,-0.16774545699494048,0.014623255143302307,837.0,0.4112587754477947,0.5178900986955476,2.9750521269038868,-0.000983000756879925,0.029,0.9999999999999991,205.6851553709745,0.16391571373159008,33,2026-10-07 19:01:22.475244,25.1,0.022488381354667096,0.22260304037007447,0.23069027896558708
0060,cdot_cos,T,S-T,34,6,6637,-0.2685947818752177,0.10951195226205415,-0.2661978275765429,0.0012522435450412605,837.0,0.417479733699257,0.5178916517223356,3.0198013189709187,-0.0009285449066506731,0.246,0.9999999999999989,35.064334142814964,0.16888286275390427,34,2026-10-07 19:01:22.721244,25.1,0.9430401344623419,0.08473688576350681,0.02528844817667599
0060,cdot_cos,P,T-P,35,7,7076,0.04453046241118803,-0.0030012194174782736,0.3131252442864057,0.9996140603877532,843.0,0.45294932324344006,0.5191312557584535,3.0712219401928342,-0.0055595266119746155,0.439,0.999999999999999,-3.735855620337393,0.17385001958854956,35,2026-10-07 19:01:23.160243,25.1,0.43475122844108377,0.053740834330957186,0.0807963315357245
0060,cdot_cos,Q,P-Q,36,7,7166,-0.016562966330523003,-0.013187982789296643,-0.06109342874171103,0.17749019122930149,843.0,0.4646641862418374,0.5193513340803849,3.1161080217844668,-0.0019356665663715863,0.09,0.9999999999999984,16.466228994298195,0.17881716300246744,36,2026-10-07 19:01:23.250243,25.1,0.15379250226784238,0.2675936377771526,0.13016514442663732
0060,cdot_cos,R,Q-R,37,7,7196,0.18926459312013014,0.22866845877786157,0.20582755945065315,0.9943265695564577,843.0,0.5011161780433275,0.5205841044383016,3.1665895024212465,-0.006337931061349477,0.03,0.9999999999999984,-3.571033702024974,0.18378430403245818,37,2026-10-07 19:01:23.280244,25.1,0.4992790349093107,0.7238615432288922,1.215066393383004
0060,cdot_cos,S,R-S,38,7,7224,-0.0014793127482151133,-0.0028590691147673927,-0.19074390586834525,0.008262985217977418,843.0,0.508095878835571,0.5205943478935902,3.2091591062251243,-0.0012681375951052573,0.028,0.9999999999999983,494.9300136948107,0.18875144511575145,38,2026-10-07 19:01:23.308243,25.1,0.01835550015603058,0.2433569631254902,0.24927502829440767
0060,cdot_cos,T,S-T,39,7,7456,-0.3406255760064527,0.10391171822018462,-0.3391462632582376,0.00020088617293232932,843.0,0.514744167978355,0.5205945969278913,3.251112234131523,-0.0012242348737686415,0.232,0.9999999999999974,176.29186472892704,0.19371859593987903,39,2026-10-07 19:01:23.540244,25.1,0.9647740453674999,0.09616067022917012,0.028656418718896706
0060,cdot_cos,P,T-P,40,8,7919,0.04005826505855647,0.0008571109468316151,0.3806838410650092,0.9999291705187942,875.0,0.5527144298219059,0.5218340584226802,3.300368391756497,-0.007295418912395664,0.463,0.9999999999999977,-4.898243361453872,0.19868575889273024,40,2026-10-07 19:01:24.003244,25.1,0.4350948242336742,0.05495713274943342,0.08200920484568229
0060,cdot_cos,Q,P-Q,41,8,8022,-0.017623656912870222,-0.01547645533597326,-0.057681921971426686,0.19033787610678723,875.0,0.5656344729043303,0.5220699616140957,3.342878852126408,-0.0026006317122762457,0.103,0.9999999999999972,19.901329744411054,0.20365290360529642,41,2026-10-07 19:01:24.106244,25.1,0.16443354533596166,0.25082375296688825,0.12543731147984902
0060,cdot_cos,R,Q-R,42,8,8050,0.16861595245190655,0.22497024444459812,0.18623960936477676,0.9907571044500602,875.0,0.6043841229330849,0.5232977364269684,3.3913569663973604,-0.008158328004706204,0.028,0.9999999999999972,-4.526641395604253,0.2086200443498942,42,2026-10-07 19:01:24.134243,25.1,0.505994329212314,0.8273776621454815,1.3839160724555186
0060,cdot_cos,S,R-S,43,8,8072,-0.0031887416065256922,-0.006294630681945459,-0.17180469405843224,0.013225460040979542,875.0,0.6119676219844773,0.5233141239278396,3.4316002252446838,-0.0016598471725735417,0.022,0.9999999999999967,396.55105944552514,0.21358718489444856,43,2026-10-07 19:01:24.156243,25.1,0.019938396527898732,0.33456648686313645,0.34470450233602
0060,cdot_cos,T,S-T,44,8,8315,-0.25286514131200066,0.13925867788007065,-0.24967639970547498,0.0018945499170412107,875.0,0.6191050483550629,0.5233164714366574,3.4712887934956584,-0.001581118515376556,0.243,0.9999999999999964,33.537108189208084,0.21855433901526816,44,2026-10-07 19:01:24.399244,25.1,0.951426335556091,0.09757237472090297,0.0293721249818336
0060,cdot_cos,P,T-P,45,9,8794,0.021941453475082147,0.0011693993494819855,0.2748065947870828,0.9989908583695469,839.0,0.6593877960988361,0.5245541602421541,3.518816313433391,-0.009265168430659946,0.479,0.9999999999999963,-6.208386050805222,0.2235215089114103,45,2026-10-07 19:01:24.878243,25.1,0.4363336357051481,0.05845088447329276,0.08409759445464149
0060,cdot_cos,Q,P-Q,46,9,8891,-0.021798357280993125,-0.019497899756681536,-0.043739810756075276,0.25013934563287926,839.0,0.6751009956804773,0.5248640210339286,3.5598010283452255,-0.0037721488480176356,0.097,0.9999999999999956,17.727378643759817,0.22848865406146396,46,2026-10-07 19:01:24.975244,25.1,0.23311943605671784,0.2923926357166138,0.16199174826434218
0060,cdot_cos,R,Q-R,47,9,8916,0.1612610535791565,0.22496989032715645,0.18305941086014962,0.9899967459643302,839.0,0.7161119674278592,0.5260901920637308,3.606692688476489,-0.010261104738191895,0.025,0.9999999999999956,-5.2920479545347305,0.23345579436150343,47,2026-10-07 19:01:25.000243,25.1,0.5313237474344553,0.9823277843927869,1.6404388698952754
0060,cdot_cos,S,R-S,48,9,8946,-0.004594847881328407,-0.009998027537088014,-0.1658559014604849,0.015322631465268362,839.0,0.7242173849001167,0.5261091676381012,3.6449912778662674,-0.002099596883557797,0.03,0.9999999999999953,430.10597177675714,0.23842293522668814,48,2026-10-07 19:01:25.030244,25.1,0.02050311413535614,0.2667732484232873,0.270180582408582
0060,cdot_cos,T,S-T,49,9,9193,-0.1824358567663091,0.06987889583862862,-0.1778410088849807,0.01138723948941544,839.0,0.7321183623332564,0.5261232695671241,3.6828629304271057,-0.0020693777162435847,0.247,0.9999999999999948,2.1429101837948945,0.2433900928545427,49,2026-10-07 19:01:25.277244,25.1,0.9855030854809209,0.10186565508099071,0.031987762887205576
0060,cdot_cos,P,T-P,50,10,9633,0.03891161267463611,-0.001517000626360929,0.22134746944094522,0.9961499876607286,878.0,0.7745390185101261,0.5273567354559856,3.728975286638641,-0.011491438543730463,0.44,0.9999999999999947,-7.638687792317713,0.24835726670583033,50,2026-10-07 19:01:25.717243,25.1,0.44046686987562883,0.0649785608787186,0.09641058222015825
0060,cdot_cos,Q,P-Q,51,10,9728,-0.016608419572114803,-0.013437422018121885,-0.05552003224675091,0.1988411767415541,878.0,0.7892994959065288,0.5276029076862379,3.7678384637888125,-0.004150030111661573,0.095,0.9999999999999936,29.82224446902971,0.253324412603148,51,2026-10-07 19:01:25.812243,25.1,0.17050319482487103,0.3053373637026273,0.15537344627792354
0060,cdot_cos,R,Q-R,52,10,9756,0.1784802105771607,0.22039536095636844,0.19508863014927552,0.9925843886601924,878.0,0.8325531176136253,0.5288315582719733,3.8134586608043057,-0.012608747955523171,0.028,0.9999999999999931,-6.884559322289889,0.25829155290859396,52,2026-10-07 19:01:25.840243,25.1,0.5112681627307917,0.9213222744256808,1.5447722038248735
0060,cdot_cos,S,R-S,53,10,9782,-0.0033196310031251134,-0.006154250828023557,-0.1817998415802858,0.010321244842635094,878.0,0.8408935432743669,0.5288443324078517,3.8500449164456043,-0.0025086317089192574,0.026,0.999999999999993,790.6692353000756,0.2632586932335346,53,2026-10-07 19:01:25.866244,25.1,0.01784297345451732,0.3131276024363216,0.320785602336218
0060,cdot_cos,T,S-T,54,10,10032,-0.2689836487494654,0.16453200115472108,-0.2656640177463403,0.0012691133590605626,878.0,0.848835752940314,0.5288459031291962,3.886207908125475,-0.0024120990691647603,0.25,0.9999999999999919,61.45752083250782,0.2682258547140505,54,2026-10-07 19:01:26.116243,25.1,0.9607700502869938,0.10517227337732815,0.03176883866378821
0060,cdot_cos,P,T-P,55,11,10511,0.03714632456947553,-0.002562944637368955,0.30612997331894093,0.9995400176406654,858.0,0.893479679963031,0.5300828064390909,3.931199377036349,-0.01397651094173784,0.479,0.9999999999999919,-9.34948736903113,0.27319303940012685,55,2026-10-07 19:01:26.595244,25.1,0.43717677229029683,0.0627364451638083,0.09320235286579755
0060,cdot_cos,Q,P-Q,56,11,10601,-0.01850494519669915,-0.014507531848141561,-0.05565126976617468,0.19831694216174325,858.0,0.9089372674072423,0.53032817476554,3.968612749855122,-0.005005883357672585,0.09,0.9999999999999908,36.55984337459988,0.2781601856613977,56,2026-10-07 19:01:26.685244,25.1,0.16662376680421132,0.3377892694615945,0.17175097160234812
0060,cdot_cos,R,Q-R,57,11,10631,0.18312967757309626,0.2166014616545596,0.2016346227697954,0.9937008971308596,858.0,0.954281748466118,0.531557411518855,4.013170537053124,-0.015175375154490925,0.03,0.9999999999999906,-8.273013127367433,0.28312732588086853,57,2026-10-07 19:01:26.715244,25.1,0.5116414651048983,0.9003541426376623,1.5114827019625225
0060,cdot_cos,S,R-S,58,11,10658,-0.003966949607256867,-0.007182220578133682,-0.18709662718035314,0.009047973246826147,858.0,0.9629585159655021,0.53156860238694,4.048305953606597,-0.0029880259346527255,0.027,0.9999999999999897,1089.044131990795,0.2880944659965143,58,2026-10-07 19:01:26.742244,25.1,0.016928961976406347,0.3145562141325541,0.32136175923644683
0060,cdot_cos,T,S-T,59,11,10891,-0.2740162220691505,0.15466444379539396,-0.27004927246189364,0.0011369860065208483,858.0,0.9712677840292759,0.5315700086510555,4.083066799601978,-0.0028868203651295494,0.233,0.9999999999999889,71.96768260562207,0.29306162946421144,59,2026-10-07 19:01:26.975244,25.1,0.9655496063702688,0.11794352815453078,0.035662094694308394
0060,cdot_cos,P,T-P,60,12,11369,0.028399384205993933,-0.0027714201228371395,0.3024156062751444,0.9994950932260592,820.0,1.0179202000855134,0.5328060227054139,4.1270978019640365,-0.016663294513585915,0.478,0.9999999999999886,-11.145887945107573,0.2980288224430311,60,2026-10-07 19:01:27.453243,25.1,0.4374662470680318,0.06568404829232871,0.09759919677037132
0060,cdot_cos,Q,P-Q,61,12,11460,-0.027250479810470313,-0.021617742357837644,-0.05564986401646425,0.19832255198101667,820.0,1.0340617341967422,0.5330512286122037,4.16326330068942,-0.0059470428722831915,0.091,0.9999999999999868,43.7030729871037,0.3029959697360073,61,2026-10-07 19:01:27.544243,25.1,0.16497748704232687,0.34868394963188637,0.17737949572778858
0060,cdot_cos,R,Q-R,62,12,11490,0.17647665465263818,0.22860263121736774,0.2037271344631085,0.9940212738096421,820.0,1.0813806789185167,0.5342799930995212,4.206924990834037,-0.017966960243447808,0.03,0.9999999999999867,-9.78211650420047,0.3079631096949634,62,2026-10-07 19:01:27.574244,25.1,0.5122199445185125,0.9405258190596677,1.5772981573924854
0060,cdot_cos,S,R-S,63,12,11518,-0.003414004403586296,-0.0073674580879657834,-0.17989065905622448,0.010822403085649517,820.0,1.0904932833403223,0.5342933690067064,4.240822263331241,-0.0035523347636044066,0.028,0.9999999999999855,1077.655913745789,0.31293024964337246,63,2026-10-07 19:01:27.602243,25.1,0.01728719620363585,0.3176270952191846,0.3254501579216251
0060,cdot_cos,T,S-T,64,12,11751,-0.266438549597206,0.11018335286377168,-0.2630245451936197,0.001355922929969125,820.0,1.099167796250791,0.5342950448509249,4.27436047795343,-0.003409247615340422,0.233,0.9999999999999843,85.38212960596267,0.31789741705199864,64,2026-10-07 19:01:27.835244,25.1,0.95889825856331,0.12287900937506668,0.03722966914364306
0060,cdot_cos,P,T-P,65,13,12189,0.05275464989249761,-0.00023639938818234714,0.3191931994897036,0.9996685656464587,818.0,1.1477549017091033,0.5355303655920973,4.317583969155333,-0.019588226976997383,0.438,0.9999999999999842,-13.096986735851488,0.32286461363596725,65,2026-10-07 19:01:28.273243,25.1,0.4378170052918458,0.07251512329336515,0.11092946451669461
0060,cdot_cos,Q,P-Q,66,13,12290,-0.01567641353494116,-0.014986188473079028,-0.06843106342743877,0.15217801648086432,818.0,1.162691044255779,0.5357183787296624,4.352196833436672,-0.006191513763695908,0.101,0.9999999999999821,71.25413355043828,0.32783176344033227,66,2026-10-07 19:01:28.374244,25.1,0.11489670345368581,0.3167718535612058,0.14788259947203597
0060,cdot_cos,R,Q-R,67,13,12319,0.16998924068792895,0.2574027452981447,0.18566565422287012,0.9906242424738991,818.0,1.211742816128467,0.5369420262257584,4.395060057501724,-0.02088921319653838,0.029,0.9999999999999815,-12.011383572258904,0.3327989030110679,67,2026-10-07 19:01:28.403244,25.1,0.4947996493980644,1.0100701664600533,1.6914404094030324
0060,cdot_cos,S,R-S,68,13,12341,-0.0032396466908975936,-0.0076342588125728125,-0.17322888737882655,0.01276696584852006,818.0,1.221275113910462,0.536957793476646,4.427867553281913,-0.004159567561490357,0.022,0.9999999999999805,1061.0375742937695,0.33776604176869707,68,2026-10-07 19:01:28.425244,25.1,0.017917676824680526,0.42028733435259513,0.4332862628179618
0060,cdot_cos,T,S-T,69,13,12588,-0.3239663500318115,0.1062162184186042,-0.3207267033409139,0.00031892352156104965,818.0,1.230235458839981,0.5369581873474497,4.460309847839809,-0.003939705151792877,0.247,0.9999999999999788,558.2094626061931,0.3427332155687152,69,2026-10-07 19:01:28.672243,25.1,0.9457218143599888,0.12023666915567717,0.03627670011951023
0060,cdot_cos,P,T-P,70,14,13007,0.0420893275085962,-0.0032099550503278274,0.3660556775404077,0.999897751022232,740.0,1.2806720284733666,0.5381928326292855,4.502844465057595,-0.02270488845185584,0.419,0.9999999999999782,-15.198845835429553,0.3477004178895253,70,2026-10-07 19:01:29.091244,25.1,0.437585976793198,0.07846552254336218,0.12037367454268616
0060,cdot_cos,Q,P-Q,71,14,13098,-0.02758742770477206,-0.025363746241112595,-0.06967675521336826,0.14818769092072698,740.0,1.2959895667313186,0.5383757710879673,4.536435073825588,-0.007075628168046184,0.091,0.9999999999999766,85.43452479282433,0.35266756738444144,71,2026-10-07 19:01:29.182244,25.1,0.10982285666689258,0.36414788511381097,0.16832459624123092
0060,cdot_cos,R,Q-R,72,14,13128,0.17120316224994392,0.2741181139680002,0.198790589954716,0.993237947606657,740.0,1.3469469435640802,0.539601659226874,4.578672105279676,-0.024134892055874345,0.03,0.9999999999999761,-13.915840561964107,0.3576347068939764,72,2026-10-07 19:01:29.212243,25.1,0.493205220512928,1.013699496370187,1.6985792277587195
0060,cdot_cos,S,R-S,73,14,13156,-0.001934081705718177,-0.005981707945403558,-0.1731372439556621,0.012795990647485352,740.0,1.3568115365135298,0.5396174493814522,4.6104937059060855,-0.004779653861438816,0.028,0.9999999999999746,1225.7788927005572,0.36260184634053033,73,2026-10-07 19:01:29.240243,25.1,0.017430979025629692,0.34212797363333425,0.3523068910517727
0060,cdot_cos,T,S-T,74,14,13387,-0.28745832059704424,0.037736270099602016,-0.28552423889132605,0.0007713024363931367,740.0,1.366106110087547,0.539618401160218,4.641973204792377,-0.004535375263133661,0.231,0.9999999999999728,256.65481000682445,0.3675690221487226,74,2026-10-07 19:01:29.471244,25.1,0.9475640696141538,0.1331156993660568,0.040236249238169194
0060,cdot_cos,P,T-P,75,15,13747,0.04081225195635611,0.001633115913219934,0.32827057255340036,0.9997360775712145,798.0,1.418310989620648,0.5408518191569506,4.6839143631809295,-0.02603880763971845,0.36,0.9999999999999722,-17.434018664839254,0.37253622265311515,75,2026-10-07 19:01:29.831244,25.1,0.4378747065949347,0.09670473789315978,0.14501355425861434
0060,cdot_cos,Q,P-Q,76,15,13851,-0.018341810278206784,-0.0188426729662019,-0.0591540622345629,0.18470847729032563,798.0,1.435733521370622,0.5410796477445314,4.71702324587472,-0.008906663916765603,0.104,0.9999999999999698,75.19751539903876,0.3775033760417051,76,2026-10-07 19:01:29.935244,25.1,0.146091853073837,0.33642084018367446,0.16752434374974884
0060,cdot_cos,R,Q-R,77,15,13880,0.16360273195834132,0.27297837163230676,0.1819445422365481,0.9897157889648271,798.0,1.4882865243788523,0.5423001173796625,4.758664459406049,-0.02751331514794563,0.029,0.9999999999999698,-15.24548476716596,0.3824705152588599,77,2026-10-07 19:01:29.964243,25.1,0.5085061067931799,1.0841417143428895,1.8121725175251862
0060,cdot_cos,S,R-S,78,15,13902,-0.000948964758883299,-0.002604287802306391,-0.1645516967172246,0.015824457564580716,798.0,1.4986137408025095,0.5423196272517481,4.78963750381472,-0.005522886952441849,0.022,0.9999999999999676,1127.1436377995667,0.3874376533552536,78,2026-10-07 19:01:29.986243,25.1,0.01865407226001797,0.4525404059529342,0.46941892834805427
0060,cdot_cos,T,S-T,79,15,14146,-0.341032790094512,0.09071769734876038,-0.3400838253356287,0.0001962148648303209,798.0,1.5081983022407814,0.54231986916298,4.820244676535867,-0.00515989239593613,0.244,0.9999999999999658,1500.5279151444583,0.39240483685564775,79,2026-10-07 19:01:30.230243,25.1,0.9320682388779057,0.1301728302459484,0.03928098950111439
0060,cdot_cos,P,T-P,80,16,14545,0.03783782233069603,-0.0030029539850058642,0.37887061242520803,0.9999258726873592,782.0,1.5621380819625323,0.5435524055421481,4.861680773709463,-0.029639577728929643,0.399,0.9999999999999654,-19.861227422363164,0.39737205393474556,80,2026-10-07 19:01:30.629244,25.1,0.4378354687199313,0.08963363109998637,0.13518741784899974
0060,cdot_cos,Q,P-Q,81,16,14635,-0.023745137383706507,-0.02010771903967146,-0.061582959714402544,0.1757035131997316,782.0,1.5797259398585706,0.5437689279209861,4.893920643431876,-0.009888812027571926,0.09,0.9999999999999626,91.21812630803815,0.4023392059696963,81,2026-10-07 19:01:30.719244,25.1,0.13570335814918502,0.4001628274796825,0.19542064328931366
0060,cdot_cos,R,Q-R,82,16,14665,0.18142205948282178,0.25460131819979526,0.2051671968665283,0.9942322951103522,782.0,1.6341673909088752,0.544993823034043,4.935129263529496,-0.031297854125975216,0.03,0.9999999999999621,-17.478265583878414,0.4073063451808071,82,2026-10-07 19:01:30.749243,25.1,0.5045734541085052,1.080081994809216,1.8147150350101542
0060,cdot_cos,S,R-S,83,16,14692,-0.0037767804748564254,-0.008943070781101015,-0.18519883995767822,0.009485211612023469,782.0,1.6445308595471235,0.5450055062259579,4.965236763696911,-0.00607796451871614,0.027,0.9999999999999599,2158.6472079661085,0.41227348402612024,83,2026-10-07 19:01:30.776243,25.1,0.0157739204487569,0.37688892635110605,0.3838321717869752
0060,cdot_cos,T,S-T,84,16,14925,-0.24324097650927015,0.06871294924158287,-0.2394641960344137,0.002446734371866645,782.0,1.654519392931835,0.5450085199268806,4.995085893619077,-0.005894429199150327,0.233,0.9999999999999577,60.90030970992399,0.41724067054728825,84,2026-10-07 19:01:31.009243,25.1,0.9693426854798483,0.1406395681266879,0.04286924199446951
0060,cdot_cos,P,T-P,85,17,15327,0.018240221217754198,0.0010572898069244412,0.26148119772702433,0.998590596143703,777.0,1.71006889829416,0.5462382299911163,5.036067965394225,-0.033416938503923035,0.402,0.9999999999999571,-22.381299547938127,0.4222078982207851,85,2026-10-07 19:01:31.411244,25.1,0.43884476511254206,0.09144710782543117,0.13818284916001286
0060,cdot_cos,Q,P-Q,86,17,15432,-0.04424198834995656,-0.03840038329742,-0.06248220956771076,0.17245838141458694,777.0,1.7280428676234816,0.546450546423356,5.0675742500855145,-0.011048009525657416,0.105,0.9999999999999541,105.35656021672429,0.4271750553541214,86,2026-10-07 19:01:31.516243,25.1,0.13203315936477114,0.35207105715139986,0.17118066027925233
0060,cdot_cos,R,Q-R,87,17,15461,0.14604474180075638,0.2626679402494002,0.19028673015071296,0.9916424470154496,777.0,1.784003820295954,0.5476710440054171,5.108335788064896,-0.03512077476176099,0.029,0.9999999999999538,-19.723730378433704,0.4321421940461939,87,2026-10-07 19:01:31.545243,25.1,0.5038744844801394,1.1596227119912723,1.929688023188706
0060,cdot_cos,S,R-S,88,17,15486,-0.0032467232531515483,-0.011288492797522526,-0.14929146505390795,0.02303995725212468,777.0,1.7953009849189754,0.547699394458492,5.1378761079908815,-0.007225736388454981,0.025,0.9999999999999513,983.9362460835561,0.43710933204482927,88,2026-10-07 19:01:31.570244,25.1,0.02105722614341311,0.4432539026084914,0.4518865849208531
0060,cdot_cos,T,S-T,89,17,15724,-0.17049174419604196,0.017740594840906194,-0.1672450209428904,0.01480535887216883,777.0,1.8061665154263786,0.5477176121515196,5.167157984528969,-0.006992643071992215,0.238,0.9999999999999483,12.794886603372426,0.4420765254649984,89,2026-10-07 19:01:31.808243,25.1,0.9672153792777667,0.14226436273148937,0.04565348952690438
0060,cdot_cos,P,T-P,90,18,16104,0.020302680534448368,0.0015336885030201872,0.19079442473049033,0.9917473993876742,838.0,1.8630188215791643,0.5489376436248555,5.2076801311590994,-0.03725820010980172,0.38,0.9999999999999482,-24.807193666122636,0.44704375785927297,90,2026-10-07 19:01:32.188244,25.1,0.4438274785769607,0.10413513215717432,0.14961133198101498
0060,cdot_cos,Q,P-Q,91,18,16211,-0.02291770670488299,-0.022520390590531826,-0.04322038723933136,0.2525927480349513,838.0,1.8853092158658311,0.5492482857070164,5.239495139173505,-0.014921276506964388,0.107,0.9999999999999444,71.90565890962095,0.45201091758216566,91,2026-10-07 19:01:32.295244,25.1,0.22380396538348327,0.3725897825565938,0.20832144193146535
0060,cdot_cos,R,Q-R,92,18,16241,0.15587205874863802,0.24568988484372276,0.17878976545352102,0.9888777500560054,838.0,1.9427530350462754,0.5504640498207517,5.279866123805381,-0.03925185847980591,0.03,0.9999999999999443,-20.012584429794927,0.4569780563296503,92,2026-10-07 19:01:32.325243,25.1,0.5380207834387181,1.1477215406173746,1.914793972681476
0060,cdot_cos,S,R-S,93,18,16265,-0.0021921489360425804,-0.0059618228950760995,-0.1580642076846806,0.01857094232801773,838.0,1.9541725083028736,0.5504868759274864,5.30870361989577,-0.0079433201700145,0.024,0.999999999999941,1371.610966063771,0.46194519369735365,93,2026-10-07 19:01:32.349244,25.1,0.01941920642795138,0.4572509929443117,0.47581138569159165
0060,cdot_cos,T,S-T,94,18,16502,-0.2755713905646867,0.1067802362549504,-0.27337924162864413,0.0010459126505781614,838.0,1.9647010827076024,0.5504881614840266,5.337181184967374,-0.007364859843132643,0.237,0.9999999999999378,449.9687946690487,0.4669123931501926,94,2026-10-07 19:01:32.586244,25.1,0.9244620385496591,0.14630984261758037,0.044424364576914614
0060,cdot_cos,P,T-P,95,19,16942,0.04790943946238846,-0.0022877810502696,0.3234808300270752,0.9997023720989526,838.0,2.0235233737036067,0.5517166090258933,5.377468792935362,-0.041853788024252755,0.44,0.9999999999999369,-28.075214452147105,0.4718796542865161,95,2026-10-07 19:01:33.026243,25.1,0.43865870157908965,0.08846284783078917,0.13368702499091895
0060,cdot_cos,Q,P-Q,96,19,17038,-0.014518952556848526,-0.012607980259337834,-0.062428392019236986,0.17265125107347715,838.0,2.042548388798697,0.5519287017075828,5.407775296114911,-0.013799860396056567,0.096,0.999999999999933,132.27202091424348,0.47684681263202205,96,2026-10-07 19:01:33.122243,25.1,0.13095338329639944,0.40714825388488374,0.19817724057385558
0060,cdot_cos,R,Q-R,97,19,17068,0.17829091813187323,0.24235476477539444,0.19280987068872174,0.9921513004006891,838.0,2.1016958384495044,0.5531471371942355,5.447868029420138,-0.043704998846137696,0.03,0.9999999999999324,-24.543883346862586,0.4818139509730077,97,2026-10-07 19:01:33.152243,25.1,0.5044685199758108,1.17429652889857,1.971581655026918
0060,cdot_cos,S,R-S,98,19,17091,-0.003737710577686165,-0.007832422828090628,-0.18202862870955938,0.010262750896236867,838.0,2.113006180532611,0.5531597373048918,5.476002551747399,-0.00849943425153809,0.023,0.9999999999999286,2794.0678899531417,0.4867810874410485,98,2026-10-07 19:01:33.175244,25.1,0.015889340207660935,0.4798523339294956,0.4917540036133331
0060,cdot_cos,T,S-T,99,19,17342,-0.34425571912615605,0.07276412318600223,-0.34051800854846986,0.00019408853792738057,838.0,2.123769045810261,0.5531599755967813,5.503872798034719,-0.00813037705659073,0.251,0.9999999999999246,1548.7610410844684,0.49174829759850464,99,2026-10-07 19:01:33.426244,25.1,0.9556224375930769,0.1416914388386989,0.04287994134521966
0060,cdot_cos,P,T-P,100,20,17780,0.0269907997064327,-0.0030369788548977057,0.37124651883258875,0.9999102405627911,780.0,2.184135282829638,0.5543872871504526,5.543873438307239,-0.046342080124617845,0.438,0.9999999999999242,-31.134476778714905,0.49671557079878803,100,2026-10-07 19:01:33.864243,25.1,0.4384290174092896,0.09300497228120941,0.13782245894834866
0060,cdot_cos,Q,P-Q,101,20,17870,-0.02710966535982513,-0.02281805288494716,-0.05410046506625783,0.2045782924857178,780.0,2.2052414015286006,0.5546383097833345,5.574046655130068,-0.016507392828361535,0.09,0.9999999999999195,118.8525789636364,0.5016827288094262,101,2026-10-07 19:01:33.954243,25.1,0.16408788976229668,0.4546634856018016,0.23451242998847477
0060,cdot_cos,R,Q-R,102,20,17901,0.1737035144616531,0.24419946727355857,0.20081317982147823,0.9935705164017443,780.0,2.265974710237962,0.5558570467293038,5.61388162582968,-0.04835963654615258,0.031,0.9999999999999181,-26.135454269385363,0.5066498670771418,102,2026-10-07 19:01:33.985244,25.1,0.5175477451931401,1.1677876601259727,1.9591389906245664
0060,cdot_cos,S,R-S,103,20,17928,-0.003107211197266289,-0.007760887619569675,-0.1768107256589194,0.011682070412390175,780.0,2.277644236456411,0.5558713722639118,5.641478920384321,-0.009442407622587913,0.027,0.9999999999999142,2716.633618812011,0.5116170043293469,103,2026-10-07 19:01:34.012243,25.1,0.01621957174802158,0.42173709916370217,0.4322046747573609
0060,cdot_cos,T,S-T,104,20,18160,-0.2629073990587406,0.07050347044008876,-0.2598001878614743,0.001470054430474058,780.0,2.288748513592802,0.5558731749613802,5.6688169728521745,-0.009030063806492598,0.232,0.9999999999999095,228.7371138645091,0.5165842147927593,104,2026-10-07 19:01:34.244244,25.1,0.9553634410548018,0.1572037836817463,0.04786326351892746
0060,cdot_cos,P,T-P,105,21,18560,0.02478663465173383,0.0015435950723605703,0.2876940337104744,0.9992695508668891,818.0,2.350586792084741,0.5570982158768222,5.708558664655159,-0.051061889637893626,0.4,0.9999999999999092,-34.3105485715449,0.5215514877639926,105,2026-10-07 19:01:34.644243,25.1,0.439044488153149,0.10714100839461949,0.1545956962298478
0060,cdot_cos,Q,P-Q,106,21,18661,-0.01930510735523539,-0.01843726495435342,-0.04409174200696922,0.24848611356282316,818.0,2.3744613203084977,0.557402736840085,5.73881315495923,-0.020075362213844677,0.101,0.9999999999999036,101.75498951546518,0.5265186517286082,106,2026-10-07 19:01:34.745243,25.1,0.213629888615084,0.42546283034877563,0.23638146756194517
0060,cdot_cos,R,Q-R,107,21,18684,0.16603982254438085,0.252086721152677,0.18534492989961623,0.9905491775108813,818.0,2.436530283815194,0.5586162287340618,5.778371951551477,-0.05311088432069329,0.023,0.999999999999903,-27.22352103942476,0.5314857866780314,107,2026-10-07 19:01:34.768243,25.1,0.5368640434464392,1.6126518388839757,2.698650587247662
0060,cdot_cos,S,R-S,108,21,18714,-0.001759104889540139,-0.00426130687079869,-0.167798927433921,0.014603928743808081,818.0,2.4486433048971605,0.558634114366549,5.805496764653141,-0.010524542632002257,0.03,0.9999999999998974,2381.0363832110543,0.5364529247640035,108,2026-10-07 19:01:34.798244,25.1,0.017485486698368084,0.39049083233461496,0.4037673693988886
0060,cdot_cos,T,S-T,109,21,18959,-0.36130507202688295,0.018002753610523444,-0.3595459671373428,0.00012039600840712107,818.0,2.4599597337552708,0.5586342618165648,5.832313672935957,-0.009879569893434696,0.245,0.9999999999998928,4374.178834699543,0.541420147398393,109,2026-10-07 19:01:35.043243,25.1,0.9368018578203671,0.15238498268249656,0.0461895055433071
0060,cdot_cos,P,T-P,110,22,19378,0.03963344940656423,-0.002745033764875743,0.40093852143344716,0.9999573975796813,839.0,2.523311946411584,0.5598585590350595,5.871846899137224,-0.0561166149446333,0.419,0.9999999999998925,-37.766193006668566,0.5463874412092339,110,2026-10-07 19:01:35.462244,25.1,0.4386972557786941,0.10136439887950538,0.15119859822509088
0060,cdot_cos,Q,P-Q,111,22,19468,-0.017133969223348307,-0.01376391783040528,-0.05676741862991254,0.19390047429033813,839.0,2.5449031000162963,0.5600958771654945,5.900977099311436,-0.01944893496824543,0.09,0.9999999999998859,154.50854896416016,0.5513546028254035,111,2026-10-07 19:01:35.552243,25.1,0.15177881260984552,0.4737760480537522,0.2399017067190269
0060,cdot_cos,R,Q-R,112,22,19498,0.18629731028363497,0.22663004571945028,0.20343127950698328,0.9939769791789242,839.0,2.6085916350612592,0.5613119890927168,5.940368606478122,-0.058299886406660756,0.03,0.9999999999998848,-31.946855029332486,0.5563217400762333,112,2026-10-07 19:01:35.582243,25.1,0.5135548665360876,1.2626503616498383,2.1229511681654323
0060,cdot_cos,S,R-S,113,22,19520,-0.00312614040106167,-0.005886385309735592,-0.18942345068469665,0.008539060073291381,839.0,2.6206621217152866,0.5613224333018155,5.966940198314771,-0.011211581154591088,0.022,0.9999999999998789,4508.556349950495,0.561288874334478,113,2026-10-07 19:01:35.604243,25.1,0.01499602569107294,0.5380019776250214,0.5486584842739692
0060,cdot_cos,T,S-T,114,22,19758,-0.2993144404124333,0.1577123404793872,-0.29618830001137164,0.0005902780961757714,839.0,2.63226372207676,0.561323155274804,5.9932921385502835,-0.010824837442652509,0.238,0.9999999999998737,535.6761514578741,0.5662561015353085,114,2026-10-07 19:01:35.842243,25.1,0.9649032533073686,0.1604538894855097,0.04874622000619168
0060,cdot_cos,P,T-P,115,23,20217,0.034654595526074305,-8.244325411314885e-05,0.33396903593850763,0.9997712433046438,820.0,2.697038173110389,0.5625456069951117,6.032630488698737,-0.061278639018991235,0.459,0.9999999999998724,-41.2726332976494,0.5712234270125411,115,2026-10-07 19:01:36.301243,25.1,0.4389584325219867,0.09558114879686298,0.1411208083521329
0060,cdot_cos,Q,P-Q,116,23,20314,-0.017982005459201346,-0.016476481552161786,-0.05263660098527565,0.21062225789662717,820.0,2.7200072166722804,0.562803045119086,6.061575324975853,-0.02208429226137871,0.097,0.9999999999998653,152.2476397533461,0.5761905935007031,116,2026-10-07 19:01:36.398243,25.1,0.16952391375653003,0.45305776035362955,0.23679426352465177
0060,cdot_cos,R,Q-R,117,23,20344,0.16776283100121045,0.24374956407493714,0.1857448364604118,0.9906426838528432,820.0,2.7849313786189933,0.5640134260465196,6.100739020215591,-0.0633965923577119,0.03,0.9999999999998639,-34.131651581727475,0.58115773020596,117,2026-10-07 19:01:36.428244,25.1,0.5211858457232915,1.291889925592275,2.164138731557097
0060,cdot_cos,S,R-S,118,23,20367,-0.004067755021772511,-0.009408785662326748,-0.17183058602298296,0.013216981325413579,820.0,2.797520612207817,0.56402956961512,6.126930444827016,-0.012466017658748012,0.023,0.9999999999998572,3154.852310525449,0.5861248640984861,118,2026-10-07 19:01:36.451244,25.1,0.01681384023584016,0.5329355946412832,0.5473579821227643
0060,cdot_cos,T,S-T,119,23,20617,-0.25603707049866936,0.09012427729832315,-0.2519693154768968,0.001788782241794377,820.0,2.8094464159724923,0.5640317544703689,6.152861073492352,-0.011860926567788548,0.25,0.9999999999998515,276.9479082205036,0.5910921044693651,119,2026-10-07 19:01:36.701244,25.1,0.9502639419969291,0.156168587927632,0.04770321505870179
0060,cdot_cos,P,T-P,120,24,21037,0.0382116843737238,-0.0029095311450696624,0.29424875487239316,0.9993802929220416,801.0,2.875604906171633,0.5652520269455887,6.19202680983707,-0.0666721091098921,0.42,0.9999999999998496,-44.91716698947045,0.5960594275663603,120,2026-10-07 19:01:37.121243,25.1,0.4395074439909972,0.1049354418048014,0.15752021475985847
0060,cdot_cos,Q,P-Q,121,24,21126,-0.02124384415020973,-0.01802771743494879,-0.05945552852393353,0.18357170028359482,801.0,2.8975921870885255,0.5654760878528222,6.220238152271576,-0.02249885242201862,0.089,0.9999999999998413,197.14843268863086,0.6010265923131932,121,2026-10-07 19:01:37.210243,25.1,0.14038649369735895,0.4970300608430304,0.24704810018980466
0060,cdot_cos,R,Q-R,122,24,21156,0.18239568501864054,0.24042588498128795,0.20363952916885025,0.9940081916250444,801.0,2.9640762570016923,0.5666888710342961,6.259284366747171,-0.0690284142228641,0.03,0.9999999999998401,-38.36593589985181,0.6059937285810806,122,2026-10-07 19:01:37.240243,25.1,0.5096332673076337,1.3189719035043328,2.216135663772227
0060,cdot_cos,S,R-S,123,24,21185,-0.002141324677587255,-0.004844122178102683,-0.1845370096962278,0.009642563357267991,801.0,2.9767305012987855,0.5667006319781229,6.285015251446508,-0.01331582059412997,0.029,0.9999999999998318,4737.0852585552675,0.6109608648225607,123,2026-10-07 19:01:37.269243,25.1,0.015238350936693942,0.427273531379517,0.4363532516239022
0060,cdot_cos,T,S-T,124,24,21416,-0.2800849522962131,0.10765303297697922,-0.27794362761862584,0.0009328013548517195,801.0,2.9888581218217043,0.5667017697031752,6.310525042192716,-0.012814891351230201,0.231,0.9999999999998253,440.2902457810341,0.6159281038778351,124,2026-10-07 19:01:37.500243,25.1,0.9616645201866366,0.17245056838447875,0.05250052174423733
0060,cdot_cos,P,T-P,125,25,21838,0.0408125363972047,0.0010912852276986165,0.32089748869341783,0.9996824402525483,840.0,3.0564026638924147,0.5679206621074199,6.349547291470483,-0.07227714536423159,0.422,0.9999999999998239,-48.78384163026231,0.6208954433266825,125,2026-10-07 19:01:37.922244,25.1,0.439245025689794,0.10667798713250422,0.16005815656566438
0060,cdot_cos,Q,P-Q,126,25,21941,-0.018382285051999788,-0.017100485294470242,-0.05919482144920449,0.18455446365155362,840.0,3.078894342961538,0.5681455961487711,6.377419862513566,-0.024422999287963237,0.103,0.9999999999998149,212.74746049459657,0.6258626174451951,126,2026-10-07 19:01:38.025243,25.1,0.14094456986018544,0.43756277422611073,0.21836581620507955
0060,cdot_cos,R,Q-R,127,25,21969,0.16732009081767085,0.24367487045941913,0.18570237586967064,0.9906327993414317,840.0,3.1465405953829935,0.5693524918955342,6.416278109757637,-0.07448367961916291,0.028,0.9999999999998129,-41.47887708235424,0.6308297521614336,127,2026-10-07 19:01:38.053244,25.1,0.5106337512490753,1.4426817051178542,2.4159375864805575
0060,cdot_cos,S,R-S,128,25,21991,-0.002520203005036764,-0.005571369471720075,-0.16984029382270763,0.01388462326332431,840.0,3.1596845184481377,0.5693694018221129,6.441680826509703,-0.014660137004662208,0.022,0.9999999999998048,3537.776603336431,0.6357968840724102,128,2026-10-07 19:01:38.075244,25.1,0.016895724993064493,0.5796060037708071,0.5974510484156467
0060,cdot_cos,T,S-T,129,25,22234,-0.2911478351717708,0.122735368654304,-0.28862763216673404,0.0007135433504508116,840.0,3.172043259548909,0.5693702708341668,6.466804552589577,-0.013840118489091804,0.243,0.9999999999997967,943.6215664861821,0.6407641376431726,129,2026-10-07 19:01:38.318244,25.1,0.9424717010812118,0.1671785949978339,0.050859016875602
0060,cdot_cos,P,T-P,130,26,22678,0.036163340704526,0.0005662077777276198,0.32731117587629677,0.9997296466914959,859.0,3.240933315617085,0.5705874021314171,6.505698786361151,-0.07808321182290481,0.444,0.9999999999997953,-52.78238549854711,0.645731505311864,130,2026-10-07 19:01:38.762244,25.1,0.4392213955198927,0.10479280552927112,0.15515778393733332
0060,cdot_cos,Q,P-Q,131,26,22782,-0.01753500454396168,-0.015675753182237646,-0.05369834524848768,0.20622561783781304,859.0,3.2650992708589017,0.5708383680044656,6.533545319093131,-0.027784255979085796,0.104,0.999999999999785,200.4214964880732,0.6506986824985087,131,2026-10-07 19:01:38.866244,25.1,0.1635984692634308,0.44786746232523933,0.232364954248238
0060,cdot_cos,R,Q-R,132,26,22809,0.16957113844345723,0.23426328668035676,0.1871061429874189,0.9909541680277579,859.0,3.3340897477807347,0.572043797646626,6.57228445527672,-0.08039940512734708,0.027,0.999999999999783,-43.648461351889814,0.6556658159604293,132,2026-10-07 19:01:38.893243,25.1,0.519742324527888,1.5250536630759486,2.5552028489567786
0060,cdot_cos,S,R-S,133,26,22830,-0.0022585013863140237,-0.004641538948439451,-0.17182963982977126,0.013217291076268572,859.0,3.347452168665003,0.5720598698544979,6.597317850088372,-0.015766339817339207,0.021,0.999999999999774,4021.4179548645466,0.6606329463712396,133,2026-10-07 19:01:38.914243,25.1,0.016582062600788566,0.6198106959029474,0.6363057563937238
0060,cdot_cos,T,S-T,134,26,23074,-0.2519803231670594,0.13197121393599212,-0.24972182178074534,0.0018923952678715646,859.0,3.3601217970086585,0.5720621709921111,6.622099983241605,-0.015007135289703578,0.244,0.9999999999997646,329.92573902081165,0.6656002092326634,134,2026-10-07 19:01:39.158243,25.1,0.9506687730513889,0.16978771140960566,0.05192470632645735
0060,cdot_cos,P,T-P,135,27,23537,0.03690376118926416,0.0013124842351846914,0.2888840843563235,0.9992910316955993,815.0,3.4303085718328905,0.5732768631493397,6.660876892903011,-0.08410226741575023,0.463,0.9999999999997632,-56.882833823256775,0.6705676059168355,135,2026-10-07 19:01:39.621243,25.1,0.4397447334588167,0.10153826564694637,0.15159130631583578
0060,cdot_cos,Q,P-Q,136,27,23641,-0.020199934755963083,-0.020115723494463406,-0.05710369594522724,0.1925845962490035,815.0,3.454146230997731,0.5735108590304844,6.6882302588289955,-0.028955249175689503,0.104,0.9999999999997515,235.67516646140717,0.6755347856647022,136,2026-10-07 19:01:39.725244,25.1,0.14888809338338116,0.4515400765123032,0.22920826120038823
0060,cdot_cos,R,Q-R,137,27,23671,0.15358410831542918,0.24453303116719974,0.17378404307139225,0.9874074758561195,815.0,3.5242289077474496,0.5747100687671431,6.726810714552266,-0.08622702639673749,0.03,0.9999999999997493,-47.75793213672389,0.6805019201853771,137,2026-10-07 19:01:39.755244,25.1,0.5146863867767919,1.4017719199849104,2.336089224990623
0060,cdot_cos,S,R-S,138,27,23699,-0.0008504346154210636,-0.002524910133736707,-0.15443454293085024,0.02030633504317589,815.0,3.5382525461968255,0.5747347217069856,6.751606084411157,-0.017461836883734528,0.028,0.9999999999997389,2789.33019560709,0.6854690539745302,138,2026-10-07 19:01:39.783243,25.1,0.01948661904638766,0.4813622498745189,0.5008442303348546
0060,cdot_cos,T,S-T,139,27,23933,-0.24238445819727214,0.0715789248801941,-0.24153402358185108,0.002323153270351468,815.0,3.5511851937404226,0.574737542111388,6.776057517584804,-0.016164801979735206,0.234,0.9999999999997283,459.8755068295461,0.6904363193358419,139,2026-10-07 19:01:40.017244,25.1,0.9228964697143978,0.18038327591402428,0.05526772454528688
0060,cdot_cos,P,T-P,140,28,24352,0.05155027735583926,-0.0025620061350864268,0.2939347355531114,0.9993753922250505,840.0,3.622671919324589,0.5759503717809777,6.814738602018658,-0.09034921518760147,0.419,0.9999999999997264,-61.16639052288092,0.6954037063705872,140,2026-10-07 19:01:40.436243,25.1,0.4399539096685509,0.11202793726682259,0.17061271022474045
0060,cdot_cos,Q,P-Q,141,28,24446,-0.014313781656084863,-0.01197869682895345,-0.06586405901192412,0.1606785636576008,840.0,3.64506460517002,0.5761452843641951,6.841348233949504,-0.02866810037294877,0.094,0.9999999999997137,316.45527341797947,0.7003708823405533,141,2026-10-07 19:01:40.530244,25.1,0.11630267836732873,0.500517399829429,0.23822006218543704
0060,cdot_cos,R,Q-R,142,28,24476,0.18564723401343217,0.24165796265467837,0.19996101566951702,0.9934324257380476,840.0,3.7167691904925215,0.5773498483228218,6.879919524676813,-0.09291750214456573,0.03,0.9999999999997115,-53.33830662247944,0.7053380163901555,142,2026-10-07 19:01:40.560243,25.1,0.5008407138701105,1.4216569116560107,2.390152844083386
0060,cdot_cos,S,R-S,143,28,24500,-0.0019647481588698115,-0.0040083774970008715,-0.187611982172302,0.008932726469230443,840.0,3.7303640198693806,0.5773606753484521,6.904231561795674,-0.017820690557532014,0.024,0.9999999999997001,6936.05189003452,0.7103051469012946,143,2026-10-07 19:01:40.584243,25.1,0.014786751668535348,0.5551687249371421,0.5664512240357947
0060,cdot_cos,T,S-T,144,28,24732,-0.30096787768625727,0.157938272321638,-0.29900312952738745,0.0005500349493897965,840.0,3.7434172892895043,0.5773613420229345,6.928338168987995,-0.017172010735969048,0.232,0.9999999999996887,973.0083251886041,0.7152724197328801,144,2026-10-07 19:01:40.816243,25.1,0.9629291766393636,0.18497809504184357,0.056264092328119596
0060,cdot_cos,P,T-P,145,29,25192,0.03987386300666654,0.0016646224032587902,0.34084174069292383,0.9998074818702316,898.0,3.816193855968796,0.5785726989449471,6.966940015620466,-0.09676451538744912,0.46,0.9999999999996864,-65.70524607994429,0.7202398525889876,145,2026-10-07 19:01:41.276243,25.1,0.4393151941053917,0.1054582667202626,0.15820992756367752
0060,cdot_cos,Q,P-Q,146,29,25298,-0.0191839136567543,-0.016676997398257724,-0.05905777666342084,0.18507269874797544,898.0,3.840438894672146,0.5787968279676424,6.993630982899402,-0.03264547504650958,0.106,0.999999999999673,286.0809348555732,0.7252070393416808,146,2026-10-07 19:01:41.382244,25.1,0.1402818138250015,0.45752864226705875,0.22872678022028237
0060,cdot_cos,R,Q-R,147,29,25326,0.16389077757226667,0.21573349400104097,0.18307469122902098,0.9900005434925465,898.0,3.9131899281294125,0.5799951971166556,7.0320703785377034,-0.09912137687535047,0.028,0.9999999999996705,-55.47197362647597,0.7301741712477613,147,2026-10-07 19:01:41.410244,25.1,0.511375299218205,1.5521783403083125,2.598251194902376
0060,cdot_cos,S,R-S,148,29,25348,-0.003867881301782453,-0.007421129693005882,-0.16775865887404912,0.014618481104002613,898.0,3.9273608817294114,0.5800128853686377,7.056163627005868,-0.019523775158289,0.022,0.9999999999996573,4500.026446792651,0.7351412993401052,148,2026-10-07 19:01:41.432243,25.1,0.016958984814428545,0.6337619527882427,0.6441342545454083
0060,cdot_cos,T,S-T,149,29,25591,-0.19727730173054128,0.12160099807885962,-0.19340942042875883,0.007732377620133475,898.0,3.941075454052095,0.5800222414041855,7.080076083459426,-0.018962089163091035,0.243,0.999999999999645,60.03461533803204,0.7401085891602591,149,2026-10-07 19:01:41.675244,25.1,0.9708128925890397,0.1802019425029964,0.056438569229151005
0060,cdot_cos,P,T-P,150,30,26090,0.03582593520660564,-0.0018713378592916307,0.2331032369371469,0.9971309216957112,879.0,4.014939025785868,0.5812282674171892,7.118565818088415,-0.10317974539110178,0.499,0.9999999999996424,-69.83071287015929,0.7450760708522736,150,2026-10-07 19:01:42.174243,25.1,0.44209841788608006,0.09985244400502372,0.1480231898472396
0060,cdot_cos,Q,P-Q,151,30,26183,-0.018513125730661755,-0.014316542476954058,-0.0543390609372674,0.2036054900276717,879.0,4.040728193169109,0.581474408662036,7.145279770359234,-0.03647001785393107,0.093,0.999999999999627,271.02214250478346,0.7500432505323561,151,2026-10-07 19:01:42.267244,25.1,0.16054736068969022,0.5374281757933923,0.27730287508861406
0060,cdot_cos,R,Q-R,152,30,26212,0.17928615478497428,0.20970993828962148,0.19779928051563603,0.9930687652584576,879.0,4.114900666483439,0.5826743585172094,7.183694588587921,-0.10610740238712084,0.029,0.9999999999996246,-58.03357884745058,0.7550103822499307,152,2026-10-07 19:01:42.296243,25.1,0.518771644694045,1.522261410305257,2.557671493597581
0060,cdot_cos,S,R-S,153,30,26238,-0.00440405656423371,-0.007795937913677472,-0.183690211349208,0.009847666257051831,879.0,4.129019354966814,0.5826862528223622,7.207433543431378,-0.020415975219587563,0.026,0.9999999999996099,7204.407997497073,0.7599775122228861,153,2026-10-07 19:01:42.322243,25.1,0.015036521435126722,0.5362145293262246,0.5430264801298097
0060,cdot_cos,T,S-T,154,30,26469,-0.2173259787598002,0.14392446536757994,-0.2129219221955665,0.004752407329858089,879.0,4.142783822008402,0.5826919928873245,7.23102011287166,-0.019971004168412954,0.231,0.9999999999995959,77.5202117212299,0.7649448023486133,154,2026-10-07 19:01:42.553244,25.1,0.9779655298164472,0.19241642636555176,0.05958643740947456
0060,cdot_cos,P,T-P,155,31,26969,0.02591265974460018,0.001967289563273417,0.2432386385044004,0.9977739317719049,781.0,4.217915743947699,0.5838966282765766,7.269457131046448,-0.11009023729385843,0.5,0.9999999999995935,-74.81038157230076,0.7699123073419976,155,2026-10-07 19:01:43.053244,25.1,0.4410512351150515,0.10346189678888074,0.1502638438785926
0060,cdot_cos,Q,P-Q,156,31,27072,-0.02052177936555726,-0.021485378217156,-0.04643443911015744,0.23766854224954187,781.0,4.246245718797283,0.5841834238060861,7.296451564110329,-0.042017060165689527,0.103,0.9999999999995767,237.35787389919702,0.7748794974100051,156,2026-10-07 19:01:43.156243,25.1,0.19787260922421285,0.501526144927864,0.27504829951052856
0060,cdot_cos,R,Q-R,157,31,27094,0.15037582782280945,0.25841492351298295,0.17089760718836672,0.9864740898020005,781.0,4.321230129802839,0.5853731945054741,7.33470807766443,-0.11247566358643023,0.022,0.9999999999995736,-59.22032157707805,0.7798466224621453,157,2026-10-07 19:01:43.178244,25.1,0.5344943016685119,2.0473535251678783,3.4083823184343425
0060,cdot_cos,S,R-S,158,31,27124,-0.0012288306176238878,-0.0036074874258785784,-0.15160465844043333,0.021768616099105537,781.0,4.33632927390467,0.5853994381141056,7.358359810981836,-0.022886244557489506,0.03,0.9999999999995575,3413.761433766547,0.7848137547381221,158,2026-10-07 19:01:43.208243,25.1,0.019949462548636637,0.4808099748893439,0.5033048033943703
0060,cdot_cos,T,S-T,159,31,27368,-0.28654858847995207,0.04555153757794868,-0.28531975786232816,0.0007752682253634321,781.0,4.350078728296199,0.5854003727459284,7.381620811505418,-0.0209099085834768,0.244,0.9999999999995419,2114.5609701589347,0.7897810652414542,159,2026-10-07 19:01:43.452243,25.1,0.9098125224681756,0.18488283498120356,0.056350222916104614
0060,cdot_cos,P,T-P,160,32,27750,0.0457223742133734,0.0023673498224729634,0.33227096269332546,0.9997612849333882,836.0,4.426552097375497,0.586605130462285,7.420036278460525,-0.11740686055034726,0.382,0.999999999999539,-80.0965627003336,0.7947484942510726,160,2026-10-07 19:01:43.834244,25.1,0.43959468050449274,0.1318845255587461,0.20019206565261205
0060,cdot_cos,Q,P-Q,161,32,27856,-0.018535382411149316,-0.018016493683031726,-0.06425775662452271,0.1661905757965753,836.0,4.450838505823081,0.5868052976071702,7.4457277697011754,-0.037708729780462524,0.106,0.9999999999995213,398.157903564144,0.7997156902949698,161,2026-10-07 19:01:43.940243,25.1,0.12081203524168557,0.47473383167881256,0.22911706082626632
0060,cdot_cos,R,Q-R,162,32,27885,0.16247547153315045,0.25046652763569566,0.18101085394429978,0.9894744929623682,836.0,4.527195669691405,0.5879964677213917,7.483976501673916,-0.11979844372510587,0.029,0.9999999999995176,-68.91518932901623,0.8046828206411057,162,2026-10-07 19:01:43.969243,25.1,0.5039733499304356,1.5746032550999143,2.633005650631863
0060,cdot_cos,S,R-S,163,32,27909,-0.00147582538624967,-0.003886939986195652,-0.1639512969194001,0.016060879541787636,836.0,4.542165494618876,0.588015794010281,7.507286393544358,-0.023725070646607956,0.024,0.999999999999501,4971.123717987825,0.8096499472045556,163,2026-10-07 19:01:43.993243,25.1,0.01743204352741348,0.6031282340215697,0.6237427053112921
0060,cdot_cos,T,S-T,164,32,28147,-0.27360732455292686,0.1064537895108952,-0.27213149916667717,0.001079151318349054,836.0,4.556145824924441,0.5880170925589568,7.530296288969684,-0.022227566434305703,0.238,0.9999999999994837,1153.213768723951,0.8146172630345205,164,2026-10-07 19:01:44.231244,25.1,0.9348478526104372,0.1924951111054398,0.05874088363682495
0060,cdot_cos,P,T-P,165,33,28586,0.03624275188650481,-0.0031163545944238673,0.3098500764394317,0.9995810068554268,860.0,4.633793167505066,0.5892193654016032,7.568663188956969,-0.12458641019057196,0.439,0.999999999999481,-85.13778247785878,0.8195847609396473,165,2026-10-07 19:01:44.670244,25.1,0.4397322951816965,0.11786006574179002,0.17687321772351935
0060,cdot_cos,Q,P-Q,166,33,28675,-0.0229461785805393,-0.016672110423019398,-0.05918893046704411,0.18457671729876335,860.0,4.659626962645732,0.5894412539415993,7.594422919657601,-0.041910623384105256,0.089,0.9999999999994621,372.6005264081597,0.8245519447997067,166,2026-10-07 19:01:44.759244,25.1,0.1390851445085069,0.5826834617298157,0.2902673611310858
0060,cdot_cos,R,Q-R,167,33,28705,0.18808569861323496,0.21357817034479043,0.21103187719377425,0.9950178547870143,860.0,4.737510823692973,0.5906367837859884,7.632713012502534,-0.1276488311981515,0.03,0.9999999999994589,-71.7156566324434,0.8295190754244993,167,2026-10-07 19:01:44.789243,25.1,0.5108534675205064,1.5426579622561518,2.596128701574685
0060,cdot_cos,S,R-S,168,33,28727,-0.004145329376016663,-0.007067829122083873,-0.19223102798925162,0.007962650760145676,860.0,4.752186440381101,0.5906463467374715,7.6556552825497155,-0.02428954897955569,0.022,0.9999999999994399,10808.303524377308,0.834486199214065,168,2026-10-07 19:01:44.811244,25.1,0.014188854226063075,0.6586608633966803,0.6670734858240254
0060,cdot_cos,T,S-T,169,33,28967,-0.23772371610067458,0.14764443318250642,-0.23357838672465792,0.00283516060086948,860.0,4.766491901682427,0.5906497516804081,7.678450420034842,-0.023749154025547534,0.24,0.999999999999422,158.7089604935933,0.8394535274214134,169,2026-10-07 19:01:45.051244,25.1,0.9775026440119432,0.19395808953923122,0.05960608875552239
0060,cdot_cos,P,T-P,170,34,29446,0.047072731253483636,0.0029918467222346977,0.2847964473541582,0.9992144894330395,859.0,4.845286323359932,0.5918492346830841,7.71677367158722,-0.13197005096054082,0.479,0.9999999999994192,-90.22295163295703,0.8444210846132161,170,2026-10-07 19:01:45.530244,25.1,0.44041344908819113,0.1091273591651862,0.16449774880481338
0060,cdot_cos,Q,P-Q,171,34,29551,-0.014062719674848819,-0.013135324004595475,-0.061135450928332453,0.17733626236579186,859.0,4.871035911762675,0.5920619998984735,7.742219287115995,-0.04358911473898798,0.105,0.999999999999398,415.39184899095915,0.84938828620287,171,2026-10-07 19:01:45.635243,25.1,0.13165217057572076,0.4974751829983859,0.2452341752642169
0060,cdot_cos,R,Q-R,172,34,29579,0.1693825731601781,0.24175595649163487,0.18344529283502692,0.9900922108471824,859.0,4.949756111789593,0.5932492605366685,7.780395163470175,-0.1345682850860903,0.028,0.9999999999993943,-76.62948422632898,0.8543554139324335,172,2026-10-07 19:01:45.663244,25.1,0.5086059056706387,1.6779291366849636,2.8114357152470806
0060,cdot_cos,S,R-S,173,34,29601,-0.0018726679210746592,-0.004005787585485321,-0.17125524108125276,0.013406657206078552,859.0,4.964999943417033,0.5932653295754695,7.803191159775164,-0.026307578579434165,0.022,0.9999999999993738,6737.223541942524,0.8593225363797552,173,2026-10-07 19:01:45.685244,25.1,0.01632282499352356,0.6732600934469459,0.6929014376108954
0060,cdot_cos,T,S-T,174,34,29845,-0.2873286528958298,0.14033362489119447,-0.28545598497475516,0.0007726239218558262,859.0,4.979379555901259,0.5932662556260158,7.825723443477893,-0.02489025044946198,0.244,0.9999999999993536,1530.508389328878,0.8642898790853938,174,2026-10-07 19:01:45.929244,25.1,0.9446478141384863,0.1933447182122762,0.05893283805010625
0060,cdot_cos,P,T-P,175,35,30305,0.026296705597285704,0.001508156903693117,0.3136253584931155,0.9996188729210519,798.0,5.059352165904624,0.5944638200076268,7.864021337880045,-0.139610990019096,0.46,0.999999999999351,-95.79504979540867,0.8692574408664182,175,2026-10-07 19:01:46.389244,25.1,0.4396760328057801,0.11982195370736443,0.17385350000731492
0060,cdot_cos,Q,P-Q,176,35,30405,-0.019584670051885696,-0.019093504738012718,-0.0458813756491714,0.2401928463398306,798.0,5.089615753312034,0.5947514092538543,7.890273506244553,-0.05340030821702274,0.1,0.9999999999993294,299.7701858916899,0.8742246407148289,176,2026-10-07 19:01:46.489243,25.1,0.19900547834384405,0.5503336159473493,0.3026358740741042
0060,cdot_cos,R,Q-R,177,35,30428,0.16008137309259396,0.25146975217407214,0.17966604314447965,0.9891170753053794,798.0,5.169418889094094,0.5959350181678399,7.928404228418153,-0.14220701521030515,0.023,0.9999999999993252,-75.03044793253555,0.8791917623758239,177,2026-10-07 19:01:46.512243,25.1,0.5355350536408349,2.076013575129538,3.469701555741715
0060,cdot_cos,S,R-S,178,35,30457,-0.002124335827038107,-0.005540827119972642,-0.16220570891963207,0.016768156666643497,798.0,5.185112377767993,0.5959550738993653,7.951036871447633,-0.02822524083245294,0.029,0.9999999999993033,5683.251903996347,0.8841588909688491,178,2026-10-07 19:01:46.541243,25.1,0.01762754825730735,0.5226452294517332,0.5411547818585967
0060,cdot_cos,T,S-T,179,35,30704,-0.27223604712148647,0.06776171937869938,-0.2701117112944484,0.0011352075221660583,798.0,5.199732312402294,0.5959564316647701,7.973358122459787,-0.026371369782329162,0.247,0.9999999999992814,1365.3839194933414,0.8891262483570919,179,2026-10-07 19:01:46.788243,25.1,0.932115424839043,0.19380289640138476,0.059190018762353136
0060,cdot_cos,P,T-P,180,36,31103,0.038665939843598895,-0.0016282785420065583,0.31090198696508536,0.9995919202903368,819.0,5.280851008590277,0.5971514215390773,8.011631648126466,-0.14752892117784483,0.399,0.999999999999278,-101.38793139628523,0.894093769461341,180,2026-10-07 19:01:47.187244,25.1,0.43988317370421387,0.13652542573196874,0.2033050029774006
0060,cdot_cos,Q,P-Q,181,36,31199,-0.017262583413285394,-0.015363333160734714,-0.055928523256884285,0.19721286175550629,819.0,5.308679602136405,0.5973870494387663,8.037025627196586,-0.051127669215052844,0.096,0.9999999999992549,409.1249469609812,0.8990609685369205,181,2026-10-07 19:01:47.283243,25.1,0.15175306991097032,0.5673959706629141,0.28988118277216884
0060,cdot_cos,R,Q-R,182,36,31227,0.1742083422786072,0.24567104683587823,0.1914709256918926,0.9918852194384316,819.0,5.389791034957557,0.5985714600518882,8.075175377031698,-0.15040852802835902,0.028,0.9999999999992515,-83.82300674562362,0.90402809477713,182,2026-10-07 19:01:47.311244,25.1,0.5168127450149614,1.7262555054509132,2.896836886469689
0060,cdot_cos,S,R-S,183,36,31252,-0.003269818353063855,-0.007379295989756736,-0.17747816063167107,0.01149022528977894,819.0,5.4053499104416565,0.5985851738226927,8.09751504267047,-0.02911189149246446,0.025,0.999999999999228,8844.878499506067,0.9089952183925386,183,2026-10-07 19:01:47.336244,25.1,0.015505404147229047,0.6080153887155682,0.6223550193639937
0060,cdot_cos,T,S-T,184,36,31503,-0.26543766553735443,0.10154068988714456,-0.2621678471842906,0.001385354411597153,819.0,5.420191804393335,0.5985868272552952,8.119631676489858,-0.02784853027855038,0.251,0.9999999999992047,764.0838894818436,0.9139625922537806,184,2026-10-07 19:01:47.587244,25.1,0.9556481727469783,0.19337333057152212,0.059131051600313005
0060,cdot_cos,P,T-P,185,37,31922,0.03234565056548411,-0.00014461332276193275,0.29778331610283854,0.9994328736963946,841.0,5.502423322388561,0.5997790723653639,8.157882416703481,-0.15552509447386237,0.419,0.9999999999992013,-107.08919090300111,0.9189301566572827,185,2026-10-07 19:01:48.006243,25.1,0.44001842853535245,0.13311137746638538,0.19625660619385574
0060,cdot_cos,Q,P-Q,186,37,32019,-0.019603667907392455,-0.01775471742738893,-0.051949318472876566,0.2135047010899783,841.0,5.531739138710166,0.6000336141503672,8.183372769028987,-0.05599959855104898,0.097,0.9999999999991765,390.9986563562846,0.9238973600722952,186,2026-10-07 19:01:48.103244,25.1,0.169101908101596,0.5744977380276816,0.30222491053201445
0060,cdot_cos,R,Q-R,187,37,32051,0.16596492623592235,0.23526392651720365,0.1855685941433148,0.9906015882663607,841.0,5.613875883565931,0.6012139077196565,8.221481898598162,-0.1583269965037425,0.032,0.9999999999991729,-86.69656483369705,0.9288644901476087,187,2026-10-07 19:01:48.135243,25.1,0.5239787393219347,1.532034464080803,2.566773276742651
0060,cdot_cos,S,R-S,188,37,32074,-0.004847618726442903,-0.010512108906322485,-0.17081254496236525,0.013554427852153205,841.0,5.629789344411337,0.6012300495875077,8.243656480045042,-0.030944265885698076,0.023,0.9999999999991477,7891.449229586797,0.9338316104732494,188,2026-10-07 19:01:48.158243,25.1,0.016301122118933784,0.6750261608805058,0.6918896019741987
0060,cdot_cos,T,S-T,189,37,32321,-0.24028376362060846,0.09902106444783572,-0.23543614489416556,0.0027063423341448733,841.0,5.644927086966434,0.6012332725242207,8.2655963162957,-0.029517067281449896,0.247,0.999999999999123,442.8255133002314,0.938798992187451,189,2026-10-07 19:01:48.405244,25.1,0.952798686253045,0.19929715475876786,0.06128640710565466
0060,cdot_cos,P,T-P,190,38,32763,0.03584128292102508,0.001362319690261463,0.27612504654163356,0.9990236754242215,836.0,5.728242138862169,0.6024223912893629,8.303825136814877,-0.16370894667892305,0.442,0.9999999999991196,-112.84985430485389,0.9437666063810517,190,2026-10-07 19:01:48.847244,25.1,0.440564730102539,0.1267494468089168,0.1884955925242865
0060,cdot_cos,Q,P-Q,191,38,32869,-0.01958469969329397,-0.019073704814952564,-0.05542598261431905,0.19921750291916634,836.0,5.7569735979455166,0.6026593720015224,8.328924051838605,-0.057000175905012065,0.106,0.9999999999990933,450.284623594567,0.9487338237527786,191,2026-10-07 19:01:48.953243,25.1,0.15380373760905056,0.5276144944024342,0.2710515007863004
0060,cdot_cos,R,Q-R,192,38,32898,0.15975923762922284,0.24544249210227526,0.1793439373225168,0.9890297009386699,836.0,5.840096411675485,0.6038351651134191,8.366991361725388,-0.1663440423903016,0.029,0.9999999999990884,-92.99583862071617,0.9537009494385805,192,2026-10-07 19:01:48.982244,25.1,0.5182302520225902,1.7145769406723717,2.8663039217230417
0060,cdot_cos,S,R-S,193,38,32918,-0.003268625810226907,-0.008244986756894787,-0.16302786343944975,0.01643130102063801,836.0,5.856419060504514,0.6038546891283123,8.389023331285742,-0.032944174652318844,0.02,0.9999999999990615,6832.604280799242,0.9586680648277466,193,2026-10-07 19:01:49.002244,25.1,0.017435092512611505,0.7924230888870065,0.816132441451467
0060,cdot_cos,T,S-T,194,38,33160,-0.23192277754658217,0.07432018155350152,-0.22865415173635525,0.003206961627637234,836.0,5.871793335230965,0.6038584996684655,8.410781532439946,-0.031114048645022326,0.242,0.9999999999990344,480.27994292699367,0.9636354527410732,194,2026-10-07 19:01:49.244244,25.1,0.9428765423776903,0.20609685075492928,0.06353006085310298
0060,cdot_cos,P,T-P,195,39,33599,0.0284850755999356,-0.00039203813007867243,0.26040785314651776,0.998552165081418,780.0,5.9561699362699,0.6050443729010657,8.448990905314487,-0.17203306753033146,0.439,0.9999999999990309,-118.83143578198587,0.9686030875046793,195,2026-10-07 19:01:49.683244,25.1,0.44081096800851693,0.13170996427720552,0.19220182469005662
0060,cdot_cos,Q,P-Q,196,39,33692,-0.019601138555158635,-0.01811331527863696,-0.04808621415509423,0.230238681329643,780.0,5.9874346838663515,0.6053176279147527,8.474453149198588,-0.06435256328612368,0.093,0.9999999999990034,394.0659781179388,0.9735702924204009,196,2026-10-07 19:01:49.776243,25.1,0.1876287399151086,0.6218038956596166,0.3361800816822752
0060,cdot_cos,R,Q-R,197,39,33722,0.1707882594719191,0.2535424404696799,0.19038939802707774,0.9916637770927079,780.0,6.071825460862589,0.6064938136798412,8.512552734432013,-0.17520156744343104,0.03,0.9999999999989992,-94.24447008927011,0.9785374186243242,197,2026-10-07 19:01:49.806243,25.1,0.5311588579539667,1.677873750446146,2.81302589987457
0060,cdot_cos,S,R-S,198,39,33748,-0.0025250622383932064,-0.006612508551435847,-0.17331332171031233,0.012740281796076768,780.0,6.08810710889312,0.606508916587999,8.534343357355716,-0.03408365400841818,0.026,0.9999999999989705,9343.75763667097,0.9835045404301207,198,2026-10-07 19:01:49.832243,25.1,0.015917439870493127,0.610639547861165,0.6262172319435259
0060,cdot_cos,T,S-T,199,39,33979,-0.2572384690509768,0.055485052938023964,-0.2547134068125836,0.0016699228858503478,780.0,6.103578717351369,0.6065108961752729,8.555895500597305,-0.03247245240569855,0.231,0.9999999999989412,813.9078402744353,0.9884719267367894,199,2026-10-07 19:01:50.063244,25.1,0.9515933482737142,0.2186076272083262,0.06697665999241952
0060,cdot_cos,P,T-P,200,40,34379,0.04251041540921376,0.002026350300594599,0.29974888446019055,0.9994601595829883,820.0,6.189103832663367,0.6076950629392929,8.594112579372858,-0.18079824468488587,0.4,0.9999999999989376,-125.25752012803673,0.9934395357767382,200,2026-10-07 19:01:50.463244,25.1,0.44025816560574677,0.1429156627123962,0.2138127882799945
0060,cdot_cos,Q,P-Q,201,40,34483,-0.015359435914476437,-0.015234762481745672,-0.0578698513236902,0.18961199971425322,820.0,6.217911247521286,0.607919574006499,8.618754351556932,-0.0614521865487426,0.104,0.9999999999989073,531.5820713042071,0.9984067586897095,201,2026-10-07 19:01:50.567244,25.1,0.1434030326901497,0.5487270741255913,0.27699437363383805
0060,cdot_cos,R,Q-R,202,40,34512,0.16708905084458264,0.2622661512274132,0.1824484867590591,0.9898437419051677,820.0,6.30323906408149,0.6090908607058532,8.656814594566988,-0.18350045812448498,0.029,0.9999999999989039,-104.20016862057514,1.003373883003127,202,2026-10-07 19:01:50.596244,25.1,0.5142161708487291,1.7574026678162484,2.942338502075994
0060,cdot_cos,S,R-S,203,40,34534,-0.0012916651596605556,-0.0031869717354129456,-0.1683807160042432,0.014395266307809195,820.0,6.3198406022546285,0.6091078854564176,8.678458454547217,-0.03599227631023123,0.022,0.9999999999988731,8664.337327944537,1.0083409986204848,203,2026-10-07 19:01:50.618243,25.1,0.01660039516585712,0.7307182924868821,0.7546153715062994
0060,cdot_cos,T,S-T,204,40,34778,-0.40064369070340267,0.028200747766351494,-0.3993520255437421,4.433304708424849e-05,820.0,6.335390668950913,0.6091079378870673,8.699808441396426,-0.03379854433193498,0.244,0.9999999999988425,41840.64073971687,1.0133084146127778,204,2026-10-07 19:01:50.862243,25.1,0.93715545037883,0.20937959016654903,0.06372978154214846
0060,cdot_cos,P,T-P,205,41,35199,0.039523581469361996,0.0005368970667618823,0.44016727217276463,0.9999840844580845,859.0,6.422017842255904,0.6102899298955863,8.738029149123886,-0.18960021093422139,0.421,0.9999999999988389,-131.81279186269902,1.0182760750983475,205,2026-10-07 19:01:51.283243,25.1,0.4396669222151708,0.13756891302510976,0.20576525725651235
0060,cdot_cos,Q,P-Q,206,41,35300,-0.01819263844776337,-0.015991841404257915,-0.05771621991712536,0.19020524204002004,859.0,6.451223693718055,0.6105146084212731,8.7625405526364,-0.06448956818430554,0.101,0.9999999999988071,556.8429041780568,1.023243297777195,206,2026-10-07 19:01:51.384243,25.1,0.14370198780934001,0.5727126858796527,0.289166846159908
0060,cdot_cos,R,Q-R,207,41,35329,0.1704521444107088,0.2316208951537379,0.18864478285847217,0.9912938734156802,859.0,6.537705804803594,0.6116848056107235,8.800619355441148,-0.19246691576972141,0.029,0.9999999999988028,-109.36391638876704,1.0282104212779044,207,2026-10-07 19:01:51.413243,25.1,0.5143086695837187,1.7784667888434442,2.9821417615703156
0060,cdot_cos,S,R-S,208,41,35351,-0.0035839732564019234,-0.007269790302599535,-0.17403611766711072,0.012514095750919494,859.0,6.554374767470975,0.6116995699858226,8.822064202596895,-0.03739106384495112,0.022,0.99999999999877,10503.380663462149,1.0331775356487103,208,2026-10-07 19:01:51.435244,25.1,0.01580539231328404,0.7395041705721644,0.757680121244573
0060,cdot_cos,T,S-T,209,41,35597,-0.254322509711938,0.12521865519561423,-0.25073853645553607,0.0018448011778982292,859.0,6.5702439883087695,0.6117017465010206,8.843277108724033,-0.03568551756149879,0.246,0.9999999999987376,783.6133122574573,1.0381449674574048,209,2026-10-07 19:01:51.681243,25.1,0.9533303490259971,0.2103445255957761,0.06450902779591312
0060,cdot_cos,P,T-P,210,42,36058,0.027618023855972472,-0.0005325624343621783,0.28194053356791043,0.9991561633168492,797.0,6.657864274064097,0.6128799043470982,8.88148133298129,-0.19836628764507125,0.461,0.9999999999987337,-138.0806235982608,1.0431127096119786,210,2026-10-07 19:01:52.142244,25.1,0.44038633126182564,0.13016959470000838,0.19006569578162083
0060,cdot_cos,Q,P-Q,211,42,36152,-0.020626936415096664,-0.01870336292477817,-0.048244960271069136,0.22953326733959817,797.0,6.690260354622177,0.6131503732475653,8.90653176510029,-0.07398885846133772,0.094,0.9999999999987005,459.85852336045815,1.0480799257431355,211,2026-10-07 19:01:52.236243,25.1,0.18618226456775536,0.6378650421217291,0.344639154873197
0060,cdot_cos,R,Q-R,212,42,36176,0.16765973916460722,0.24330766352830874,0.18828667557970388,0.9912159562008496,797.0,6.777782901982982,0.6143175624054501,8.94460691269313,-0.20146128354472437,0.024,0.9999999999986953,-109.21316756779264,1.0530470408711308,212,2026-10-07 19:01:52.260243,25.1,0.5311349911297917,2.1762326841483306,3.6467728067001897
0060,cdot_cos,S,R-S,213,42,36206,-0.0036674785252842714,-0.00878695967641483,-0.17132721768989148,0.013382782278949523,797.0,6.794719523461297,0.6143333121110957,8.965907708305377,-0.03928687027447669,0.03,0.999999999998661,10296.980586177207,1.0580141656440853,213,2026-10-07 19:01:52.290244,25.1,0.016115809884831123,0.5517006157442772,0.5645540492771772
0060,cdot_cos,T,S-T,214,42,36455,-0.2321400608247327,0.06530650754530586,-0.22847258229944845,0.0032215631745188718,797.0,6.8108849389276385,0.6143371034148936,8.986985247116356,-0.03758926694912396,0.249,0.9999999999986258,447.76240993668887,1.0629816153069864,214,2026-10-07 19:01:52.539244,25.1,0.9558427028495654,0.21041644501378506,0.0649213472543828
0060,cdot_cos,P,T-P,215,43,36855,0.027988483795707415,-0.003104682713854085,0.2601285446204401,0.9985419940141516,840.0,6.899506913078162,0.6155115691869028,9.02517964083787,-0.2074221482660249,0.4,0.9999999999986214,-144.6043685260942,1.0679492939319684,215,2026-10-07 19:01:52.939244,25.1,0.44096978787726937,0.1519847278573383,0.2215549353763091
0060,cdot_cos,Q,P-Q,216,43,36945,-0.019699161956044268,-0.015760866284741756,-0.04768764575175168,0.23201647333390926,840.0,6.932472721213509,0.6157842703524798,9.050152293212587,-0.0778208933653653,0.09,0.9999999999985872,475.2500951963138,1.0729165076849023,216,2026-10-07 19:01:53.029243,25.1,0.1891190331246946,0.6763510786835002,0.3662867570594111
0060,cdot_cos,R,Q-R,217,43,36975,0.18544795890436602,0.2261423034187336,0.2051471208604103,0.994229404762572,840.0,7.021250107241192,0.6169520145821936,9.088279512561218,-0.21117443786595314,0.03,0.9999999999985825,-114.1975623662676,1.0778836310379576,217,2026-10-07 19:01:53.059244,25.1,0.5318013516227025,1.7597658605601179,2.959246200922768
0060,cdot_cos,S,R-S,218,43,37003,-0.0025280401502843428,-0.004946075397379686,-0.18797599905465037,0.008852200645056976,840.0,7.038058672847116,0.6169624056485857,9.109349590251753,-0.04028461882583444,0.028,0.9999999999985459,16445.84035858293,1.0828507521041046,218,2026-10-07 19:01:53.087244,25.1,0.014377925298768059,0.5896631077198115,0.6003059144972868
0060,cdot_cos,T,S-T,219,43,37235,-0.2701799068849057,0.1435121826957483,-0.2676518667346213,0.0012074193037530728,840.0,7.054271241273502,0.6169638229572671,9.130239650731323,-0.038947416864435334,0.232,0.9999999999985091,943.4796942483215,1.0878181896792398,219,2026-10-07 19:01:53.319244,25.1,0.9662491863321822,0.22832699351467756,0.0698817604585578
0060,cdot_cos,P,T-P,220,44,37695,0.038770210708980665,0.00125631620780788,0.30895011759388635,0.9995714386279397,861.0,7.144002397837927,0.6181364687268603,9.168454535014671,-0.21692803587095383,0.46,0.9999999999985055,-151.77696762447042,1.0927859869684828,220,2026-10-07 19:01:53.779244,25.1,0.4402294217652637,0.1305003126263659,0.19506773166179345
0060,cdot_cos,Q,P-Q,221,44,37799,-0.01872126727166669,-0.017139671440768937,-0.057491477980647354,0.1910756317514013,861.0,7.174331528889758,0.6183604726711794,9.192598784699205,-0.07392510293119076,0.104,0.9999999999984667,638.3947094076798,1.0977532259812417,221,2026-10-07 19:01:53.883244,25.1,0.14450662179233884,0.5760407795666632,0.29162626011376597
0060,cdot_cos,R,Q-R,222,44,37828,0.16463635268089377,0.23265677669334836,0.18335761995256045,0.990070600593415,861.0,7.2638188799877925,0.6195203556509948,9.23065496595827,-0.21968708875710014,0.029,0.9999999999984607,-125.66956181140655,1.1027203466502449,222,2026-10-07 19:01:53.912243,25.1,0.5150464489162813,1.8433155184889534,3.085770727518424
0060,cdot_cos,S,R-S,223,44,37849,-0.003155761851739213,-0.0066401589007606615,-0.16779211453263299,0.014606389804922813,861.0,7.2812438289621175,0.6195374570902736,9.251676736146305,-0.04309343505510121,0.021,0.999999999998422,10326.245108557725,1.107687455204191,223,2026-10-07 19:01:53.933243,25.1,0.016607103701222488,0.805718204031863,0.8297594749678573
0060,cdot_cos,T,S-T,224,44,38093,-0.26346301489807367,0.12497495839677926,-0.26030725304633445,0.0014514900986348684,861.0,7.297659044557131,0.619539156506314,9.272422616587827,-0.04069065695987011,0.244,0.9999999999983827,1413.8845569313862,1.1126549248927413,224,2026-10-07 19:01:54.177243,25.1,0.9426597554221944,0.21956984262751655,0.06727547375005428
0060,cdot_cos,P,T-P,225,45,38556,0.032303208565407755,0.0006366813276898847,0.2957662234634814,0.9994034389341158,858.0,7.388393912164346,0.6207085685694578,9.310638325075844,-0.22629990749476,0.463,0.999999999998378,-158.72014355308156,1.1176227552949984,225,2026-10-07 19:01:54.640243,25.1,0.44034733946189253,0.13223326474906533,0.19597163630067996
0060,cdot_cos,Q,P-Q,226,45,38661,-0.02168452696883031,-0.019993925186318835,-0.053987735534238065,0.20503911246719764,858.0,7.420107047714765,0.6209483141417944,9.334910305119058,-0.0797349199455599,0.105,0.9999999999983371,611.3355342529646,1.1225899998917832,226,2026-10-07 19:01:54.745243,25.1,0.15911102248598794,0.5817964444741999,0.3020298623849491
0060,cdot_cos,R,Q-R,227,45,38691,0.1601499217312544,0.23234830316344893,0.1818344487000847,0.9896876242826375,858.0,7.510571165503928,0.6221046914008213,9.372962602545028,-0.22905256221156484,0.03,0.9999999999983309,-129.1253707217179,1.1275571210253377,227,2026-10-07 19:01:54.775244,25.1,0.5210587511123881,1.8031163986827508,3.015470592972077
0060,cdot_cos,S,R-S,228,45,38713,-0.0040241930782455035,-0.009382605224760894,-0.1641741148094999,0.015972736840681755,858.0,7.52829403163573,0.6221233430243305,9.393866828095408,-0.04519809259532877,0.022,0.9999999999982887,9857.290413636307,1.132524229513232,228,2026-10-07 19:01:54.797244,25.1,0.01711588298177572,0.7878458955651011,0.8055848241728518
0060,cdot_cos,T,S-T,229,45,38952,-0.20760104389163167,0.08562245875724349,-0.20357685081338617,0.006001185652347863,858.0,7.545236384908792,0.622130350612609,9.414550897412532,-0.043306855356745604,0.239,0.9999999999982473,269.88418317537213,1.1374917045258994,229,2026-10-07 19:01:55.036243,25.1,0.9572692105543554,0.22716667445126767,0.07088850741866823
0060,cdot_cos,P,T-P,230,46,39414,0.041600795251130855,-0.001929578466427134,0.24920183914276253,0.9980827917947611,837.0,7.636879702023436,0.6232951006630236,9.452748810840529,-0.23565267388503483,0.462,0.9999999999982421,-165.1391373280654,1.1424595623992049,230,2026-10-07 19:01:55.498244,25.1,0.442097023216476,0.13217935062776415,0.1983621582568057
0060,cdot_cos,Q,P-Q,231,46,39508,-0.01769320339618024,-0.01505476622120611,-0.059293998647311094,0.1841801256237456,837.0,7.667370104888846,0.6235098813696602,9.476540827984651,-0.07901626960872023,0.094,0.9999999999981979,729.2852636961054,1.147426792148419,231,2026-10-07 19:01:55.592243,25.1,0.1377477665833991,0.6495705340576894,0.3243659879298918
0060,cdot_cos,R,Q-R,232,46,39533,0.17425052045523837,0.23198520279395166,0.1919437238514186,0.9919801825390804,837.0,7.758998962426282,0.6246658375111115,9.514637714867538,-0.23905955450896987,0.025,0.9999999999981917,-138.4510010036559,1.1523939035164388,232,2026-10-07 19:01:55.617243,25.1,0.5119796732972413,2.184590334682728,3.665154301497431
0060,cdot_cos,S,R-S,233,46,39563,-0.0020624048123387795,-0.004278257743177273,-0.17631292526757714,0.0118272139481082,837.0,7.7765996216229825,0.624679611244029,9.535331578081015,-0.046244590690082396,0.03,0.9999999999981468,13998.744201954429,1.1573610244907158,233,2026-10-07 19:01:55.647244,25.1,0.015460609031517053,0.5714080151521491,0.5866886398900206
0060,cdot_cos,T,S-T,234,46,39810,-0.34533775438552106,0.04956913393051315,-0.3432753495731823,0.00018111245828425973,837.0,7.793283443335411,0.6246798221623474,9.55577496862895,-0.043932389517957186,0.247,0.9999999999981021,10962.5431780175,1.16232852710483,234,2026-10-07 19:01:55.894243,25.1,0.9487301247447868,0.22158006020294801,0.06754583689242237
0060,cdot_cos,P,T-P,235,47,40251,0.050362415791262834,0.0026925974939767798,0.3957001701767839,0.9999514114601858,861.0,7.886060171363239,0.6258436133604852,9.594012331299833,-0.24571415465508617,0.441,0.9999999999980965,-173.38313389893435,1.1672963769003561,235,2026-10-07 19:01:56.335244,25.1,0.43990112372439244,0.13893040650510768,0.2103780680903129
0060,cdot_cos,Q,P-Q,236,47,40358,-0.012718581330835714,-0.012206384904506488,-0.06308099712209855,0.17032396182488238,861.0,7.915820061872916,0.6260416999210469,9.617446982097746,-0.07941653210764665,0.107,0.9999999999980497,839.5199657964299,1.1722636334153118,236,2026-10-07 19:01:56.442244,25.1,0.12319429950318986,0.5709430326005394,0.2781298178474484
0060,cdot_cos,R,Q-R,237,47,40386,0.1685535345566919,0.2453305177074025,0.18127211588752762,0.9895425705534453,861.0,8.008241980339754,0.627191699315043,9.655505467985197,-0.24823268076509106,0.028,0.9999999999980429,-146.7967283624542,1.1772307487480245,237,2026-10-07 19:01:56.470243,25.1,0.5065804091279006,1.9709064109246934,3.3007828023870873
0060,cdot_cos,S,R-S,238,47,40407,-0.0009953459872434239,-0.002179300503095163,-0.16954888054393533,0.013985128782209205,861.0,8.026190820884699,0.6272079418960963,9.676104851687374,-0.04854144753500087,0.021,0.9999999999979948,12294.304247292155,1.1821978521522616,238,2026-10-07 19:01:56.491244,25.1,0.016345063000625056,0.8288334429185085,0.8547066926163994
0060,cdot_cos,T,S-T,239,47,40650,-0.33355410153591175,0.14948011659150576,-0.3325587555486683,0.00023699730465334082,861.0,8.043052984942332,0.6272082171465712,9.696415725478204,-0.04570159567232765,0.243,0.9999999999979481,10317.336833469737,1.187165361713879,239,2026-10-07 19:01:56.734244,25.1,0.9397522437350462,0.22760465909467884,0.06939162163634965
0060,cdot_cos,P,T-P,240,48,41112,0.03780558763088583,0.0013493809204613958,0.37135968916679757,0.9999104951466649,856.0,8.136806685204713,0.6283687850004949,9.734659610394603,-0.25552546607201554,0.462,0.999999999997942,-180.79414287609634,1.1921332783396745,240,2026-10-07 19:01:57.196243,25.1,0.439926940291177,0.13573917237309444,0.2029300871480107
0060,cdot_cos,Q,P-Q,241,48,41217,-0.01968908260124553,-0.018466192111935946,-0.05749467023213136,0.19106324739928526,856.0,8.16847598021507,0.6285903787670425,9.758359640800641,-0.08696249004190491,0.105,0.9999999999978932,760.6846467582583,1.197100535411063,241,2026-10-07 19:01:57.301243,25.1,0.14394252581471775,0.5956181729815617,0.3016123334319839
0060,cdot_cos,R,Q-R,242,48,41247,0.1624975035282081,0.23810712127334377,0.18218658612945363,0.9897774424760886,856.0,8.26188650153084,0.6297374479664151,9.796428512726223,-0.25814068970756665,0.03,0.9999999999978855,-149.23092674730785,1.2020676531848955,242,2026-10-07 19:01:57.331244,25.1,0.5152413800995818,1.8612620088918064,3.1136840438589886
0060,cdot_cos,S,R-S,243,48,41269,-0.0024672493290785334,-0.005744687247420468,-0.16496475285728665,0.015663798320474466,856.0,8.28015170074858,0.6297555892721841,9.816930980414753,-0.05081810793564202,0.022,0.9999999999978358,11428.206128670596,1.2070347566564075,243,2026-10-07 19:01:57.353244,25.1,0.01691255634961973,0.8039080837276155,0.830236328079033
0060,cdot_cos,T,S-T,244,48,41508,-0.27306822790814245,0.11996081646003354,-0.2706009785790639,0.001121367272939517,856.0,8.297258457214856,0.6297568879895256,9.837129949948899,-0.04769675254455407,0.239,0.999999999997785,2403.413961971416,1.2120022728570754,244,2026-10-07 19:01:57.592243,25.1,0.9366536752464218,0.23390525608152427,0.07157638688818557
0060,cdot_cos,P,T-P,245,49,41968,0.03462692739652983,-0.001710208250095656,0.3076951553046723,0.9995577303374444,799.0,8.391958413155548,0.6309137824494201,9.87537589013394,-0.2654775397005141,0.46,0.999999999997779,-188.24602822958818,1.2169702158958833,245,2026-10-07 19:01:58.052243,25.1,0.44028368744916774,0.13876303537470144,0.20586946943628748
0060,cdot_cos,Q,P-Q,246,49,42061,-0.01974832704403568,-0.017690297002592992,-0.05437525444056551,0.2034582231319735,799.0,8.42492044975958,0.6311490825612074,9.899200264930652,-0.09308647694020297,0.093,0.9999999999977279,732.6433525715775,1.2219374540368384,246,2026-10-07 19:01:58.145243,25.1,0.15693159135358417,0.6851908832708493,0.3544305011186352
0060,cdot_cos,R,Q-R,247,49,42086,0.16840359269746003,0.24068656686964848,0.1881519197414957,0.9911864572993901,799.0,8.519403917443926,0.6322944992584096,9.937301869028659,-0.26849969645752986,0.025,0.9999999999977206,-153.14358516493104,1.2269045609561975,247,2026-10-07 19:01:58.170244,25.1,0.520321276528779,2.2550602750404636,3.779338707373796
0060,cdot_cos,S,R-S,248,49,42119,-0.003137492319581359,-0.007570571654429751,-0.17154108501704138,0.013312088818157599,799.0,8.537673463511604,0.6323098726069115,9.957639622358528,-0.052262337104814975,0.033,0.9999999999976675,14065.729357939317,1.2318716845297712,248,2026-10-07 19:01:58.203244,25.1,0.015962116030008713,0.5399164861796678,0.5536226081114629
0060,cdot_cos,T,S-T,249,49,42367,-0.24758960985693745,0.0747714427223603,-0.2444521175373561,0.00215943229672656,799.0,8.555038405531784,0.6323123663829204,9.977734651290158,-0.049778241180860765,0.248,0.999999999997614,996.1183021541336,1.236839232836589,249,2026-10-07 19:01:58.451244,25.1,0.9513214621245718,0.22784699694759186,0.07001992750072498
0060,cdot_cos,P,T-P,250,50,42767,0.043258308302876775,0.0014034017391262377,0.29084791815981426,0.9993251079903963,841.0,8.65068557399761,0.6334656549945692,10.015985539498626,-0.2756303239775703,0.4,0.9999999999976072,-195.83309894461493,1.2418070870965634,250,2026-10-07 19:01:58.851244,25.1,0.440695040941124,0.15905999376506497,0.23911792116456443
0060,cdot_cos,Q,P-Q,251,50,42868,-0.016642646502519287,-0.0153608830008625,-0.05990095480539606,0.18190201305043052,841.0,8.682286400543836,0.6336754182383297,10.03932126969334,-0.09171676621082839,0.101,0.9999999999975543,876.7673233385518,1.2467743452343623,251,2026-10-07 19:01:58.952243,25.1,0.1346288185374383,0.6286555607713797,0.31287947075471484
0060,cdot_cos,R,Q-R,252,50,42898,0.16888254826894813,0.24360437449405897,0.18552519477146742,0.9905914411470068,841.0,8.777673997273428,0.6348168438022624,10.077419667790448,-0.2785085298664134,0.03,0.999999999997547,-163.64778357688618,1.2517414611236226,252,2026-10-07 19:01:58.982244,25.1,0.511357681146081,1.897328796981442,3.179586557653084
0060,cdot_cos,S,R-S,253,50,42920,-0.0025942446311904943,-0.005733512625965373,-0.17147679290013862,0.01333330164704,841.0,8.796126128362722,0.6348321970246517,10.097638942086597,-0.054226072963678484,0.022,0.9999999999974911,14608.16831913412,1.256708561551129,253,2026-10-07 19:01:59.004243,25.1,0.01598566248513005,0.815586632984967,0.8387332313315454
0060,cdot_cos,T,S-T,254,50,43166,-0.28424163729452323,0.12136892026624063,-0.2816473926633327,0.0008500630961634646,841.0,8.813559809124767,0.6348331758582623,10.117590642688848,-0.051337671910963424,0.246,0.9999999999974355,2950.8601067709906,1.2616761211752798,254,2026-10-07 19:01:59.250243,25.1,0.9452906829617953,0.23183856172888295,0.07086862098392092
0060,cdot_cos,P,T-P,255,51,43608,0.04256737277003398,0.0010096818083864814,0.3268090100645572,0.999726218433392,836.0,8.910190700733333,0.6359835708126308,10.155858195420237,-0.28601094073370353,0.442,0.9999999999974291,-203.99365272908074,1.2666440890104447,255,2026-10-07 19:01:59.692243,25.1,0.44020950523218805,0.14568121200639592,0.21862192671621236
0060,cdot_cos,Q,P-Q,256,51,43710,-0.016535293347222847,-0.0153183386479256,-0.05910266611725683,0.18490282543911177,836.0,8.94234200053842,0.6361961705368412,10.179154309189448,-0.09582989334787448,0.102,0.999999999997373,894.5498311071244,1.2716113534142186,256,2026-10-07 19:01:59.794244,25.1,0.13743982103663313,0.6299509113592311,0.3152088216185111
0060,cdot_cos,R,Q-R,257,51,43738,0.17061604757426158,0.24633652643699208,0.18715134092148442,0.9909643317437707,836.0,9.038700686650616,0.6373346650653465,10.217267611728689,-0.28888397939269556,0.028,0.9999999999973653,-169.56962129477242,1.2765784639677518,257,2026-10-07 19:01:59.822243,25.1,0.5125917800651426,2.0525640397134497,3.441381646864107
0060,cdot_cos,S,R-S,258,51,43760,-0.0026746861113935527,-0.00586452586349056,-0.17329073368565512,0.012747414963339603,836.0,9.057285586762374,0.6373493002588203,10.23736132046341,-0.056072902645475396,0.022,0.9999999999973066,15907.618656654986,1.2815455627006838,258,2026-10-07 19:01:59.844243,25.1,0.015733933498406828,0.8223677252652273,0.8447681868980988
0060,cdot_cos,T,S-T,259,51,44004,-0.2870241017283843,0.12053433250959987,-0.28434941561699073,0.0007943669779488498,836.0,9.074884866562286,0.6373502122560404,10.257196628999921,-0.053205287319420064,0.244,0.9999999999972483,3144.3246349088763,1.286513133252143,259,2026-10-07 19:02:00.088243,25.1,0.9475295197394933,0.23600703885450597,0.07212819590127797
0060,cdot_cos,P,T-P,260,52,44444,0.03605860277464009,0.0007103230040711241,0.32308270450302434,0.9996993839065479,798.0,9.172457021723373,0.63849716236653,10.295473378263917,-0.29644239127959204,0.44,0.999999999997242,-212.07295917722317,1.2914811268595014,260,2026-10-07 19:02:00.528243,25.1,0.4402024028859274,0.14897565461751744,0.22175489809337973
0060,cdot_cos,Q,P-Q,261,52,44549,-0.01963255789017375,-0.02034253295784933,-0.05569116066481384,0.19815780234138128,798.0,9.205983442625701,0.6387243209542635,10.318923799502164,-0.10256337809707418,0.105,0.9999999999971836,853.4962957684583,1.2964484021267342,261,2026-10-07 19:02:00.633244,25.1,0.15102139990205654,0.6215017167526107,0.3192992466888407
0060,cdot_cos,R,Q-R,262,52,44570,0.15342655984525227,0.2569649807604078,0.17305911773542604,0.9871792142253576,798.0,9.302972382241421,0.6398550499457195,10.35697547133421,-0.2984057307715275,0.021,0.9999999999971757,-173.20008079236098,1.3014154961378444,262,2026-10-07 19:02:00.654243,25.1,0.5187695360767716,2.770372138734201,4.618520934081903
0060,cdot_cos,S,R-S,263,52,44600,-0.0011517473899180259,-0.0032063097892949142,-0.1545783072351703,0.0202346720298055,798.0,9.322339072452538,0.639878210851006,10.37709744189279,-0.05995841834095734,0.03,0.9999999999971146,10295.250098414812,1.3063826108199803,263,2026-10-07 19:02:00.684243,25.1,0.0187440678073648,0.6186095127973523,0.6455563403705493
0060,cdot_cos,T,S-T,264,52,44843,-0.3007851736801036,0.07231432458886826,-0.2996334262901856,0.000541406295431294,798.0,9.340088953009262,0.6398788305437254,10.39681709738982,-0.05506232137669284,0.243,0.9999999999970531,7900.846357062815,1.3113501945301782,264,2026-10-07 19:02:00.927244,25.1,0.9149195060976317,0.2392197901438241,0.07304477595359943
0060,cdot_cos,P,T-P,265,53,45242,0.025483377754048676,0.0018152282477192328,0.3262685514341523,0.9997224801787316,739.0,9.438599890462436,0.6410223141338678,10.43510427408425,-0.3070678902472599,0.399,0.9999999999970463,-220.38407113405862,1.3163181277044664,265,2026-10-07 19:02:01.326244,25.1,0.44013069657583925,0.1700145375452268,0.24689458008314247
0060,cdot_cos,Q,P-Q,266,53,45343,-0.020646365820520454,-0.022960098154475996,-0.04612974357456913,0.23905697683738275,739.0,9.475760553970353,0.6412955110480522,10.459230854369771,-0.1166311009887423,0.101,0.9999999999969895,697.0678634019962,1.3212853991088105,266,2026-10-07 19:02:01.427244,25.1,0.19537917967105828,0.6687522355418332,0.3679273614645261
0060,cdot_cos,R,Q-R,267,53,45366,0.1527572210402415,0.29212310935941527,0.17340358686076196,0.9872881841037935,739.0,9.573687842041886,0.642422822169829,10.497293101336934,-0.3091156201257719,0.023,0.9999999999969813,-170.74658044146,1.3262524962262088,267,2026-10-07 19:02:01.450243,25.1,0.5364970316805493,2.5541109262572648,4.257708177023181
0060,cdot_cos,S,R-S,268,53,45393,-0.0016964375858113101,-0.006225017730653876,-0.15445365862605281,0.020296792025849913,739.0,9.593249656578188,0.6424459810978774,10.517311679249332,-0.062127608776258184,0.027,0.999999999996918,10664.915527761385,1.3312196033602135,268,2026-10-07 19:02:01.477243,25.1,0.018770004023307644,0.6944147843167506,0.7245116494926301
0060,cdot_cos,T,S-T,269,53,45642,-0.2921738088983805,0.006828138563354344,-0.29047737131256923,0.0006811939803520228,739.0,9.611186240394991,0.6424467583383503,10.536927984139327,-0.05707733530780911,0.249,0.9999999999968542,6497.6974883884905,1.3361872169537856,269,2026-10-07 19:02:01.726244,25.1,0.9153202809487729,0.23570580142227587,0.0720344731598535
0060,cdot_cos,P,T-P,270,54,45981,0.0333406905022985,-0.0007248446858863721,0.325514499400679,0.9997171791206414,799.0,9.710631145686481,0.6435866237325816,10.575225388323956,-0.31793297116499863,0.339,0.9999999999968474,-228.84775446061346,1.341155040845362,270,2026-10-07 19:02:02.065243,25.1,0.4402230788411132,0.19802742021862635,0.2933478032197341
0060,cdot_cos,Q,P-Q,271,54,46072,-0.020397448207848626,-0.017727891723994457,-0.053738138710147126,0.20606216303617053,799.0,9.74544883130322,0.6438213717499137,10.59865594692933,-0.11205538560341835,0.091,0.9999999999967875,877.0152263747821,1.3461222943878166,271,2026-10-07 19:02:02.156243,25.1,0.15924933427651464,0.7373571764829664,0.38261192985427267
0060,cdot_cos,R,Q-R,272,54,46101,0.18224622748725783,0.24962334943852368,0.20264367569510644,0.9938574648922356,799.0,9.84483015180638,0.6449526117854073,10.636849597702554,-0.3215907480221496,0.029,0.9999999999967815,-185.22626131005538,1.3510894047803148,272,2026-10-07 19:02:02.185244,25.1,0.5212325151741373,2.0387916841390035,3.4269420863158984
0060,cdot_cos,S,R-S,273,54,46130,-0.002453500394382921,-0.005740426427268115,-0.18469972788164074,0.009603638702042044,799.0,9.863698748983282,0.6449635350756331,10.656565152742587,-0.061425183229857114,0.029,0.999999999996716,23817.509140074388,1.3560565161247553,273,2026-10-07 19:02:02.214243,25.1,0.014472760305990543,0.6375885784079951,0.6506412819621085
0060,cdot_cos,T,S-T,274,54,46361,-0.2883933760869501,0.1086170352670401,-0.2859398756925672,0.0007633037737935088,799.0,9.881810289354044,0.644964403259732,10.676079181585509,-0.0590712156096286,0.231,0.9999999999966502,2711.3691935703705,1.3610241042785545,274,2026-10-07 19:02:02.445244,25.1,0.9609338989602465,0.2564516267867987,0.07840493666996783
0060,cdot_cos,P,T-P,275,55,46780,0.04510962789839351,-0.0024877098892074545,0.3335030039853436,0.9997685523570693,819.0,9.982179400558783,0.6461007221500673,10.714387339121988,-0.32884442540465314,0.419,0.9999999999966449,-237.4097729867247,1.3659921427355997,275,2026-10-07 19:02:02.864243,25.1,0.44026991847693653,0.1585916156300186,0.2395444181497338
0060,cdot_cos,Q,P-Q,276,55,46872,-0.016821458497193898,-0.014278752739459078,-0.061931086395587406,0.17444155999224178,819.0,10.014710063252,0.6462988207458792,10.737142047457587,-0.10726782629363371,0.092,0.9999999999965792,1118.5167577938569,1.3709594025915428,276,2026-10-07 19:02:02.956243,25.1,0.12673728704067996,0.7217844814122658,0.3535941597088819
0060,cdot_cos,R,Q-R,277,55,46901,0.1849799411701285,0.24430102247022173,0.2018013996673224,0.9937270456283901,819.0,10.11498774513864,0.6474263534084509,10.775341743486809,-0.3323730175579881,0.029,0.9999999999965733,-199.64405354868256,1.3759265119962636,277,2026-10-07 19:02:02.985244,25.1,0.508003600613425,2.0560257647325506,3.4578510995393024
0060,cdot_cos,S,R-S,278,55,46928,-0.0031538687081349584,-0.006690979794785857,-0.18813380987826347,0.008817514540505977,819.0,10.133959557606488,0.6474363508790513,10.79494096535217,-0.06325435084701418,0.027,0.9999999999965044,26918.675479861628,1.3808936174894904,278,2026-10-07 19:02:03.012243,25.1,0.014199508634697934,0.6895690027081824,0.7026597210314142
0060,cdot_cos,T,S-T,279,55,47179,-0.2948345794394619,0.11927426899869642,-0.29168071073132695,0.0006609403275550778,819.0,10.152224471284882,0.6474371002609318,10.814351390847095,-0.06100939495456209,0.251,0.9999999999964362,2995.743493032616,1.3858612693288208,279,2026-10-07 19:02:03.263244,25.1,0.9638718891096991,0.23813268300474552,0.07276858039200665
0060,cdot_cos,P,T-P,280,56,47599,0.04189810520226685,-0.00227030693590974,0.33673268464172873,0.9997865704671788,838.0,10.25350216447487,0.6485698377285846,10.85266926819459,-0.33978611674818127,0.42,0.9999999999964304,-246.10885554205205,1.3908293399224299,280,2026-10-07 19:02:03.683244,25.1,0.4402345383555313,0.16098340735967748,0.24113736473806807
0060,cdot_cos,Q,P-Q,281,56,47693,-0.0163964342385877,-0.013765163579281016,-0.05829453944085455,0.18797945906899877,838.0,10.28745053346701,0.6487826283275029,10.875599427276432,-0.11461960733688822,0.094,0.999999999996363,1058.1600435164025,1.395796608561877,281,2026-10-07 19:02:03.777244,25.1,0.14023052000418165,0.7184180206290395,0.36115286161851584
0060,cdot_cos,R,Q-R,282,56,47722,0.18076039621418907,0.23609178029332836,0.19715683045277677,0.9929568832103178,838.0,10.38856475235313,0.6499056617206421,10.91379283877577,-0.3431298047994429,0.029,0.9999999999963566,-203.47587067183755,1.4007637167871043,282,2026-10-07 19:02:03.806243,25.1,0.5137808516289114,2.0744976085910998,3.4866972029696184
0060,cdot_cos,S,R-S,283,56,47747,-0.0038832588588956873,-0.00782043791949473,-0.18464365507308475,0.009617034563913952,838.0,10.407771394765295,0.6499165304809033,10.93330922855049,-0.06555592967373523,0.025,0.9999999999962844,25538.687804019464,1.4057308159186352,283,2026-10-07 19:02:03.831244,25.1,0.014492071208538538,0.7528242392000806,0.7682656964865942
0060,cdot_cos,T,S-T,284,56,47998,-0.290623392158816,0.13225898061567185,-0.2867401332999203,0.0007481360123451053,838.0,10.426205964313134,0.6499173759856322,10.952623214519704,-0.06303451762623294,0.251,0.999999999996213,2982.1383149351964,1.4106984844028794,284,2026-10-07 19:02:04.082243,25.1,0.960788961422161,0.24025165718069796,0.07344450019059433
0060,cdot_cos,P,T-P,285,57,48437,0.0331921262826591,-0.00021208594802351276,0.3238155184414751,0.9997048611679689,820.0,10.528377726670005,0.6510463474483401,10.990948631644853,-0.35085972769168566,0.439,0.9999999999962067,-254.9446284276065,1.4156666334908565,285,2026-10-07 19:02:04.521244,25.1,0.4402807523064195,0.15813824366287488,0.23273749967396629
0060,cdot_cos,Q,P-Q,286,57,48533,-0.01796796409189655,-0.016187055746579485,-0.05116009037455565,0.21685001865402795,820.0,10.565051342249138,0.6512910142020076,11.014352504689729,-0.12673113041648437,0.096,0.9999999999961383,916.0566113521503,1.4206339111796649,286,2026-10-07 19:02:04.617243,25.1,0.17058249747234408,0.7217729723632363,0.3820168289493016
0060,cdot_cos,R,Q-R,287,57,48563,0.17270204262270977,0.24703631744678392,0.19067000671460632,0.9917218008011957,820.0,10.666958137363746,0.6524089328468181,11.052530370140447,-0.35393757159829337,0.03,0.9999999999961307,-203.2405866352891,1.4256010206490892,287,2026-10-07 19:02:04.647244,25.1,0.5262708304632966,2.024540971542906,3.3968931704869476
0060,cdot_cos,S,R-S,288,57,48586,-0.003554647778909444,-0.00802339711535698,-0.1762566904016192,0.011843721931046242,820.0,10.686523800541712,0.6524222735692611,11.071995283034108,-0.06834212787262195,0.023,0.9999999999960562,21407.79443891583,1.4305681129208685,288,2026-10-07 19:02:04.670244,25.1,0.01531522740773923,0.8305046090686675,0.8506810077376492
0060,cdot_cos,T,S-T,289,57,48837,-0.2716677300554939,0.09958719694059298,-0.2681130822765844,0.0011935387839193258,820.0,10.705161349380905,0.6524236179534482,11.091223660310018,-0.06521661660011349,0.251,0.9999999999959812,2324.8646499516,1.4355357983290595,289,2026-10-07 19:02:04.921243,25.1,0.9532052028531617,0.24240798620937537,0.07425318262626604
0060,cdot_cos,P,T-P,290,58,49257,0.030594319783303504,-0.0005336943864722556,0.3022620498387974,0.9994931444139241,719.0,10.808212609618819,0.6535485774282735,11.129553781993163,-0.36209786086135287,0.42,0.9999999999959747,-263.9039457908666,1.440503930115345,290,2026-10-07 19:02:05.341243,25.1,0.44047909605718216,0.16679579102827463,0.245360143423604
0060,cdot_cos,Q,P-Q,291,58,49352,-0.020397299838976066,-0.021819207335275023,-0.05099161962227957,0.2175690077448609,719.0,10.845269813844656,0.6537932310704448,11.152900326384426,-0.13101484868178756,0.095,0.9999999999959042,944.5312570403812,1.445471209511763,291,2026-10-07 19:02:05.436243,25.1,0.1713936132496342,0.7343882733516675,0.39007583395617923
0060,cdot_cos,R,Q-R,292,58,49376,0.15523659296300082,0.2876695307125993,0.1756338928019769,0.9879719241507511,719.0,10.947746381555636,0.6549031687441784,11.191013637687359,-0.36408589298678734,0.024,0.9999999999958958,-209.98570444140577,1.450438301904916,292,2026-10-07 19:02:05.460243,25.1,0.5272112220984378,2.5583979581888703,4.269856987957492
0060,cdot_cos,S,R-S,293,58,49406,-0.002377702606993767,-0.008977538534725108,-0.1576142955699946,0.018777888398023627,719.0,10.968072915837721,0.6549242484757605,11.210520745913975,-0.07262247402619006,0.03,0.9999999999958183,13826.713961042915,1.4554054113488706,293,2026-10-07 19:02:05.490243,25.1,0.01807175139992004,0.6520662188305753,0.6775511427361991
0060,cdot_cos,T,S-T,294,58,49636,-0.2725113719780623,-0.009162915624116568,-0.27013366937106853,0.001134582737186145,719.0,10.98687035468547,0.6549255221191322,11.229656848570249,-0.06727911863999829,0.23,0.9999999999957404,4195.330894528094,1.4603730577317577,294,2026-10-07 19:02:05.720243,25.1,0.9236512531585465,0.2668358384678464,0.08172799499021104
0060,cdot_cos,P,T-P,295,59,49976,0.03562958728503627,0.0003456863051999639,0.3081409592630986,0.9995626494557681,718.0,11.09081740153293,0.6560467308892316,11.267996412169099,-0.37354576770623293,0.34,0.9999999999957342,-273.1575574806593,1.4653410049163709,295,2026-10-07 19:02:06.060243,25.1,0.4404798575170261,0.20433411108445287,0.3057266083748847
0060,cdot_cos,Q,P-Q,296,59,50072,-0.022204899651319776,-0.02430726798546879,-0.057834486936356046,0.18974843236674793,718.0,11.125817550222898,0.6562593758264097,11.29073760306737,-0.1265315122636803,0.096,0.999999999995661,1161.6277289295172,1.470308292211875,296,2026-10-07 19:02:06.156243,25.1,0.14196204411047775,0.7207438250400785,0.3645848821871578
0060,cdot_cos,R,Q-R,297,59,50097,0.15469768462744313,0.2983824522129732,0.1769025842787629,0.9883445197656882,718.0,11.229200215940626,0.6573659674474366,11.328864436468065,-0.3754951194226293,0.025,0.9999999999956541,-224.9823714803819,1.4752753866153152,297,2026-10-07 19:02:06.181243,25.1,0.515288910209606,2.478177185544439,4.135306628709117
0060,cdot_cos,S,R-S,298,59,50128,-0.002223508311533433,-0.008743250836567138,-0.15692119293897655,0.019101128635845524,718.0,11.24972640950012,0.6573873370671401,11.34828943494029,-0.07496407884538664,0.031,0.9999999999955749,14063.471636193088,1.4802424985799771,298,2026-10-07 19:02:06.212243,25.1,0.018151525961511993,0.6375501292834237,0.6621352761127107
0060,cdot_cos,T,S-T,299,59,50355,-0.2572150603838117,-0.006646429246594218,-0.25499155207227825,0.0016583242775416972,718.0,11.268728323956198,0.6573891923074634,11.367346301707702,-0.06951909326114143,0.227,0.9999999999954947,2934.9219699408454,1.485210153010205,299,2026-10-07 19:02:06.439244,25.1,0.9246651573934298,0.27271041697138626,0.08370887425585127
0060,cdot_cos,P,T-P,300,60,50694,0.0359783232045698,-0.0005122357754733965,0.2931933835883815,0.9993636682189921,759.0,11.37353693880513,0.6585063478563501,11.405689408576315,-0.38494907224558184,0.339,0.9999999999954893,-282.3509933766907,1.4901781229804678,300,2026-10-07 19:02:06.778244,25.1,0.4406928912822675,0.20665984536741722,0.3091699553065814
0060,cdot_cos,Q,P-Q,301,60,50787,-0.021819776626502363,-0.02069153173479525,-0.05779809983107216,0.18988888903209458,759.0,11.408843699115307,0.6587184200521938,11.428362977332846,-0.13044089027621925,0.093,0.9999999999954156,1200.101601988849,1.4951454070971284,301,2026-10-07 19:02:06.871244,25.1,0.1421122512105168,0.7525965616379503,0.37964258398040607
0060,cdot_cos,R,Q-R,302,60,50813,0.17723742354516617,0.27530854380797315,0.19905720017166853,0.9932827446768513,759.0,11.513519899269788,0.6598267045211497,11.46659122185646,-0.38849125510951726,0.026,0.9999999999954093,-232.83766222621463,1.5001125036850649,302,2026-10-07 19:02:06.897243,25.1,0.5146659369726649,2.397283263390453,4.026007698249269
0060,cdot_cos,S,R-S,303,60,50842,-0.002628590690434874,-0.007369920994846113,-0.17986601423560103,0.010829027214671277,759.0,11.53350242881161,0.6598387777199461,11.485770079707645,-0.07456455407883424,0.029,0.9999999999953277,26001.949137306845,1.505079609800971,303,2026-10-07 19:02:06.926244,25.1,0.014844391658140013,0.6736108454382469,0.6890527428214674
0060,cdot_cos,T,S-T,304,60,51073,-0.28599998202299437,0.05900170703943001,-0.2833713913325595,0.0008140926753378293,759.0,11.552589328305206,0.6598396853371921,11.504723683419696,-0.07134317299947476,0.231,0.999999999995246,3549.2726629606714,1.5100472918828274,304,2026-10-07 19:02:07.157243,25.1,0.9558509200829293,0.2700899524442793,0.0826272705350466
0060,cdot_cos,P,T-P,305,61,51453,0.020174533418314926,0.00128413464662187,0.3061745154413093,0.9995405313807638,801.0,11.658283986840868,0.660953168406861,11.54307688779698,-0.39656892459492765,0.38,0.9999999999952417,-292.0796556809273,1.5150154051867117,305,2026-10-07 19:02:07.537244,25.1,0.44038808379827266,0.19279940962332145,0.2781438382517402
0060,cdot_cos,Q,P-Q,306,61,51554,-0.023567745267376677,-0.02315069536649392,-0.0437422786856916,0.250127726804276,801.0,11.69911687961893,0.6612315316298184,11.566854535704465,-0.1541115654021118,0.101,0.9999999999951693,871.0107485353396,1.5199827171702744,306,2026-10-07 19:02:07.638243,25.1,0.2073683314361724,0.7232429070461963,0.40428606710953474
0060,cdot_cos,R,Q-R,307,61,51577,0.1595033088271711,0.2548100388775436,0.18307105409454777,0.989999639709197,801.0,11.8043790540642,0.6623321912611256,11.605024405398238,-0.3991297269027607,0.023,0.9999999999951634,-222.6102916208942,1.5249498039665461,307,2026-10-07 19:02:07.661243,25.1,0.5412462034612858,2.736549736109093,4.5766162802290715
0060,cdot_cos,S,R-S,308,61,51606,-0.004175054017105795,-0.010847101012770196,-0.1636783628442769,0.016169499476213427,801.0,11.824998167479949,0.6623501536035722,11.624224928691612,-0.07859970896094283,0.029,0.9999999999950795,17844.555569271954,1.5299169093425287,308,2026-10-07 19:02:07.690243,25.1,0.016941227171668998,0.6995134982261368,0.711003910887918
0060,cdot_cos,T,S-T,309,61,51852,-0.19220371553095958,0.05047288577042102,-0.18802866151385378,0.008840610667202963,801.0,11.844950836961315,0.6623599742460621,11.643252737205767,-0.07618874887651238,0.246,0.9999999999949954,245.4992213506251,1.5348846523039466,309,2026-10-07 19:02:07.936243,25.1,0.9688508809888012,0.2566125451842336,0.08110841252587933
0060,cdot_cos,P,T-P,310,62,52254,0.03271673858279095,0.0014203406104685847,0.22492045411375053,0.9964790714791788,896.0,11.951251539710592,0.6634660196767934,11.681552069681805,-0.40741323070870106,0.402,0.9999999999949907,-299.46733888966605,1.5398528604486188,310,2026-10-07 19:02:08.338243,25.1,0.44352818598264904,0.17964119345283017,0.26442960882904626
0060,cdot_cos,Q,P-Q,311,62,52360,-0.018788734292589284,-0.01661702592950256,-0.05150547287538024,0.21538139335027368,896.0,11.98938235649739,0.6637048482802761,11.704590665791358,-0.1469776804350667,0.106,0.999999999994912,1090.4705151555459,1.5448201924192013,311,2026-10-07 19:02:08.444243,25.1,0.1700029566064216,0.6801794249707188,0.3597246866679138
0060,cdot_cos,R,Q-R,312,62,52389,0.16190910448811702,0.21875219629339063,0.1806978387807063,0.989392352366894,896.0,12.095449577804384,0.6648008735033795,11.742752993405782,-0.4106416262366098,0.029,0.999999999994906,-240.56375733305194,1.5497872955161538,312,2026-10-07 19:02:08.473243,25.1,0.5261978586660458,2.1860339429181983,3.6574903898963287
0060,cdot_cos,S,R-S,313,62,52411,-0.003703417897989787,-0.007537183136276753,-0.1656125223861068,0.015415073752601385,896.0,12.116172325186646,0.6648179359427365,11.761858290860458,-0.08064903786446793,0.022,0.9999999999948178,19340.293698130805,1.554754378484304,313,2026-10-07 19:02:08.495244,25.1,0.016710610380012127,0.92578313255168,0.9419430628300903
0060,cdot_cos,T,S-T,314,62,52651,-0.19759738765556853,0.11861188760316914,-0.19389396975757875,0.007639618657859508,896.0,12.136184035636658,0.6648263918263698,11.780782015376788,-0.0780118768144615,0.24,0.9999999999947307,311.87291173477337,1.5597221208725796,314,2026-10-07 19:02:08.735244,25.1,0.9667603817566865,0.2650692151528652,0.08338212687504973
0060,cdot_cos,P,T-P,315,63,53150,0.036250073804909945,7.754797130770513e-05,0.23384746146047847,0.9971838691812221,898.0,12.243405548460021,0.6659292115893384,11.819099815508807,-0.4194870614911517,0.499,0.9999999999947258,-309.63825290681433,1.5646906554832516,315,2026-10-07 19:02:09.234244,25.1,0.443068756383767,0.145743731544417,0.2148727711891049
0060,cdot_cos,Q,P-Q,316,63,53252,-0.015818719067838074,-0.013339567099668728,-0.052068792872748015,0.21300157265155975,898.0,12.281636279717986,0.6661645428582058,11.842029773155224,-0.15041125809833739,0.102,0.9999999999946411,1143.3916312429762,1.5696579797604544,316,2026-10-07 19:02:09.336244,25.1,0.1671382554413512,0.712005897165399,0.37481109076436114
0060,cdot_cos,R,Q-R,317,63,53281,0.16945927124311758,0.21597847524077896,0.18527799031095565,0.9905334354928704,898.0,12.388654751481763,0.6672578290474326,11.88021785542843,-0.4228420627703727,0.029,0.9999999999946325,-249.18526123952256,1.5746250808002955,317,2026-10-07 19:02:09.365243,25.1,0.5250378021934746,2.2010748000856704,3.690292129785398
0060,cdot_cos,S,R-S,318,63,53303,-0.004198004170946381,-0.007684152187003202,-0.17365727541406395,0.012632148760916399,898.0,12.409298618122955,0.6672717599973889,11.899190010103007,-0.08198676970539047,0.022,0.9999999999945391,24467.483849615946,1.5795921611154353,318,2026-10-07 19:02:09.387244,25.1,0.015647522997168144,0.914638166752958,0.9383575745996515
0060,cdot_cos,T,S-T,319,63,53550,-0.2729326739606647,0.16392919765209457,-0.2687346697897183,0.0011750835984821798,898.0,12.428898830818893,0.6672730558848364,11.917907844341878,-0.07796810102172644,0.247,0.999999999994447,3101.0939192235005,1.5845599415489329,319,2026-10-07 19:02:09.634243,25.1,0.9497633105163225,0.25889853138006746,0.07935308783780491
0060,cdot_cos,P,T-P,320,64,54048,0.049441669852605626,-0.002672841264091515,0.3223743438132703,0.9996939928479875,839.0,12.537194492624709,0.6683746045885651,11.956278859209702,-0.43228781219144796,0.498,0.9999999999944398,-321.65596488867425,1.5895285118242917,320,2026-10-07 19:02:10.132244,25.1,0.44059092255163357,0.14345035505085876,0.2174611682847701
0060,cdot_cos,Q,P-Q,321,64,54142,-0.014134548476126801,-0.011914901390613962,-0.06357621832873242,0.1685746161730173,839.0,12.571775384449548,0.6685601734848758,11.978271753164863,-0.1387887671149401,0.094,0.999999999994346,1581.6176682167259,1.5944958150076811,321,2026-10-07 19:02:10.226244,25.1,0.12066736418154213,0.7587498328376494,0.3678818279238278
0060,cdot_cos,R,Q-R,322,64,54171,0.1825239352213428,0.23846397954877546,0.1966584836974696,0.9928688632525222,839.0,12.679839461198187,0.6696520709703218,12.016508456726092,-0.4354465848449559,0.029,0.9999999999943363,-271.69017392586574,1.599462913948339,322,2026-10-07 19:02:10.255244,25.1,0.5059726924357804,2.217044732014665,3.7263474740909746
0060,cdot_cos,S,R-S,323,64,54196,-0.002486472120079428,-0.005060674654137774,-0.18501040734142224,0.009529751148800543,839.0,12.700363978906399,0.6696625423862862,12.03534133057693,-0.08312399040314712,0.025,0.999999999994238,33646.127289586824,1.604430001160169,323,2026-10-07 19:02:10.280244,25.1,0.014428948460730843,0.8044239171982426,0.8209807083284915
0060,cdot_cos,T,S-T,324,64,54448,-0.2992338279471341,0.13484694550492207,-0.2967473558270547,0.000582057767382298,839.0,12.720060657058099,0.6696631819535703,12.053968965558145,-0.07989759979844183,0.252,0.9999999999941402,5044.646098617616,1.609397814148805,324,2026-10-07 19:02:10.532243,25.1,0.960422899631399,0.25563995753794994,0.07816142123690413
0060,cdot_cos,P,T-P,325,65,54887,0.0412132086687114,-0.0014478631589205666,0.3404470366158455,0.9998055654727679,763.0,12.829206517505526,0.6707608444435447,12.092345274448611,-0.44423058663755993,0.439,0.999999999994131,-331.9171331504966,1.614366232772534,325,2026-10-07 19:02:10.971244,25.1,0.4403682997707876,0.16501230691868846,0.24862382789846676
0060,cdot_cos,Q,P-Q,326,65,54984,-0.019605248087944564,-0.01987089933016621,-0.06081845675665597,0.17850001050887732,763.0,12.864941462532707,0.6709566198732386,12.114470341114398,-0.14622409045329157,0.097,0.9999999999940357,1522.18537663344,1.619333549671594,326,2026-10-07 19:02:11.068243,25.1,0.1302874248416767,0.7435876663060256,0.368401495125583
0060,cdot_cos,R,Q-R,327,65,55008,0.15844785153374533,0.2665493700495787,0.1780530996216899,0.988672534312568,763.0,12.973462524768895,0.6720399012434989,12.152625795041153,-0.4457992251957872,0.024,0.9999999999940244,-276.5441583016633,1.624300630666784,327,2026-10-07 19:02:11.092243,25.1,0.510688410998902,2.7064160621902422,4.521710926507809
0060,cdot_cos,S,R-S,328,65,55039,-0.002262000786699317,-0.006844948494310212,-0.16070985232044466,0.01739854030242714,763.0,12.994849433517839,0.6720589483477456,12.171538519991266,-0.08829565674425405,0.031,0.999999999993923,18769.444626374647,1.6292677356559286,328,2026-10-07 19:02:11.123244,25.1,0.017440901128330952,0.666397213010016,0.6899002822240071
0060,cdot_cos,T,S-T,329,65,55286,-0.2610966258303351,0.03768535020638414,-0.2588346250436358,0.0015060630465604206,763.0,13.014779151975516,0.6720605970881511,12.190108453605225,-0.08241037378999022,0.247,0.9999999999938209,3569.5631249800113,1.6342355500133992,329,2026-10-07 19:02:11.370244,25.1,0.931076024492582,0.262900381863136,0.08068711926184928
0060,cdot_cos,P,T-P,330,66,55650,0.03302135141031441,0.003035925046273064,0.29411797724064953,0.9993782566465812,695.0,13.124722222158228,0.6731537144559574,12.228478304057445,-0.4561067071406157,0.364,0.9999999999938118,-341.862954844989,1.6392037549919491,330,2026-10-07 19:02:11.734244,25.1,0.4407322296465906,0.20375931914526937,0.30204140160085835
0060,cdot_cos,Q,P-Q,331,66,55753,-0.020993374666705734,-0.026369673489426378,-0.054014726077020146,0.2049287094292538,695.0,13.163115936313272,0.6733776332583797,12.25106690430455,-0.1601266145623113,0.103,0.9999999999937176,1321.8188440470794,1.644171096986901,331,2026-10-07 19:02:11.837244,25.1,0.1574869228461839,0.7146122413473781,0.3727545063596473
0060,cdot_cos,R,Q-R,332,66,55775,0.14012792414057698,0.3272716725237965,0.1611212988072827,0.9827771364609776,695.0,13.271932343875788,0.6744503817487363,12.289105589937785,-0.4556015081323155,0.022,0.9999999999937061,-275.43724948221393,1.6491381699510161,332,2026-10-07 19:02:11.859244,25.1,0.5228095627949007,2.986171982791174,4.9462003437507365
0060,cdot_cos,S,R-S,333,66,55814,-0.0001623302631152576,-0.0014211061242059926,-0.14029025440369225,0.028712627098224332,695.0,13.294507503556083,0.6744816955545924,12.308170735332293,-0.09498481121651323,0.039,0.9999999999936029,11516.220627195597,1.654105301223402,333,2026-10-07 19:02:11.898243,25.1,0.022447585201332273,0.5456184599001591,0.5788502482127037
0060,cdot_cos,T,S-T,334,66,56045,-0.31181859541859863,-0.04986241189458499,-0.3116562651554834,0.00040042952874635724,695.0,13.314490583748,0.6744821322494349,12.326645593016652,-0.08421331738308463,0.231,0.9999999999934975,24665.951563640163,1.6590730800929854,334,2026-10-07 19:02:12.129244,25.1,0.8799349893972442,0.2831256736340088,0.08650684065764921
0060,cdot_cos,P,T-P,335,67,56345,0.04479011233159533,-2.801461548080111e-05,0.35660870775019393,0.9998703935723688,798.0,13.425311564774995,0.6755716102159726,12.365025999964699,-0.4685046046163682,0.3,0.999999999993489,-352.7297467561862,1.6640410969539372,335,2026-10-07 19:02:12.429244,25.1,0.44032119823580307,0.2437473648432172,0.36940327008998375
0060,cdot_cos,Q,P-Q,336,67,56441,-0.018620728382017754,-0.017204108304663922,-0.06341084071361308,0.16915720636420817,798.0,13.46073900265393,0.6757557396391327,12.386843297014323,-0.15054722152787758,0.096,0.9999999999933912,1726.814637397412,1.6690084213969012,336,2026-10-07 19:02:12.525243,25.1,0.12099440572513535,0.7601595413697093,0.36903581123890844
0060,cdot_cos,R,Q-R,337,67,56465,0.1763599615287662,0.26377290949816035,0.19498068991078396,0.9925644198951198,798.0,13.57126219671798,0.676835059678476,12.425076161730107,-0.4713919069423647,0.024,0.9999999999933825,-297.26556880172546,1.673975500496847,337,2026-10-07 19:02:12.549243,25.1,0.5062966226550017,2.742909442541519,4.6051330860020405
0060,cdot_cos,S,R-S,338,67,56494,-0.0024100952915137998,-0.00596871236935349,-0.17877005682028,0.011127692094136402,798.0,13.592398655895924,0.6768471493492785,12.443719557081037,-0.09058652648702178,0.029,0.999999999993276,31498.407746370784,1.6789425979168582,338,2026-10-07 19:02:12.578244,25.1,0.014939074395318932,0.7114846858946359,0.7288434199291012
0060,cdot_cos,T,S-T,339,67,56724,-0.3130681815880313,0.10703999394044311,-0.3106580862965175,0.0004105845693074238,798.0,13.612528308499869,0.6768475954239835,12.462122012261853,-0.08640257131938663,0.23,0.9999999999931689,9379.49433166493,1.683910390981666,339,2026-10-07 19:02:12.808243,25.1,0.9527297764987191,0.28645710490942206,0.08752022871280411
