record_id,input,event,transition,event_index,k,peak,value_cos,value_sin,value_return,x_input,rr,knowledge,decision,decision_norm,entropy,delta_t,cosine_similarity,delta_h_over_delta_d,frobenius_norm,matrix_size,timestamp,scale,P,zdot,zdot_back
0214,cdot_cos,Q,P-Q,1,0,1011,-0.0779088221204691,-0.13980474948207075,-0.0851454899304526,0.011316211354796065,841.0,5.6209223383936216e-05,0.5000140523058423,0.5000140523058423,,,1.0,,0.004967141530112327,1,2026-10-08 00:16:17.095244,52.5,,,
0214,cdot_cos,R,Q-R,2,0,1064,-0.03335941906194827,0.08906463281507179,0.04454940305852083,0.9120433675041281,841.0,0.006486230698680289,0.5011466124178722,0.7087283360186878,-7.586377242240587e-06,,0.9999999999999998,,0.009934283060224654,2,2026-10-08 00:16:17.148243,52.5,,,
0214,cdot_cos,S,R-S,3,0,1086,0.10727893288082618,-0.07856722417226428,0.14063835194277446,0.9993789721920473,841.0,0.016541976367099424,0.5023876104788535,0.8701608664424968,-4.175890049293776e-05,0.022,1.0000000000000002,-0.027536322839759406,0.014901424594974415,3,2026-10-08 00:16:17.170244,52.5,0.4411681891056419,0.28671480247193404,0.4570793485645061
0214,cdot_cos,T,S-T,4,0,1323,-0.07614733557143444,-0.06102702624180733,-0.18342626845226062,6.573067630657739e-05,841.0,0.019101682007445386,0.5023876921003853,1.0047753842016092,-1.64530700226888e-05,0.237,1.0,310.0386616857123,0.019868566240961536,4,2026-10-08 00:16:17.407244,52.5,0.21479712257142242,0.03326137411931357,0.010800445739856383
0214,cdot_cos,P,T-P,5,1,1645,0.004913513950277729,-3.4869880180309924e-05,0.08106084952171216,0.9860151152663279,854.0,0.032307867699654054,0.5036120665700031,1.1261108151656671,-0.0001224286571215101,0.322,1.0,-0.08655488147502477,0.02483570800407969,5,2026-10-08 00:16:17.729243,52.5,0.4207943866504989,0.025411036255637214,0.041012999044126294
0214,cdot_cos,Q,P-Q,6,1,1850,-0.09192914919467461,-0.16514647586197723,-0.09684266314495234,0.006155469103525794,854.0,0.03546638935607575,0.5036197099417999,1.2336113138313491,-3.8602054082076464e-05,0.205,0.9999999999999999,10.967228242690009,0.02980284973375616,6,2026-10-08 00:16:17.934243,52.5,0.11399985581611335,0.04568817270731574,0.015407422714252193
0214,cdot_cos,R,Q-R,7,1,1906,-0.026481520195142088,0.07620714181265704,0.06544762899953252,0.9688108925688547,854.0,0.051040018509653506,0.5048226788196627,1.3356352644497045,-0.00024293061733343657,0.056,0.9999999999999998,-0.1698535739464674,0.03476999128192168,7,2026-10-08 00:16:17.990243,52.5,0.43123657569942236,0.29594267783017547,0.2781005205996027
0214,cdot_cos,S,R-S,8,1,1928,0.15037895059081166,-0.10028472798994362,0.17686047078595374,0.9999072188906263,854.0,0.0686119692730554,0.5060642011817928,1.4313657136005764,-0.0003791059136496642,0.022,0.9999999999999999,-0.10968412689932022,0.03973713280589615,8,2026-10-08 00:16:18.012243,52.5,0.6982338577123809,0.49396783537984756,0.7987250347000864
0214,cdot_cos,T,S-T,9,1,2161,-0.041754093812939264,-0.03081854992334179,-0.19213304440375092,4.161597508117917e-05,854.0,0.0727746032663668,0.5060642528523005,1.5181927586822916,-0.00010611995454499692,0.233,1.0000000000000002,5283.206446356766,0.0447042751560131,9,2026-10-08 00:16:18.245243,52.5,0.07634993053601852,0.04889526899848864,0.017865381945542446
0214,cdot_cos,P,T-P,10,2,2499,0.009019955100874819,-0.0005177081654499685,0.05077404891381408,0.9349682870079897,840.0,0.09139716462635111,0.5072250772371674,1.6039865307884549,-0.000551228606561532,0.338,1.0000000000000002,-0.3834418520313772,0.04967141809305478,10,2026-10-08 00:16:18.583244,52.5,0.4459784374609954,0.03432104002320968,0.05509633538456898
0214,cdot_cos,Q,P-Q,11,2,2710,-0.08500306496613265,-0.15218516522252962,-0.09402302006700747,0.007130566009292854,840.0,0.09597562632205654,0.5072339300186315,1.6823046275380185,-0.00015467486557090208,0.211,1.0,44.794253941304234,0.05463856053176702,11,2026-10-08 00:16:18.794244,52.5,0.07701237600976292,0.06021945341323345,0.021698870595760332
0214,cdot_cos,R,Q-R,12,2,2752,-0.023033829612639202,0.07522456885321945,0.06196923535349345,0.962794552387964,840.0,0.11680977396673563,0.5084292203324329,1.7612504843375072,-0.0007992426830862442,0.042,0.9999999999999999,-0.5392562878430923,0.05960570202577594,12,2026-10-08 00:16:18.836244,52.5,0.44642975411471053,0.5179536004893353,0.49605113439712106
0214,cdot_cos,S,R-S,13,2,2772,0.1327556617892481,-0.10120016997337525,0.1557894914018873,0.9997195818724647,840.0,0.1394837287631607,0.5096702501742243,1.837642221607109,-0.0010475793877075014,0.02,1.0,-0.20010534497928326,0.06457284344857593,13,2026-10-08 00:16:18.856243,52.5,0.7889458064038023,0.6985022299229457,1.1336977398212538
0214,cdot_cos,T,S-T,14,2,3019,-0.0597827885598779,-0.043072946867092864,-0.192538450349126,4.0739623701957876e-05,840.0,0.14474986316365346,0.50967030074517,1.9070116466466538,-0.0002698294897309088,0.247,1.0,15379.382131956572,0.06953998721250536,14,2026-10-08 00:16:19.103244,52.5,0.05600157553773726,0.05871640745309138,0.02132038218822978
0214,cdot_cos,P,T-P,15,3,3339,0.0063865136492264,0.00027982645732353516,0.0661693022091043,0.969935612713091,858.0,0.16848963404498785,0.5108742436551034,1.9786074395230784,-0.001340392918855426,0.32,0.9999999999999999,-0.8892144472064056,0.07450713200033854,15,2026-10-08 00:16:19.423244,52.5,0.44991628953051027,0.04603291235903344,0.07418678400416996
0214,cdot_cos,Q,P-Q,16,3,3549,-0.08144293935933052,-0.15627146261421046,-0.08782945300855692,0.009843552530599948,858.0,0.17421092707343486,0.5108864614465367,2.0435458486920415,-0.0003534171567267235,0.21,0.9999999999999997,80.78184731776359,0.07947427566871422,16,2026-10-08 00:16:19.633244,52.5,0.061257737689394,0.07282775903061697,0.02724425251641434
0214,cdot_cos,R,Q-R,17,3,3605,-0.024382029131718087,0.066485421883689,0.05706091022761243,0.9523793883382144,858.0,0.19907729283784698,0.5120684885237731,2.1113124694174443,-0.0016729696538106058,0.056,0.9999999999999993,-1.1163470977069878,0.08444141734423956,17,2026-10-08 00:16:19.689243,52.5,0.45441308543264564,0.46160975598556653,0.44404224579307355
0214,cdot_cos,S,R-S,18,3,3626,0.11885129054547458,-0.08719535752597667,0.14323331967719266,0.9994580253910528,858.0,0.2259112197438183,0.5133088009672506,2.1777848078594304,-0.002055124659321961,0.021,0.9999999999999994,-0.30811188545353907,0.0894085586144281,18,2026-10-08 00:16:19.710243,52.5,0.8303132612573659,0.7863248680136943,1.277806043141492
0214,cdot_cos,T,S-T,19,3,3859,-0.06745951479302326,-0.05048604940512366,-0.18631080533849784,5.6494132430100955e-05,858.0,0.23210293729442213,0.5133088710711345,2.237461499676605,-0.0005110539887899585,0.233,0.9999999999999991,22025.4654120276,0.09437570409829096,19,2026-10-08 00:16:19.943244,52.5,0.04873560035836771,0.07290766901079089,0.026573895066969208
0214,cdot_cos,P,T-P,20,4,4197,0.0059884231561612876,0.0002862122807336284,0.07344793794918454,0.97928605695595,880.0,0.25988619350284686,0.5145239915361359,2.3010212477458443,-0.002462955686389714,0.338,0.9999999999999991,-1.6063441887611787,0.09934285207974544,20,2026-10-08 00:16:20.281244,52.5,0.45270988799848894,0.050994123649963134,0.08219898286516192
0214,cdot_cos,Q,P-Q,21,4,4408,-0.07818901632854837,-0.13707869265496153,-0.08417743948470965,0.01189917616642222,880.0,0.2665749648817972,0.5145387552785253,2.35791280199346,-0.0006344974588187312,0.211,0.9999999999999986,123.84788215240438,0.10430999751083218,21,2026-10-08 00:16:20.492243,52.5,0.05603703897951469,0.0834309451873509,0.03170033828886423
0214,cdot_cos,R,Q-R,22,4,4462,-0.020067491909053586,0.06641593761123456,0.05812152441949478,0.9548420690579819,880.0,0.29509405237190894,0.5157233777775071,2.4189570684116513,-0.002885831434745443,0.054,0.9999999999999983,-1.9004653194260828,0.1092771392547971,22,2026-10-08 00:16:20.546243,52.5,0.45834478668770523,0.5452429880719718,0.5281312498168839
0214,cdot_cos,S,R-S,23,4,4484,0.08686024391020358,-0.0816634715993177,0.10692773581925717,0.9963657300254926,880.0,0.32546120759357017,0.5169593279400401,2.4792498510474617,-0.0033944482317288653,0.022,0.9999999999999981,-0.41151885602009736,0.11424428032340891,23,2026-10-08 00:16:20.568243,52.5,0.8608475586388751,0.8493455022926243,1.3803252373482375
0214,cdot_cos,T,S-T,24,4,4717,-0.07872339012880668,-0.04696089401396723,-0.16558363403901027,0.00016770425691162464,880.0,0.3324652544727844,0.5169595359531425,2.5325741714069796,-0.0008300629041362377,0.233,0.9999999999999981,12327.999043748845,0.11921142825881341,24,2026-10-08 00:16:20.801243,52.5,0.04552986759067153,0.08252689856428917,0.03006028703525426
0214,cdot_cos,P,T-P,25,5,5077,0.009629707060929065,-0.0006246511325105508,0.08835309718973575,0.9904208168907076,859.0,0.3639187423245289,0.5181879060887311,2.5909395433027163,-0.003944819226985655,0.36,0.9999999999999982,-2.535682228513996,0.12417858089895316,25,2026-10-08 00:16:21.161243,52.5,0.45403476443114743,0.05392508611985326,0.0873707995881792
0214,cdot_cos,Q,P-Q,26,5,5267,-0.08606264546257093,-0.12453070136515515,-0.0956923525235,0.006536155585799293,859.0,0.37129131647907876,0.5181960118466548,2.6422915938713825,-0.0009762017677787268,0.19,0.999999999999997,366.2356422643599,0.12914572780468192,26,2026-10-08 00:16:21.351244,52.5,0.04778767165067842,0.10432506769507659,0.03880302186605178
0214,cdot_cos,R,Q-R,27,5,5327,-0.01524548627510733,0.06442894683016058,0.0708171591874636,0.9762908815460355,859.0,0.403562268048658,0.5194066407918808,2.698916095077901,-0.004502577787535758,0.06,0.9999999999999966,-2.9128462801610664,0.13411286992396027,27,2026-10-08 00:16:21.411244,52.5,0.4569458106575171,0.5492368046629101,0.5378491928263212
0214,cdot_cos,S,R-S,28,5,5348,0.10344130028587327,-0.0964490059001954,0.1186867865609806,0.9980364902815072,859.0,0.43719973303862797,0.5206439993007433,2.7549891082193247,-0.0050914315876575845,0.021,0.9999999999999967,-0.4758958668035057,0.1390800106594512,28,2026-10-08 00:16:21.432243,52.5,0.8907817414596332,0.9852615735576264,1.601784047141426
0214,cdot_cos,T,S-T,29,5,5577,-0.06056489051371704,-0.03546111256414024,-0.1640061907995903,0.00018218148178350218,859.0,0.44494325413807834,0.5206442251453857,2.8037549790810705,-0.0012297619025563443,0.229,0.9999999999999959,17098.788111228896,0.14404716147458674,29,2026-10-08 00:16:21.661243,52.5,0.04327515007982296,0.09138491892142843,0.033814502617687196
0214,cdot_cos,P,T-P,30,6,5936,0.008604410102522851,-0.00032444275533925277,0.06916930061623988,0.9742036732052172,862.0,0.4790540259046422,0.5218517917293207,2.858300005533583,-0.0056730484549916416,0.359,0.9999999999999957,-3.679537519128838,0.1490143192685455,30,2026-10-08 00:16:22.020243,52.5,0.4569289719440348,0.05907104155778715,0.095016077344189
0214,cdot_cos,Q,P-Q,31,6,6146,-0.07262407505366275,-0.1231491861756805,-0.08122848515618561,0.013864044474571919,862.0,0.4873562619765695,0.5218689749882919,2.9056435141465107,-0.0014441409072926807,0.21,0.9999999999999943,246.10625695615343,0.15398146970056903,31,2026-10-08 00:16:22.230243,52.5,0.053486789229941094,0.10133260877189482,0.03953445748536817
0214,cdot_cos,R,Q-R,32,6,6195,-0.019644467833909614,0.06618767580502183,0.05297960721975314,0.9416640139795056,862.0,0.521613721588838,0.5230359611322082,2.9587382370753907,-0.006220067955991544,0.049,0.9999999999999931,-4.092531066968171,0.15894861143481162,32,2026-10-08 00:16:22.279244,52.5,0.46402096626658573,0.7221925672806143,0.6991318288218061
0214,cdot_cos,S,R-S,33,6,6216,0.08719861803168001,-0.080353974161856,0.10684308586558963,0.9963496020315288,862.0,0.5581311335700697,0.5242704440276614,3.0117044477814563,-0.007093836690155368,0.021,0.9999999999999931,-0.707801410114325,0.16391575178691814,33,2026-10-08 00:16:22.300243,52.5,0.8841107495858095,1.069392513725432,1.7389243800586527
0214,cdot_cos,T,S-T,34,6,6455,-0.08380128130980095,-0.054502568537860216,-0.17099989934148097,0.00012620273626385195,862.0,0.5665282071653062,0.5242706003751134,3.0569966890836806,-0.0016990610851032744,0.239,0.9999999999999919,34505.04332855683,0.16888290677960446,34,2026-10-08 00:16:22.539244,52.5,0.04178779115221417,0.09583965723497094,0.03513419914324874
0214,cdot_cos,P,T-P,35,7,6798,0.007403842409589681,0.00015226009297379133,0.09120512371939063,0.9917419052427487,856.0,0.6039424897283858,0.5254990798233605,3.108894527908927,-0.007876831023171712,0.343,0.9999999999999911,-5.02879388571242,0.17385006952967144,35,2026-10-08 00:16:22.882244,52.5,0.4564407565765839,0.06745761768606033,0.10907954100023223
0214,cdot_cos,Q,P-Q,36,7,7005,-0.0803439250316525,-0.14009973436050216,-0.08774776744124217,0.009885438976417825,856.0,0.6128041328979436,0.5255113234751342,3.153067997422413,-0.001939397726395083,0.207,0.9999999999999891,484.93973910226214,0.17881722302642283,36,2026-10-08 00:16:23.089243,52.5,0.04681820923210827,0.11102505206753652,0.04280987038433687
0214,cdot_cos,R,Q-R,37,7,7059,-0.024956643887749885,0.07227339973408739,0.05538728114390261,0.9482322581907278,856.0,0.6499068612843459,0.5266856157599823,3.2037035919804917,-0.008424720703640903,0.054,0.9999999999999882,-5.522750222347468,0.18378436524877467,37,2026-10-08 00:16:23.143244,52.5,0.4631071654965676,0.707290622283656,0.6870875627111552
0214,cdot_cos,S,R-S,38,7,7081,0.09414416729496287,-0.07966689246318291,0.11910081118271276,0.9980786280814884,856.0,0.6891915201045784,0.5279213187858968,3.2543256342869307,-0.009457222395036102,0.022,0.9999999999999877,-0.8355581152932009,0.18875150524555034,38,2026-10-08 00:16:23.165244,52.5,0.896572608804902,1.0976679958542417,1.7856663100105667
0214,cdot_cos,T,S-T,39,7,7313,-0.08002976195230121,-0.05556820387824117,-0.1741739292472641,0.00010683359459335007,856.0,0.6982042531019326,0.5279214510365902,3.296868469469191,-0.0022479414293386925,0.232,0.9999999999999863,54512.23566808009,0.1937186639593709,39,2026-10-08 00:16:23.397243,52.5,0.040475473655053565,0.1057084552996197,0.03884798705756106
0214,cdot_cos,P,T-P,40,8,7654,0.010147374192269819,-0.00059704047237239,0.09017713614457104,0.9912879648127516,842.0,0.738240243363602,0.5291484080945595,3.3466284540774787,-0.010335833484470173,0.341,0.9999999999999852,-6.591829765026154,0.19868583327438813,40,2026-10-08 00:16:23.738244,52.5,0.45725689946368275,0.07274073564657145,0.11740759607527675
0214,cdot_cos,Q,P-Q,41,8,7863,-0.07286160106629488,-0.13189540128251537,-0.08300897525856471,0.012642460399028803,842.0,0.7478134348128943,0.529164053934336,3.3883032689336106,-0.0025567939566420745,0.209,0.9999999999999821,497.1953975618589,0.20365299071304474,41,2026-10-08 00:16:23.947244,52.5,0.0477155651945115,0.11366279445893858,0.04580474377651848
0214,cdot_cos,R,Q-R,42,8,7910,-0.03164926891510621,0.09231978975622257,0.04121233215118868,0.8969372093040261,842.0,0.7857512914474383,0.5302739220597225,3.4365678869639624,-0.010453564068628624,0.047,0.9999999999999808,-7.115052618739395,0.20862013246665045,42,2026-10-08 00:16:23.994244,52.5,0.4698160047835862,0.8489309973032797,0.8071884390328503
0214,cdot_cos,S,R-S,43,8,7933,0.12395302953669834,-0.08897612458274404,0.15560229845180457,0.9997168132249769,842.0,0.8276129485594026,0.5315106161812968,3.4853482907881586,-0.012131236853463102,0.023,0.9999999999999798,-1.356578603849719,0.21358727210586628,43,2026-10-08 00:16:24.017244,52.5,0.8708429483000567,1.1181116989659179,1.820072048346275
0214,cdot_cos,T,S-T,44,8,8173,-0.05095356451847483,-0.03763436329039063,-0.17490659405517317,0.0001028026943274706,842.0,0.8371844295998705,0.5315107433331581,3.525643515747384,-0.002862178752350829,0.24,0.9999999999999779,72897.5416411488,0.2185544364101853,44,2026-10-08 00:16:24.257244,52.5,0.03922416215970242,0.10559026724528733,0.039881171001949586
0214,cdot_cos,P,T-P,45,9,8496,0.005097510633649699,9.820866067123038e-06,0.056051075152124534,0.9499164510937035,854.0,0.8782962768371405,0.5326854738630138,3.5733629048337106,-0.012664192566508137,0.323,0.9999999999999762,-8.344053010490095,0.22352161102211646,45,2026-10-08 00:16:24.580243,52.5,0.46116730913044024,0.079054822541854,0.1272812607965016
0214,cdot_cos,Q,P-Q,46,9,8701,-0.08798637444629225,-0.1555569163144491,-0.09308388507994195,0.007488248210444764,854.0,0.8882538449619082,0.5326947329118092,3.612911592401838,-0.0031586599391171936,0.205,0.9999999999999729,1026.6208589440278,0.2284887721398447,46,2026-10-08 00:16:24.785243,52.5,0.04932342677203926,0.12730787400491161,0.04857350304764717
0214,cdot_cos,R,Q-R,47,9,8758,-0.02824218324790381,0.08172508286739547,0.05974419119838843,0.9583762703271906,854.0,0.9304925051791543,0.5338795553140245,3.6600939751522663,-0.013790126576851063,0.057,0.9999999999999709,-8.973046608382793,0.2334559152674971,47,2026-10-08 00:16:24.842243,52.5,0.4625744696078777,0.758679202591166,0.7410291266183525
0214,cdot_cos,S,R-S,48,9,8779,0.12813709333978401,-0.09005543710808611,0.15637927658768783,0.9997281292880895,854.0,0.9747432740573011,0.5351150928316529,3.707386262696616,-0.015128878609083745,0.021,0.9999999999999699,-1.083538146864539,0.23842305414802017,48,2026-10-08 00:16:24.863244,52.5,0.9153124111863655,1.2941637511117245,2.107179470387944
0214,cdot_cos,T,S-T,49,9,9012,-0.05089811435563621,-0.03800511417272945,-0.17903520769542022,8.277113416349058e-05,854.0,0.9848473827258467,0.5351151951086767,3.7458065138612175,-0.0035530436773654798,0.233,0.9999999999999669,113181.18682497632,0.2433902229885568,49,2026-10-08 00:16:25.096244,52.5,0.03846504994441106,0.11469307924788841,0.04336527325556055
0214,cdot_cos,P,T-P,50,10,9350,0.004928273730443841,9.486249846892976e-05,0.05582638808608005,0.9493522630683805,861.0,1.028190248986817,0.5362880758264499,3.792129516564499,-0.015651662224335134,0.338,0.9999999999999655,-10.31530177249362,0.2483574077019079,50,2026-10-08 00:16:25.434243,52.5,0.4616295422649194,0.0797225943008096,0.1282333321330485
0214,cdot_cos,Q,P-Q,51,10,9560,-0.08466883681303172,-0.15935596717976422,-0.08959711054347556,0.008978990245165765,861.0,1.038739856473194,0.5362991670570748,3.8299423099550336,-0.003911574749550372,0.21,0.9999999999999599,1058.5017904505414,0.2533245741775072,51,2026-10-08 00:16:25.644243,52.5,0.04971885125594079,0.1311681383565913,0.050236226125604286
0214,cdot_cos,R,Q-R,52,10,9614,-0.023843835066701978,0.06946632775377427,0.060825001746329745,0.9605818411852606,861.0,1.0832808670965854,0.5374855089596587,3.8758633331652805,-0.01694908790238532,0.054,0.9999999999999575,-10.989676015353059,0.25829171721424476,52,2026-10-08 00:16:25.698244,52.5,0.4633761157566917,0.8431144019641459,0.8248335300628045
0214,cdot_cos,S,R-S,53,10,9636,0.12787614013019474,-0.0945790842075317,0.15171997519689673,0.9996528126275438,861.0,1.1297962118853218,0.538719653739318,3.921938489838773,-0.01845291986760732,0.022,0.9999999999999563,-1.2185215138512757,0.26325885562835627,53,2026-10-08 00:16:25.720243,52.5,0.9217367560530676,1.298313974208462,2.114333854033469
0214,cdot_cos,T,S-T,54,10,9869,-0.06071769552730485,-0.0438953627234157,-0.1885938356574996,5.011318121090338e-05,861.0,1.1404066819617578,0.5387197155959507,3.958765464111884,-0.004317890292342416,0.233,0.9999999999999518,228512.7553371393,0.2682260303306616,54,2026-10-08 00:16:25.953243,52.5,0.037869991003617084,0.1221970341740802,0.04553849818212878
0214,cdot_cos,P,T-P,55,11,10211,0.007163408360253089,0.00031296426846189615,0.06788110388755794,0.9724484415089466,874.0,1.1867400298104431,0.5399198194217605,4.004152781714334,-0.019320785547156005,0.342,0.9999999999999499,-12.501331078325489,0.27319322497573184,55,2026-10-08 00:16:26.295244,52.5,0.4600059749932254,0.08462874063001298,0.1354776252885537
0214,cdot_cos,Q,P-Q,56,11,10437,-0.06523449128289004,-0.13495193040027056,-0.07239789964314312,0.02186223657812647,874.0,1.1982927405526866,0.5399467944579566,4.040592091765059,-0.0049372125181098,0.226,0.9999999999999432,533.2179324798477,0.27816039965493305,56,2026-10-08 00:16:26.521244,52.5,0.05429634643289971,0.1247140401140013,0.051118189124971285
0214,cdot_cos,R,Q-R,57,11,10477,-0.020914244912382043,0.06441132972073055,0.04432024637050799,0.9110734631944671,874.0,1.2431107759419717,0.5410707256286286,4.084994686612034,-0.019599126627783705,0.04,0.9999999999999392,-13.04520640788665,0.28312754034279125,57,2026-10-08 00:16:26.561243,52.5,0.47326955121723147,1.1684003361328825,1.120450884732127
0214,cdot_cos,S,R-S,58,11,10498,0.11401403431348543,-0.09188263744244417,0.13492827922586748,0.9991620674442967,874.0,1.2917647674433173,0.5423028452268713,4.130055716087272,-0.02208206840103498,0.021,0.9999999999999379,-2.015179189416692,0.2880946778711482,58,2026-10-08 00:16:26.582243,52.5,0.8936495885042279,1.4225230858234788,2.3168567381593106
0214,cdot_cos,T,S-T,59,11,10730,-0.06213493336937748,-0.03979359175497051,-0.17614896768286292,9.631204972524522e-05,874.0,1.3028567455465578,0.5423029639696608,4.165508398079139,-0.005152851653220767,0.232,0.9999999999999327,142570.48213645842,0.29306185873772345,59,2026-10-08 00:16:26.814244,52.5,0.03742533639303509,0.1287829607998082,0.04781025044500252
0214,cdot_cos,P,T-P,60,12,11085,0.011073075598264226,-0.0005216540395935608,0.07320800896764171,0.9790289946125064,844.0,1.3515200612544283,0.5435097547340705,4.210008777208703,-0.023117861285855315,0.355,0.9999999999999297,-14.886598540901748,0.29802906624867787,60,2026-10-08 00:16:27.169244,52.5,0.459734939215377,0.08510169165117759,0.13707976255738144
0214,cdot_cos,Q,P-Q,61,12,11298,-0.06998586407011811,-0.12067461397569743,-0.08105893966838235,0.01398626741770382,844.0,1.363278946618894,0.5435269911074777,4.2450818702827,-0.005713268043514533,0.213,0.9999999999999208,1009.7595840575518,0.30299624432752464,61,2026-10-08 00:16:27.382244,52.5,0.04753227388293525,0.13694813073107576,0.05520603457495623
0214,cdot_cos,R,Q-R,62,12,11340,-0.026730925416213986,0.08375233829326674,0.04325493865390413,0.9064368096721073,844.0,1.4098599649458665,0.5446438400835278,4.28853027550636,-0.023109415055190714,0.042,0.9999999999999165,-15.576096128233637,0.3079633853066605,62,2026-10-08 00:16:27.424243,52.5,0.4710584272327768,1.1560232156959354,1.1090718649279188
0214,cdot_cos,S,R-S,63,12,11362,0.07157083444818196,-0.06760836485211599,0.09830175986439595,0.9942958589316233,844.0,1.4603848967373525,0.5458684262494189,4.33269670592437,-0.02593217200201572,0.022,0.9999999999999142,-2.305070092614571,0.31293052228357077,63,2026-10-08 00:16:27.446244,52.5,0.8968635529053964,1.4107534672440385,2.2965878087039084
0214,cdot_cos,T,S-T,64,12,11587,-0.1062381399586593,-0.0769121800790339,-0.17780897440684126,8.827448636527404e-05,844.0,1.4719331175046042,0.545868534944877,4.36694867253191,-0.006055365251080079,0.225,0.9999999999999079,182866.94864975888,0.31789770831559705,64,2026-10-08 00:16:27.671244,52.5,0.037533867813670505,0.13987607827796683,0.0513254256322298
0214,cdot_cos,P,T-P,65,13,11929,0.006857645640706363,-8.17331390479789e-05,0.11309578559936566,0.9973684014697136,854.0,1.5233291319624376,0.5470963479530727,4.410832195923012,-0.027515567248626027,0.342,0.9999999999999049,-17.478396021460508,0.3228649241026644,65,2026-10-08 00:16:28.013243,52.5,0.45843834021301444,0.09277936886511448,0.15028074402875255
0214,cdot_cos,Q,P-Q,66,13,12138,-0.08124156284686868,-0.14942795307527132,-0.08809920848757503,0.00970647264402773,854.0,1.5353942058083425,0.5471082943412346,4.444729271938018,-0.006596026472778611,0.209,0.9999999999998938,1751.1184545726626,0.3278321075355003,66,2026-10-08 00:16:28.222244,52.5,0.04193909581797234,0.1471365043385283,0.05772762605696143
0214,cdot_cos,R,Q-R,67,13,12190,-0.03169561778745956,0.08921928076660499,0.04954594505940912,0.930936334002602,854.0,1.5848321907759424,0.548253804155419,4.487651303677578,-0.027559260553485,0.052,0.9999999999998885,-18.300353101411535,0.3327992511103997,67,2026-10-08 00:16:28.274244,52.5,0.46735775117568895,0.9824689457040015,0.9507304801461516
0214,cdot_cos,S,R-S,68,13,12213,0.1414485324919996,-0.09437287322962758,0.17314415027945915,0.9998872323063488,854.0,1.6375709761615587,0.5494835879159407,4.531158257900123,-0.030347287293421822,0.023,0.9999999999998856,-2.267086970439618,0.3377663876039351,68,2026-10-08 00:16:28.297244,52.5,0.9122230859574176,1.4073566476812465,2.292990668939838
0214,cdot_cos,T,S-T,69,13,12446,-0.04266433905868514,-0.03114401962985036,-0.18411287155068473,6.34036477892091e-05,854.0,1.6495705965692797,0.5494836658785048,4.564354644669689,-0.007043617904343741,0.233,0.9999999999998775,298908.452197698,0.34273358315864577,69,2026-10-08 00:16:28.530244,52.5,0.0365717183364772,0.1346175215843141,0.051500516771335055
0214,cdot_cos,P,T-P,70,14,12783,0.007855558769852297,-0.0005115929298797987,0.05051989782853744,0.9341522783894926,862.0,1.700302741219849,0.5506320549626716,4.60691885131255,-0.030333304318750125,0.337,0.9999999999998737,-20.280309814424694,0.34770080937373987,70,2026-10-08 00:16:28.867244,52.5,0.46403625490917333,0.09339205870729002,0.15054048857735697
0214,cdot_cos,Q,P-Q,71,14,12975,-0.10493449612462213,-0.1503286306875237,-0.11279005489447443,0.0026740649034229513,862.0,1.7125168441379932,0.5506353415241926,4.639736473428378,-0.007440162896752313,0.192,0.9999999999998602,6965.681693828486,0.3526679943699267,71,2026-10-08 00:16:29.059244,52.5,0.04609882727594027,0.1715650576423113,0.06361511936533425
0214,cdot_cos,R,Q-R,72,14,13035,-0.02064611520385596,0.08215021726173985,0.08428838092076618,0.9881691106885011,862.0,1.7661837233544966,0.55184954649799,4.682599327236513,-0.03330523114322195,0.06,0.9999999999998546,-21.30206085845341,0.35763514074807723,72,2026-10-08 00:16:29.119244,52.5,0.4599641267189752,0.9025496112543923,0.8944479869417229
0214,cdot_cos,S,R-S,73,14,13056,0.12251796583933156,-0.10572558705955205,0.1431640810431875,0.9994560527865816,862.0,1.8208227974885203,0.5530769916668242,4.725492544434127,-0.034946069415746,0.021,0.9999999999998513,-1.3367915033487467,0.3626022758544367,73,2026-10-08 00:16:29.140243,52.5,0.954131818231431,1.5969286281060566,2.601860673048747
0214,cdot_cos,T,S-T,74,14,13285,-0.05980116741821178,-0.03485477579767557,-0.18231913325754334,6.966418880889808e-05,862.0,1.833254725734951,0.5530770771999644,4.7577495722121865,-0.008099889318022227,0.229,0.999999999999842,313868.75377340615,0.3675694782653657,74,2026-10-08 00:16:29.369244,52.5,0.036356273235119994,0.1455883373368891,0.0542878962726231
0214,cdot_cos,P,T-P,75,15,13645,0.009280763350904128,-0.0006519186278543848,0.06908193076911591,0.9740881488838605,857.0,1.8875022559888155,0.5542727455125743,4.800143486375001,-0.03597066955267457,0.36,0.9999999999998367,-23.309792473979957,0.3725367248112406,75,2026-10-08 00:16:29.729243,52.5,0.46078689382018867,0.09296891849275846,0.1506875840385126
0214,cdot_cos,Q,P-Q,76,15,13838,-0.09880626670385126,-0.14633611551348705,-0.10808703005475538,0.0034204082997427686,857.0,1.900192347049737,0.5542769428781874,4.832075143640831,-0.008565962133964438,0.193,0.9999999999998207,6529.025571019466,0.37750391664392313,76,2026-10-08 00:16:29.922244,52.5,0.04079253440953542,0.1763699517890046,0.06575176715503399
0214,cdot_cos,R,Q-R,77,15,13898,-0.019233505410388006,0.07372771747113864,0.07957276129346325,0.9848959036854152,857.0,1.9555810573793713,0.5554852368557768,4.874363993465852,-0.038039604777874145,0.06,0.9999999999998143,-24.39277459837354,0.3824710637414968,77,2026-10-08 00:16:29.982244,52.5,0.4607891854247074,0.932376780981344,0.9231451721605703
0214,cdot_cos,S,R-S,78,15,13917,0.11973862095128338,-0.10413947576805778,0.1389721263616714,0.9993222381772323,857.0,2.0120775607674983,0.5567105590792379,4.916735360435239,-0.039904074408072907,0.019,0.99999999999981,-1.5216157795067122,0.3874381971519841,78,2026-10-08 00:16:30.001244,52.5,0.954350961573671,1.8251700442769465,2.973500178322477
0214,cdot_cos,T,S-T,79,15,14161,-0.062279527039950655,-0.03872737971600747,-0.18201814799123403,7.077366811577239e-05,857.0,2.0249375190618952,0.5567106458343503,4.948153284952115,-0.009241900808317202,0.244,0.9999999999997979,353433.62230894616,0.3924054136310819,79,2026-10-08 00:16:30.245243,52.5,0.036234827106899,0.1411746857599596,0.05270474710818402
0214,cdot_cos,P,T-P,80,16,14502,0.006482902436949979,0.00038483060698578137,0.06876242947690063,0.9736613868375151,880.0,2.0809708074183586,0.557903840671845,4.990044541196162,-0.04093322657697906,0.341,0.9999999999997919,-26.56005940756746,0.39737266765775503,80,2026-10-08 00:16:30.586244,52.5,0.461063235345472,0.10187702226194738,0.1643204937139688
0214,cdot_cos,Q,P-Q,81,16,14713,-0.07964062151796682,-0.1484451272104877,-0.08612352395491679,0.010755917740155356,880.0,2.0944176482445434,0.5579170180423277,5.021254139835786,-0.009989300974595008,0.211,0.9999999999997732,2348.262549254876,0.4023398733905578,81,2026-10-08 00:16:30.797244,52.5,0.045152627558163065,0.16413717769367647,0.06372910344163388
0214,cdot_cos,R,Q-R,82,16,14770,-0.021696995363972748,0.06655066505062494,0.057943626153994066,0.9544376400760954,880.0,2.15023669640509,0.559085999051048,5.062740076413027,-0.04213100199139297,0.057,0.9999999999997649,-27.495486048985093,0.40730702001587343,82,2026-10-08 00:16:30.854244,52.5,0.46631260618964393,1.0006323149833662,0.9792815466762583
0214,cdot_cos,S,R-S,83,16,14791,0.10120044418161346,-0.08695602262345156,0.12289743954558621,0.9984253015977658,880.0,2.208489732152647,0.5603081546119693,5.104651265254116,-0.04512300906967349,0.021,0.9999999999997597,-2.4481393154446645,0.4122741530518279,83,2026-10-08 00:16:30.875243,52.5,0.9358427754851297,1.7029104970100486,2.773954083217001
0214,cdot_cos,T,S-T,84,16,15022,-0.07280118159316815,-0.04565520699577995,-0.17400162577478162,0.00010780428364945035,880.0,2.221758937279512,0.5603082865341718,5.135311310125416,-0.010447030947261371,0.231,0.9999999999997453,262851.72220067855,0.4172413737981956,84,2026-10-08 00:16:31.106244,52.5,0.036181097162474474,0.15484919318079574,0.057442446436645124
0214,cdot_cos,P,T-P,85,17,15382,0.006278890303867659,0.0002906078111839208,0.07908007189703581,0.984506253736186,883.0,2.2800300594021747,0.5615126883796628,5.176892298477452,-0.0465907439255715,0.36,0.9999999999997385,-30.009679172795312,0.422208650434077,85,2026-10-08 00:16:31.466244,52.5,0.46034906137598686,0.10019329738480162,0.16186422811850726
0214,cdot_cos,Q,P-Q,86,17,15591,-0.07986544372281322,-0.1418960575815084,-0.08614433402668088,0.010744299196421154,883.0,2.2938981113965693,0.5615258285140733,5.207377520639101,-0.011265827500063724,0.209,0.9999999999997161,2688.3223049389294,0.42717586346868663,86,2026-10-08 00:16:31.675244,52.5,0.04347448099389983,0.17152501108811993,0.0663543157626534
0214,cdot_cos,R,Q-R,87,17,15647,-0.0187456089888083,0.06311122234716834,0.061119834734004924,0.9611637732356461,883.0,2.351727514037009,0.5627009676952678,5.248526490734392,-0.047686298515713384,0.056,0.9999999999997065,-30.992474422161028,0.43214301023536744,87,2026-10-08 00:16:31.731244,52.5,0.4659153707334785,1.051946925732231,1.0326679042935636
0214,cdot_cos,S,R-S,88,17,15668,0.10149470335999983,-0.09029759027966221,0.12024031234880812,0.9981899992856885,883.0,2.411716167078579,0.5639206312455806,5.290045713846184,-0.050689521177599665,0.021,0.9999999999997002,-2.4623369790104155,0.4371101420962166,88,2026-10-08 00:16:31.752243,52.5,0.9424735663097424,1.7538260534431076,2.856602525789062
0214,cdot_cos,T,S-T,89,17,15901,-0.06411865071554362,-0.0379021408518396,-0.16561335407554345,0.00016744283545379288,883.0,2.4253882082816194,0.563920835775386,5.3200198065452105,-0.011731318839520442,0.233,0.9999999999996827,190476.89532119775,0.4420773734031098,89,2026-10-08 00:16:31.985244,52.5,0.036121338451165504,0.15721751937095768,0.05867828842506532
0214,cdot_cos,P,T-P,90,18,16265,0.0066655754968485146,-1.442071221667058e-05,0.07078422621239214,0.9762508278508886,857.0,2.4849795311054454,0.5651129448183404,5.361133480749007,-0.05187442526316701,0.364,0.9999999999996744,-33.674022238904875,0.44704466828562806,90,2026-10-08 00:16:32.349244,52.5,0.46123316215725196,0.10120418860427814,0.1637124253401815
0214,cdot_cos,Q,P-Q,91,18,16469,-0.08854753819383222,-0.1510262216006412,-0.09521311369068074,0.006701575701862441,857.0,2.499064857585534,0.5651211255897461,5.390913435452031,-0.012445238259541247,0.204,0.9999999999996478,4819.739490086949,0.45201188740515175,91,2026-10-08 00:16:32.553244,52.5,0.04207865321332391,0.18200627441162343,0.06904571803964914
0214,cdot_cos,R,Q-R,92,18,16522,-0.018312349438076404,0.06000615786610871,0.07023518875575582,0.9755732739730412,857.0,2.559238091065388,0.5663116502795376,5.431872078720591,-0.05392447822152639,0.053,0.9999999999996372,-34.8411421599769,0.45697903325855727,92,2026-10-08 00:16:32.606244,52.5,0.46337906130667994,1.1500707132474264,1.1353440279217721
0214,cdot_cos,S,R-S,93,18,16544,0.11744028454221019,-0.09615823643601006,0.13575263398028659,0.9991975299914045,857.0,2.620972353189761,0.5675302114572413,5.473064715920605,-0.05661909682709743,0.022,0.9999999999996297,-2.2113117132525866,0.46194616440491865,93,2026-10-08 00:16:32.628243,52.5,0.9535227020705925,1.722550522857141,2.806102823835149
0214,cdot_cos,T,S-T,94,18,16779,-0.05962317009658672,-0.04164876054142913,-0.1770634546387969,9.179771327891864e-05,857.0,2.635030314071102,0.5675303233709128,5.502412195047294,-0.013081790303561866,0.235,0.9999999999996091,389025.8081939663,0.46691340703820744,94,2026-10-08 00:16:32.863244,52.5,0.035861724292620835,0.16066029827722061,0.05982111013336564
0214,cdot_cos,P,T-P,95,19,17122,0.015068203980468747,-0.0009099806150213843,0.07469137407705546,0.9805696449958591,835.0,2.6964826933800548,0.5687253732472396,5.543250900565205,-0.05796825130048881,0.343,0.9999999999995999,-37.56032437314986,0.4718807083075725,95,2026-10-08 00:16:33.206244,52.5,0.46101331174036203,0.11149106314139606,0.17916145571123251
0214,cdot_cos,Q,P-Q,96,19,17332,-0.06112744771203233,-0.10754268187114015,-0.07619565169250107,0.0179814113885714,835.0,2.7115131833860997,0.5687472803102854,5.572564300326933,-0.014381533974087821,0.21,0.9999999999995701,1989.6193860039004,0.47684793958897465,96,2026-10-08 00:16:33.416243,52.5,0.04827980697136073,0.16442803386614488,0.07157376193354738
0214,cdot_cos,R,Q-R,97,19,17378,-0.03269451439992163,0.09283764552230983,0.0284329333121107,0.8164875271059955,835.0,2.7655424676038356,0.5697417363837012,5.611307207465943,-0.052327276502631796,0.046,0.9999999999995548,-38.15728370807594,0.4818150820622518,97,2026-10-08 00:16:33.462244,52.5,0.4842462068523717,1.2747061426822717,1.1745496569073022
0214,cdot_cos,S,R-S,98,19,17400,0.07792212259460134,-0.06461042213535495,0.11061663699452297,0.9970036915018851,835.0,2.8287861485128687,0.5709552920388457,5.652170893521261,-0.06251932364333197,0.022,0.999999999999547,-8.398499976078009,0.4867822120134256,98,2026-10-08 00:16:33.484244,52.5,0.8495721991772364,1.7646242073330725,2.8747127685924134
0214,cdot_cos,T,S-T,99,19,17637,-0.10217182770606283,-0.08100328410591355,-0.18009395030066416,7.82962624273468e-05,835.0,2.843185932726491,0.570955387307977,5.6809362467013225,-0.014432422699656382,0.237,0.9999999999995227,504747.972994108,0.49174946615682025,99,2026-10-08 00:16:33.721244,52.5,0.03572637133749492,0.16511883533519317,0.06075858317984005
0214,cdot_cos,P,T-P,100,20,17957,0.011222014438652658,-0.00042558122921447045,0.11339384214471548,0.9974091542712507,856.0,2.9070524764617502,0.5721685833451958,5.721687804585835,-0.06484857689108094,0.32,0.9999999999995126,-41.556477803044075,0.49671677034406997,100,2026-10-08 00:16:34.041243,52.5,0.45957907401489223,0.12311700698724032,0.19958294917268582
0214,cdot_cos,Q,P-Q,101,20,18167,-0.07923069965941365,-0.14372701615703115,-0.09045271409806631,0.008587972920000398,856.0,2.9219808171983246,0.5721790255581175,5.750330150956355,-0.015365497389608603,0.21,0.9999999999994792,4738.754119707485,0.5016840108848657,101,2026-10-08 00:16:34.251244,52.5,0.0399389970158141,0.18230339100765067,0.0710873368408302
0214,cdot_cos,R,Q-R,102,20,18216,-0.026457948358602205,0.08192175414910863,0.052772751300811445,0.9410645769547216,856.0,2.9836199006849635,0.5733228850311657,5.790279508321057,-0.06423376529050295,0.049,0.9999999999994653,-42.72226532396427,0.5066511554092051,102,2026-10-08 00:16:34.300243,52.5,0.4672981232426957,1.2920832753936404,1.257940479319162
0214,cdot_cos,S,R-S,103,20,18237,0.12717860785934504,-0.09552590151199265,0.15363655621794725,0.9996860363096058,856.0,3.0486049781869013,0.5745371397563279,5.830917342407186,-0.06912186166491069,0.021,0.999999999999456,-4.025593866850836,0.5116182836478494,103,2026-10-08 00:16:34.321243,52.5,0.9317254565420501,1.8988498661770494,3.094527500092277
0214,cdot_cos,T,S-T,104,20,18477,-0.056111322164739796,-0.03839226797834676,-0.18328993002408484,6.620281778005663e-05,856.0,3.0633715950643996,0.5745372201390598,5.859155204594584,-0.015914279216311753,0.24,0.9999999999994288,661928.0183805778,0.5165855514049582,104,2026-10-08 00:16:34.561243,52.5,0.03531716196014413,0.16383134683161937,0.06152757032290938
0214,cdot_cos,P,T-P,105,21,18813,0.007774109299320939,-0.0004434476891961226,0.06388543146406074,0.9662350926233956,862.0,3.1272440246660786,0.5757099903199806,5.899274251118114,-0.0696720105775869,0.336,0.9999999999994165,-45.838248819618485,0.521552882532762,105,2026-10-08 00:16:34.897243,52.5,0.4622807487166893,0.11749574286537688,0.19009651667166383
0214,cdot_cos,Q,P-Q,106,21,19007,-0.09526815632715283,-0.13944240545281145,-0.10304226562647377,0.004452979443950262,862.0,3.142328734269933,0.5757153931719611,5.9273552455855185,-0.016664203493173258,0.194,0.9999999999993786,9811.078903509886,0.5265201225261961,106,2026-10-08 00:16:35.091244,52.5,0.04154664374345085,0.20707351931807286,0.0777562350714135
0214,cdot_cos,R,Q-R,107,21,19065,-0.018747460791838855,0.07647505918971442,0.07652069553531397,0.9823174546591042,862.0,3.207588550161491,0.576906805901594,5.967572984279664,-0.07296256688563969,0.058,0.9999999999993647,-47.25345129542973,0.5314872734680741,107,2026-10-08 00:16:35.149244,52.5,0.4622700090411924,1.1360074631342285,1.1251692395096216
0214,cdot_cos,S,R-S,108,21,19086,0.11095185416913952,-0.10019657863967936,0.1296993149609784,0.9988976565838469,862.0,3.2741055999935034,0.5781174114249105,6.007974975143874,-0.07585315583124469,0.021,0.9999999999993542,-2.38772159050316,0.5364544004264152,108,2026-10-08 00:16:35.170244,52.5,0.9626092668701951,1.943944766586378,3.1674785634291642
0214,cdot_cos,T,S-T,109,21,19318,-0.06265120947074422,-0.035897752109599536,-0.17360306363988376,0.0001100835504757778,862.0,3.289234230358119,0.5781175447882911,6.035726965123814,-0.01746934657687508,0.232,0.999999999999323,437779.9134973362,0.5414216749788471,109,2026-10-08 00:16:35.402244,52.5,0.03536361807509694,0.17440360213141004,0.06520961364058372
0214,cdot_cos,P,T-P,110,22,19675,0.006350845115589377,-0.0003979225075648425,0.0690020545863336,0.9739820924689488,862.0,3.3550288713824776,0.5792970508426277,6.0757214485674185,-0.07685262461752021,0.357,0.9999999999993106,-50.34588658728438,0.5463890394926856,110,2026-10-08 00:16:35.759244,52.5,0.4617690955111973,0.11367112875929088,0.18429871435394632
0214,cdot_cos,Q,P-Q,111,22,19866,-0.10509392505325368,-0.1509045008694937,-0.11144477016884306,0.002869195067132468,862.0,3.3703954162922525,0.5793005241482021,6.1033126623024785,-0.018168386174717523,0.191,0.999999999999267,16895.78909375379,0.5513562868364994,111,2026-10-08 00:16:35.950243,52.5,0.03955673435930865,0.2162719276388703,0.08045311471086308
0214,cdot_cos,R,Q-R,112,22,19925,-0.01526076350729843,0.06499728494909987,0.08983316154595525,0.9911306159967617,862.0,3.437644747740526,0.5804998658234067,6.143436145068517,-0.0804245774551944,0.059,0.9999999999992513,-51.90863668591734,0.5563234394322247,112,2026-10-08 00:16:36.009243,52.5,0.461121319486698,1.1469388386181367,1.1398191770893833
0214,cdot_cos,S,R-S,113,22,19946,0.13089523185113533,-0.11831538528172254,0.14615599535843377,0.9995350844491638,862.0,3.5057341992491926,0.5817084151324033,6.183648313997587,-0.08298118961348835,0.021,0.9999999999992397,-2.1154388482639344,0.5612905649778869,113,2026-10-08 00:16:36.030244,52.5,0.9696602384083605,1.9897718960737019,3.2423548337460244
0214,cdot_cos,T,S-T,114,22,20175,-0.054815210277483664,-0.031175811364634785,-0.18571044212861898,5.8303028654469226e-05,862.0,3.5212151673756216,0.5817084855988081,6.21095006144379,-0.01909386894831558,0.229,0.9999999999992045,906635.1678776309,0.566257849622887,114,2026-10-08 00:16:36.259244,52.5,0.03522638358836043,0.1790667769253614,0.06760248090143652
0214,cdot_cos,P,T-P,115,23,20537,0.0055790814338011335,2.9237295325075787e-05,0.0603942917112848,0.9597166678772415,876.0,3.587746783081008,0.5828679677700923,6.2505657746459224,-0.08295116043602681,0.362,0.9999999999991895,-55.073974459635075,0.5712252386218547,115,2026-10-08 00:16:36.621243,52.5,0.46309737191974154,0.11402415364553999,0.18378899366128887
0214,cdot_cos,Q,P-Q,116,23,20744,-0.0850235281602881,-0.14030635230940297,-0.09060260959408924,0.008521228609528975,876.0,3.6037686546149925,0.5828782586132264,6.277794371239165,-0.020207793077954315,0.207,0.9999999999991414,6097.009403461514,0.5761925081910454,116,2026-10-08 00:16:36.828243,52.5,0.04482857834260674,0.20239662389921706,0.07740034557480376
0214,cdot_cos,R,Q-R,117,23,20795,-0.01684701864279731,0.06481057523973609,0.0681765095174908,0.9728609298372964,876.0,3.671538985375284,0.584052678069211,6.317499157827174,-0.08640239629169433,0.051,0.9999999999991227,-56.36368069042517,0.5811596553055185,117,2026-10-08 00:16:36.879244,52.5,0.464813052126801,1.346258717575263,1.3288300149076764
0214,cdot_cos,S,R-S,118,23,20816,0.11090268570872217,-0.09862725090387013,0.12774970435151947,0.9987789952934527,876.0,3.7410870438076693,0.585257393123218,6.357526131628259,-0.09026660910858791,0.021,0.9999999999991094,-3.2075741097788013,0.5861267792936932,118,2026-10-08 00:16:36.900243,52.5,0.9580944795591206,2.032691695541174,3.3118123063040628
0214,cdot_cos,T,S-T,119,23,21055,-0.061260036109370766,-0.03448600053726958,-0.17216272181809295,0.00011872963409295029,876.0,3.7569120365880133,0.585257536273169,6.3844095155565075,-0.02077585782305387,0.239,0.9999999999990696,485440.27293143823,0.5910940846880474,119,2026-10-08 00:16:37.139244,52.5,0.03526784160344326,0.17735886109723242,0.0662133589135732
0214,cdot_cos,P,T-P,120,24,21413,0.010763112732813534,-0.00037894683360071505,0.0720231488421843,0.9777130586619338,881.0,3.8258645794121464,0.5864358551457738,6.424086623891816,-0.09147162747460302,0.358,0.9999999999990529,-59.99714618443641,0.5960614918652307,120,2026-10-08 00:16:37.497243,52.5,0.461685656855598,0.11922491744079314,0.1926048682238355
0214,cdot_cos,Q,P-Q,121,24,21623,-0.07833452080199273,-0.12660732273558103,-0.08909763353480626,0.009215357965700959,881.0,3.842277077475621,0.5864469566140174,6.450920465675825,-0.022017566308928028,0.21,0.9999999999989991,6256.295081140554,0.6010287750792054,121,2026-10-08 00:16:37.707244,52.5,0.042660407067255414,0.20290616588101693,0.07815475268321323
0214,cdot_cos,R,Q-R,122,24,21669,-0.01495700034022598,0.06456243797043865,0.06337752046176674,0.9653542417996105,881.0,3.9110851690821735,0.5876094015361861,6.490362056967385,-0.09325487267088314,0.046,0.999999999998978,-61.282306803016404,0.6059959182379573,122,2026-10-08 00:16:37.753243,52.5,0.46584653386821534,1.5191635822627836,1.4958280784033113
0214,cdot_cos,S,R-S,123,24,21690,0.1002735377918925,-0.0988672436432106,0.11523053813211849,0.9976467531638773,881.0,3.9820401270437973,0.5888097060127407,6.530219634002862,-0.0978124215845069,0.021,0.9999999999989632,-3.796994014973486,0.6109630405863091,123,2026-10-08 00:16:37.774244,52.5,0.9544740848988971,2.0741972579351438,3.378807521982084
0214,cdot_cos,T,S-T,124,24,21932,-0.07065215318708454,-0.036601731599608056,-0.17092569097897703,0.00012669531103421885,881.0,3.9982014539154496,0.5888098583776185,6.556713186152505,-0.022524510548571148,0.242,0.9999999999989179,494129.0418448065,0.6159303623412067,124,2026-10-08 00:16:38.016243,52.5,0.035348892593242906,0.17981572898543086,0.06678234244484414
0214,cdot_cos,P,T-P,125,25,22294,0.01095653440627258,-0.0007100019542603897,0.08160868759335711,0.9864062223632772,856.0,4.069070939872746,0.5899956006432392,6.596355616470289,-0.09976259599211554,0.362,0.9999999999988997,-65.139016869834,0.6208977953095132,125,2026-10-08 00:16:38.378243,52.5,0.46106378601975784,0.12110258410503537,0.1957720606555145
0214,cdot_cos,Q,P-Q,126,25,22502,-0.07635355881743859,-0.12610215312155726,-0.08731009322371117,0.01011289164481336,856.0,4.085879724807495,0.590007751788573,6.622825133073668,-0.023918589236535438,0.208,0.9999999999988395,6241.716700112877,0.6258650883673299,126,2026-10-08 00:16:38.586244,52.5,0.041964842928744674,0.20850643567743576,0.08081146603244882
0214,cdot_cos,R,Q-R,127,25,22545,-0.015732178410749958,0.06190907989831555,0.06062138040668863,0.9601750675923643,856.0,4.155809617114559,0.5911609477353934,6.662050235589009,-0.10048046764192017,0.043,0.9999999999988151,-66.39104014931893,0.6308322287429825,127,2026-10-08 00:16:38.629244,52.5,0.4667517145123484,1.6554942586966923,1.6262765652805564
0214,cdot_cos,S,R-S,128,25,22566,0.10826272873472108,-0.09928300398743711,0.12399490714547104,0.9985133357030748,856.0,4.228252231055411,0.5923591256438944,6.701783181098698,-0.10579273133407463,0.021,0.999999999998799,-4.433618458881964,0.6357993493783307,128,2026-10-08 00:16:38.650244,52.5,0.9510259957238695,2.1174184799086078,3.4496482828976953
0214,cdot_cos,T,S-T,129,25,22810,-0.07121898540370189,-0.044854033451414685,-0.17948171413842295,8.085356741013097e-05,856.0,4.244741193270721,0.5923592226208426,6.727912172983221,-0.024335345195409582,0.244,0.9999999999987482,839966.4828500166,0.6407666874697165,129,2026-10-08 00:16:38.894243,52.5,0.03517966498188316,0.18194183719819843,0.06757771399717186
0214,cdot_cos,P,T-P,130,26,23150,0.01071674531029169,-0.0006046239950492406,0.08193573071399358,0.986634539108977,780.0,4.3170398476081315,0.5935420686766195,6.767425705169704,-0.10772236279725532,0.34,0.9999999999987276,-70.49693169672598,0.6457341220127061,130,2026-10-08 00:16:39.234244,52.5,0.46112229711493546,0.1309875992687164,0.21264310099238498
0214,cdot_cos,Q,P-Q,131,26,23340,-0.09686876018885252,-0.1740647887849518,-0.10758550549914421,0.0035113434641911865,780.0,4.333812760773448,0.5935462763909483,6.793452826383145,-0.025250945472905816,0.19,0.9999999999986617,19600.05144860289,0.6507014092403957,131,2026-10-08 00:16:39.424243,52.5,0.03815599277085731,0.23395224352437652,0.08827849034376979
0214,cdot_cos,R,Q-R,132,26,23399,-0.027396970481885177,0.060789371330662575,0.06947178970696734,0.9745997772854686,780.0,4.405941700147395,0.5947136263114009,6.832744697241842,-0.10960316370822928,0.059,0.9999999999986368,-72.25958280154393,0.6556685658773633,132,2026-10-08 00:16:39.483244,52.5,0.46319144972756426,1.23787257452272,1.2225243961685903
0214,cdot_cos,S,R-S,133,26,23421,0.1725099508129202,-0.08426899279138468,0.19990692129480536,0.9999723294265269,780.0,4.479881724567129,0.5959102545679255,6.872377670971291,-0.11412489093266416,0.022,0.9999999999986188,-3.778723425408335,0.6606356859353643,133,2026-10-08 00:16:39.505243,52.5,0.9611537743591411,2.062534625676687,3.360910200897006
0214,cdot_cos,T,S-T,134,26,23669,-0.029076741601239544,-0.036352509959779726,-0.20158669241415975,2.533492480702923e-05,780.0,4.496693223677169,0.5959102848708704,6.898165626702691,-0.026213217105921144,0.248,0.9999999999985626,2901093.4094552086,0.6656030434596307,134,2026-10-08 00:16:39.753243,52.5,0.03495423830041043,0.17119305300628354,0.0677883028630649
0214,cdot_cos,P,T-P,135,27,23930,0.010704322730552279,-0.0006676738266794972,0.03978106433179182,0.8897809811741898,759.0,4.564793478858245,0.5969740936493348,6.936217744839594,-0.10709792616519803,0.261,0.9999999999985361,-76.03312803643985,0.6705704164497359,135,2026-10-08 00:16:40.014244,52.5,0.46989751287583004,0.1641467943104877,0.26092051793515914
0214,cdot_cos,Q,P-Q,136,27,24140,-0.07295533718450967,-0.18662015317843073,-0.08365965991506194,0.012223065142473672,759.0,4.582377850307243,0.5969887010368952,6.962030604837383,-0.027915250721527632,0.21,0.9999999999984682,5420.728047141107,0.6755377364297291,136,2026-10-08 00:16:40.224244,52.5,0.058628273567587166,0.20484689804846026,0.08373510213808595
0214,cdot_cos,R,Q-R,137,27,24186,-0.03349411375253355,0.05871834846175599,0.03946122343197612,0.8881234010975269,759.0,4.650829176038599,0.5980496065363261,6.999997167062549,-0.10959443713585522,0.046,0.9999999999984381,-76.9900678789387,0.68050488041493,137,2026-10-08 00:16:40.270243,52.5,0.4745986027702966,1.5624387184075212,1.488072298507723
0214,cdot_cos,S,R-S,138,27,24207,0.18402302428444783,-0.07023852674989361,0.2175171380369814,0.9999890224768377,759.0,4.726122212400735,0.5992430423949924,7.03951784502177,-0.12230520726611054,0.021,0.9999999999984198,-10.650568304911085,0.6854719981763397,138,2026-10-08 00:16:40.291244,52.5,0.9012914072154584,2.199675984810285,3.585382683911271
0214,cdot_cos,T,S-T,139,27,24446,-0.03126054077938081,-0.053772781818137896,-0.21528356506382865,1.2343270907191147e-05,759.0,4.743215567400631,0.5992430571188248,7.064977457512592,-0.028039839927152005,0.239,0.9999999999983598,6402230.406771173,0.6904393610273135,139,2026-10-08 00:16:40.530244,52.5,0.034671513795228384,0.1831851150011155,0.07152031380709324
0214,cdot_cos,P,T-P,140,28,24689,0.01262886922507522,-0.0010118664602752371,0.043889410004456036,0.9092237912058979,739.0,4.813684697371269,0.6003271488808177,7.103172851224376,-0.11656092736104895,0.243,0.9999999999983332,-81.65460760550482,0.6954067301843733,140,2026-10-08 00:16:40.773243,52.5,0.4679281656972391,0.18201049151527834,0.2899964196322548
0214,cdot_cos,Q,P-Q,141,28,24901,-0.06840640850042215,-0.19151507228382,-0.08103527772549737,0.014003409229621839,739.0,4.831672666277056,0.6003438378655415,7.128694569024913,-0.03002835601403507,0.212,0.9999999999982616,5185.011118378772,0.7003740654647943,141,2026-10-08 00:16:40.985244,52.5,0.05603968014284411,0.1844051746100682,0.08484890993295922
0214,cdot_cos,R,Q-R,142,28,24945,-0.04964560547121583,0.0744357246811731,0.018760803029206317,0.7280877472952897,739.0,4.8918724914059375,0.6012112365918949,7.1642653904915905,-0.10123583353712666,0.044,0.999999999998223,-82.0931312897461,0.7053412077777622,142,2026-10-08 00:16:41.029243,52.5,0.49490861836680716,1.5544512185171409,1.3681778438382173
0214,cdot_cos,S,R-S,143,28,24966,0.15661082660087147,-0.05244028103292709,0.2062564320720873,0.9999801733290827,739.0,4.968464373506564,0.6024015155586082,7.203681080323909,-0.13048171372279996,0.021,0.9999999999982048,-24.570609918806923,0.7103083243494616,143,2026-10-08 00:16:41.050244,52.5,0.7992050212515321,2.2365685682246386,3.6472324809822303
0214,cdot_cos,T,S-T,144,28,25190,-0.03863446557891645,-0.08543213691518203,-0.19524529217978792,3.5342894751317764e-05,739.0,4.985808371271372,0.6024015576060348,7.228825376707175,-0.0298286809417515,0.224,0.9999999999981402,2393797.6961308615,0.7152756837727633,144,2026-10-08 00:16:41.274244,52.5,0.03423965190245376,0.20125320341161537,0.07742856145003568
0214,cdot_cos,P,T-P,145,29,25428,0.010196233998623551,0.0007714427395978046,0.04883069957754,0.928482657361496,777.0,5.058625808634968,0.6035056496177998,7.267177268327702,-0.12624773354377675,0.238,0.9999999999981151,-87.32882003908536,0.720243061890862,145,2026-10-08 00:16:41.512243,52.5,0.4659257563458868,0.19459231947986316,0.3059556191747718
0214,cdot_cos,Q,P-Q,146,29,25657,-0.0503937241576143,-0.1800126629413008,-0.06058995815623785,0.039888061824333694,777.0,5.078434315343787,0.6035530584114781,7.292766508317203,-0.03465842335581994,0.229,0.9999999999980408,1931.905519670603,0.7252104308269867,146,2026-10-08 00:16:41.741244,52.5,0.07117399848995756,0.12897074732218494,0.0865000292961536
0214,cdot_cos,R,Q-R,147,29,25702,-0.061056404730918806,0.08303844090053392,-0.010662680573304509,0.36359588211816907,777.0,5.117694410908529,0.6039851190321526,7.322937785212012,-0.06906671831034009,0.045,0.9999999999979803,-79.63765570860656,0.7301775746150212,147,2026-10-08 00:16:41.786243,52.5,0.6076299444886344,1.3007253228536106,0.8724465681053672
0214,cdot_cos,S,R-S,148,29,25725,0.16977586486070148,-0.04468618800432904,0.2308322695916203,0.9999945434815063,777.0,5.195499594400612,0.6051725729340593,7.362249514354263,-0.1383033283150043,0.023,0.9999999999979624,-58.30677712497826,0.7351446922529571,148,2026-10-08 00:16:41.809243,52.5,0.6061582432125402,2.0723751415065896,3.3828340648731925
0214,cdot_cos,T,S-T,149,29,25965,-0.03421001589581798,-0.0640155160341084,-0.20398588075651947,2.2336664612049762e-05,777.0,5.213023667417832,0.6051725994441618,7.387080406808228,-0.031438025016065484,0.24,0.9999999999978925,4031116.1948263086,0.7401120834999031,149,2026-10-08 00:16:42.049243,52.5,0.033398737684449765,0.18735558925629392,0.07301697090508208
0214,cdot_cos,P,T-P,150,30,26205,0.008312859981469037,-0.000589673047198672,0.042522875877287016,0.9031260061269313,779.0,5.285430277243633,0.6062439604713759,7.424949483874382,-0.13089485418126773,0.24,0.9999999999978644,-92.83222614866578,0.7450794766120346,150,2026-10-08 00:16:42.289243,52.5,0.4677495387074294,0.18840046385848835,0.30169420760750576
0214,cdot_cos,Q,P-Q,151,30,26416,-0.08568573139801396,-0.2029106732720403,-0.09399859137948299,0.007139651536464372,779.0,5.303455890069906,0.6062524260484352,7.449762466474736,-0.03286671022954492,0.211,0.9999999999977823,11579.617463095807,0.7500468341640263,151,2026-10-08 00:16:42.500243,52.5,0.050661107384737954,0.2186520962410639,0.08542944467427971
0214,cdot_cos,R,Q-R,152,30,26462,-0.03753224625592521,0.07223471892389613,0.048153485142088746,0.9260855292126055,779.0,5.377701461857362,0.6073499551217403,7.487921290970531,-0.13641994491293535,0.046,0.9999999999977525,-94.3512451761783,0.7550139796539823,152,2026-10-08 00:16:42.546243,52.5,0.4680983092984743,1.6668071924676526,1.6140341692925206
0214,cdot_cos,S,R-S,153,30,26481,0.19698512785543537,-0.07806890869879038,0.2345173741113606,0.9999955032994335,779.0,5.45680215177693,0.6085338600588834,7.527156320846962,-0.14726942181889557,0.019,0.9999999999977341,-9.16414533428737,0.75998109099971,153,2026-10-08 00:16:42.565243,52.5,0.9289773317775217,2.5501244131571736,4.163194206293057
0214,cdot_cos,T,S-T,154,30,26722,-0.025677481073996214,-0.03540186212348843,-0.22266260892943157,8.378888012186225e-06,779.0,5.474606189557335,0.6085338699734075,7.55171490201354,-0.033443992389509715,0.241,0.9999999999976604,11480675.0570366,0.764948500122937,154,2026-10-08 00:16:42.806243,52.5,0.03325785966422649,0.1844558360420548,0.07387567543736313
0214,cdot_cos,P,T-P,155,31,26984,0.009348145216832944,-0.0005737916419321841,0.03502562629082916,0.8628120953513684,817.0,5.545709864749201,0.6095543372433848,7.58889874834191,-0.13452514441567176,0.262,0.9999999999976296,-99.0537913366019,0.7699159393843789,155,2026-10-08 00:16:43.068243,52.5,0.47170935420946086,0.1704849222009742,0.2713880732513965
0214,cdot_cos,Q,P-Q,156,31,27194,-0.08817286510562133,-0.17724668618927297,-0.09752101032245428,0.005941390082914828,817.0,5.563940288790645,0.6095613609477943,7.613427720270617,-0.03477057810838791,0.21,0.9999999999975413,14202.557580868008,0.774883309378893,156,2026-10-08 00:16:43.278244,52.5,0.05675928139512251,0.22753819560696148,0.08681154305449806
0214,cdot_cos,R,Q-R,157,31,27244,-0.02931100594001818,0.06992751688924725,0.05886185916560316,0.956488671107217,817.0,5.6412759069041245,0.610691494491533,7.651951493816774,-0.14861405497155972,0.05,0.9999999999975122,-100.73453486439821,0.7798504609850562,157,2026-10-08 00:16:43.328243,52.5,0.4648528433263277,1.577052864635835,1.5467123622695844
0214,cdot_cos,S,R-S,158,31,27263,0.156098972883351,-0.09074468043046863,0.18540997882336918,0.9999407700433718,817.0,5.721645575254229,0.6118716982072717,7.69111701385443,-0.15644517529727708,0.019,0.9999999999974929,-6.63539711092667,0.7848175707445157,158,2026-10-08 00:16:43.347244,52.5,0.9511755453146941,2.5907687059303703,4.229982544742331
0214,cdot_cos,T,S-T,159,31,27505,-0.04353319335593482,-0.04285090509097992,-0.1996321662392858,2.807259286258859e-05,817.0,5.739725117729479,0.6118717313222698,7.715417988794904,-0.035498025935335575,0.242,0.9999999999974144,3652337.502199834,0.7897849980026741,159,2026-10-08 00:16:43.589243,52.5,0.033135455164181045,0.1963306938242183,0.07470885320351152
0214,cdot_cos,P,T-P,160,32,27801,0.008147877122729442,-0.0004918205749673676,0.051681070478664264,0.9378043451341963,821.0,5.8166696310651504,0.6129774060756664,7.753628353319929,-0.15216862670967135,0.296,0.999999999997386,-105.51981983483357,0.7947525048372488,160,2026-10-08 00:16:43.885243,52.5,0.4645346374201797,0.16114251582314246,0.2599476801880807
0214,cdot_cos,Q,P-Q,161,32,27996,-0.09351809379713999,-0.15658782410306252,-0.10166597091986943,0.004785044268818265,821.0,5.835121487096779,0.6129830446864142,7.777892600760293,-0.036792198517263966,0.195,0.9999999999972898,20461.85370008709,0.7997198674682185,161,2026-10-08 00:16:44.080243,52.5,0.04346088996941714,0.25155192587754244,0.09462490272629982
0214,cdot_cos,R,Q-R,162,32,28056,-0.02472252857753679,0.06713463071448252,0.0687955652196032,0.9737059626271974,821.0,5.914774882157392,0.614129810448296,7.816606304566642,-0.15998675341852459,0.06,0.9999999999972597,-107.42782789320962,0.8046870345658342,162,2026-10-08 00:16:44.140243,52.5,0.46299930787530935,1.3439810614573076,1.3275565843435515
0214,cdot_cos,S,R-S,163,32,28075,0.1294302603320397,-0.09122134081338917,0.15415278890957648,0.9996944285830187,821.0,5.996399214471656,0.6153058671626653,7.855709416016303,-0.16600650988928722,0.019,0.9999999999972384,-5.118593684481056,0.8096541424570679,163,2026-10-08 00:16:44.159244,52.5,0.9643874257933978,2.6314513817692284,4.29601749022441
0214,cdot_cos,T,S-T,164,32,28303,-0.0497607694892572,-0.044606589880316176,-0.1791910298212969,8.209682900527894e-05,821.0,6.014770034664623,0.6153059636875999,7.879771041224801,-0.037676014420244444,0.228,0.9999999999971536,1329506.163353732,0.8146215662003792,164,2026-10-08 00:16:44.387244,52.5,0.033168355788684704,0.21442920955882486,0.0805737727761705
0214,cdot_cos,P,T-P,165,33,28622,0.009609227850109668,-0.00021639066687186915,0.05936999733936687,0.9575855054066197,841.0,6.09417893403048,0.6164312207186742,7.918212680533747,-0.16400148553407412,0.319,0.9999999999971254,-112.26365854673313,0.8195891306456425,165,2026-10-08 00:16:44.706244,52.5,0.46288793942150486,0.15436446773838253,0.24893071901522654
0214,cdot_cos,Q,P-Q,166,33,28832,-0.07808028163938263,-0.14288799524920268,-0.0876895094894923,0.009915420044071992,841.0,6.113254565081711,0.6164428658137295,7.942321471253097,-0.03971647611806166,0.21,0.9999999999970214,10672.734642800371,0.8245565298978069,166,2026-10-08 00:16:44.916243,52.5,0.04374814528988836,0.23329009679274818,0.09083633833919419
0214,cdot_cos,R,Q-R,167,33,28882,-0.02469545247917374,0.06745216177697382,0.053384829160208896,0.9428217430918037,841.0,6.192160774683434,0.6175495442891874,7.98050988622663,-0.1654240721893442,0.05,0.9999999999969856,-113.58998919652198,0.8295236829353128,167,2026-10-08 00:16:44.966244,52.5,0.46770798346021797,1.6173669098310395,1.578124192034469
0214,cdot_cos,S,R-S,168,33,28904,0.10733362897563646,-0.08094222021367686,0.1320290814548102,0.9990244438201382,841.0,6.274991256064815,0.6187208641034099,8.019550003431142,-0.1757274054076705,0.022,0.9999999999969625,-8.79634502312736,0.834490793504551,168,2026-10-08 00:16:44.988243,52.5,0.9430532983799889,2.3064921510144267,3.7650218809718408
0214,cdot_cos,T,S-T,169,33,29140,-0.06539447125817614,-0.05378890402463769,-0.1727281002338126,0.00011525764703617068,841.0,6.293646429328069,0.6187209991594639,8.043384024762657,-0.03989971376771712,0.236,0.9999999999968702,1005713.4620038997,0.8394582465600112,169,2026-10-08 00:16:45.224244,52.5,0.03323249159825603,0.21391842177793965,0.07904734433582321
0214,cdot_cos,P,T-P,170,34,29463,0.012929654227474696,-0.0008052454378018638,0.07832412548565083,0.9838890914735334,835.0,6.375960751144002,0.6198732251126177,8.08216940848755,-0.17726138472654807,0.323,0.9999999999968407,-119.21417894021141,0.8444258422627219,170,2026-10-08 00:16:45.547244,52.5,0.46074511281108715,0.15753286057435684,0.2548431015973165
0214,cdot_cos,Q,P-Q,171,34,29669,-0.07248962844432243,-0.1290229483562649,-0.08541928267179712,0.011156516001891235,835.0,6.3954126572591035,0.619886282719247,8.106076842344814,-0.04222502005461665,0.206,0.9999999999967286,10341.58621144816,0.8493932500595858,171,2026-10-08 00:16:45.753243,52.5,0.040843083984894016,0.23253046416793058,0.09442672871408389
0214,cdot_cos,R,Q-R,172,34,29719,-0.03354868855106534,0.09354449032411927,0.03894093989325709,0.8853804792122589,835.0,6.47176330238119,0.6209219790321938,8.143327553154819,-0.16680375361461142,0.05,0.9999999999966851,-120.28500246904524,0.8543604036357085,172,2026-10-08 00:16:45.803244,52.5,0.47385301781156686,1.6038207303542507,1.5270129024417223
0214,cdot_cos,S,R-S,173,34,29741,0.09251038764661221,-0.07245412669657085,0.12605907619767753,0.9986658175525537,835.0,6.5557947302945285,0.6220888720476244,8.182313786738973,-0.18564834911156042,0.022,0.9999999999966586,-16.14937723317765,0.8593275122280041,173,2026-10-08 00:16:45.825243,52.5,0.9034749108466656,2.33994795870629,3.8196103596972253
0214,cdot_cos,T,S-T,174,34,29979,-0.08354782534622142,-0.06546063275418448,-0.17605821299283364,9.677199060592145e-05,835.0,6.574721012564266,0.6220889850527903,8.205929474723096,-0.04214380103068233,0.238,0.999999999996559,1269893.6986529757,0.8642949860011567,174,2026-10-08 00:16:46.063244,52.5,0.033202955007112116,0.21645649311685666,0.07952219441066305
0214,cdot_cos,P,T-P,175,35,30298,0.010442499972927679,-0.0005713276678440893,0.0939903253191491,0.9928572715453452,840.0,6.658828021018152,0.6232476907094819,8.244804506499154,-0.18852516335862385,0.319,0.9999999999965272,-126.33179227405701,0.8692626002120594,175,2026-10-08 00:16:46.382244,52.5,0.46003380627807755,0.16244772426929927,0.26365833371124126
0214,cdot_cos,Q,P-Q,176,35,30509,-0.08110754681690378,-0.14678965785497375,-0.09155004678983146,0.008111101244052366,840.0,6.678362660648079,0.6232571509200129,8.26845351344194,-0.044129253712808514,0.211,0.9999999999964069,15263.498541974455,0.8742300313556418,176,2026-10-08 00:16:46.593244,52.5,0.03792620007578278,0.23877507175422202,0.09258123047358752
0214,cdot_cos,R,Q-R,177,35,30554,-0.027848160895032874,0.08280449369855734,0.053259385921870905,0.9424656743251683,840.0,6.759591101298434,0.6243557343670367,8.306526144972878,-0.18466913509718502,0.045,0.9999999999963639,-127.92827141635021,0.8791971767935838,177,2026-10-08 00:16:46.638243,52.5,0.46718212111972773,1.8504983019318466,1.8050764588967718
0214,cdot_cos,S,R-S,178,35,30574,0.12513205032880464,-0.09505057789795926,0.1529802112238375,0.9996750327368015,840.0,6.8449075078219455,0.6255196064904522,8.345485836287324,-0.1961233429354597,0.02,0.9999999999963349,-9.841465920380529,0.884164279893944,178,2026-10-08 00:16:46.658243,52.5,0.9432696550149123,2.613010894172474,4.265820326175573
0214,cdot_cos,T,S-T,179,35,30799,-0.0606705470853657,-0.04490866425702773,-0.18580259741417035,5.8021647309612445e-05,840.0,6.864111537065333,0.6255196740002155,8.36889624406178,-0.04448496585507348,0.225,0.9999999999962279,2246169.5884931977,0.8891317489516666,179,2026-10-08 00:16:46.883244,52.5,0.033082341988179144,0.22892605406545424,0.08535124108172217
0214,cdot_cos,P,T-P,180,36,31138,0.00576313973702649,0.00022281157933840045,0.06643368682239219,0.970337736903554,838.0,6.9479242321514,0.626648003481989,8.407378938958582,-0.1953681707643779,0.339,0.999999999996192,-133.7226469276871,0.8940994252784717,180,2026-10-08 00:16:47.222244,52.5,0.4619484950917886,0.15303104970527068,0.24723508874945993
0214,cdot_cos,Q,P-Q,181,36,31349,-0.08180002901744773,-0.1590783565597321,-0.08756316875447423,0.00998074792470316,838.0,6.9678665887655065,0.6266596021744505,8.430857011279423,-0.04683446689142622,0.211,0.9999999999960627,12806.073129903181,0.8990668721398332,181,2026-10-08 00:16:47.433243,52.5,0.04194225873318531,0.24230849178289054,0.0945135384554815
0214,cdot_cos,R,Q-R,182,36,31400,-0.028885139638178833,0.07467079413644978,0.0529148893792689,0.9414770888774133,838.0,7.05017841568378,0.6277530423328629,8.468866200102697,-0.19449740958349934,0.051,0.9999999999960156,-135.04437490796954,0.9040340286199565,182,2026-10-08 00:16:47.484244,52.5,0.46803948417385594,1.655202918097433,1.6139573905543767
0214,cdot_cos,S,R-S,183,36,31421,0.12828557585710726,-0.0873491164712732,0.1571707154952861,0.9997391913095554,838.0,7.136697286411445,0.6289127189846694,8.507788255029629,-0.2066370491430382,0.021,0.9999999999959839,-10.468124490243243,0.909001131249068,183,2026-10-08 00:16:47.505243,52.5,0.9429437853275469,2.523690505673201,4.119946225126903
0214,cdot_cos,T,S-T,184,36,31656,-0.05860008303550548,-0.04933186954417896,-0.18688565889261274,5.481471335995123e-05,838.0,7.156173416922054,0.6289127825280205,8.53100273096089,-0.04686332520670073,0.235,0.9999999999958682,2514405.0648704483,0.9139686363298053,184,2026-10-08 00:16:47.740243,52.5,0.03306251048106251,0.2218316144331363,0.08287715110897652
0214,cdot_cos,P,T-P,185,37,31976,0.006025208506968269,0.0001561899716280321,0.06462529154247375,0.9674796330767406,859.0,7.240958145195019,0.630033626042426,8.569398869785253,-0.20524080838349548,0.32,0.9999999999958277,-141.30204720041277,0.9189363048231873,185,2026-10-08 00:16:48.060243,52.5,0.46224203900468674,0.16403085488093938,0.2649522758530143
0214,cdot_cos,Q,P-Q,186,37,32186,-0.08232808808706396,-0.15494369633771607,-0.08835329659403222,0.00957908378858116,859.0,7.261153164045855,0.6300447166107547,8.592679989984124,-0.04924256086093679,0.21,0.99999999999569,14065.84792582225,0.9239037658162693,186,2026-10-08 00:16:48.270243,52.5,0.04208955697013292,0.249823547576245,0.0961667564325554
0214,cdot_cos,R,Q-R,187,37,32238,-0.021582763421602952,0.06461982610582004,0.06074532466546101,0.9604231472517759,859.0,7.345884035177042,0.6311559866136396,8.630944326665896,-0.20783914776899454,0.052,0.9999999999956417,-142.71651938442787,0.92887092491047,187,2026-10-08 00:16:48.322243,52.5,0.4662311689335942,1.6578466775700655,1.6294398294458898
0214,cdot_cos,S,R-S,188,37,32259,0.12206596589905556,-0.09496233768770516,0.14364872932065853,0.9994697111600492,859.0,7.433569218513142,0.6323109601609495,8.669827143464923,-0.21734020386208933,0.021,0.9999999999956065,-8.226210994376785,0.9338380253433202,188,2026-10-08 00:16:48.343244,52.5,0.957226600136944,2.5579508757679283,4.175484920766692
0214,cdot_cos,T,S-T,189,37,32494,-0.05921073021851872,-0.04146810915818037,-0.1812766961175743,7.358273551038445e-05,859.0,7.453317971959295,0.6323110451364707,8.692855739303372,-0.04930596699316733,0.235,0.9999999999954831,1977442.8485474195,0.9388055492119379,189,2026-10-08 00:16:48.578244,52.5,0.033107683727854595,0.22480418037421365,0.08403724870703173
0214,cdot_cos,P,T-P,190,38,32835,0.00519461006516528,-5.1109441064332316e-05,0.064405340283684,0.9671143505251906,876.0,7.5392271832890225,0.6334271858035742,8.731207690034156,-0.2157327764205544,0.341,0.9999999999954392,-149.10917085325306,0.9437732867365436,190,2026-10-08 00:16:48.919244,52.5,0.4623427022390036,0.15553714348923173,0.2519331710549207
0214,cdot_cos,Q,P-Q,191,38,33045,-0.09523364675878186,-0.1632769529140178,-0.10042825682394714,0.0051046610889125986,876.0,7.559394303818951,0.6334330732766116,8.754236384116817,-0.05100112286657741,0.21,0.9999999999952903,27980.026831007322,0.9487407638697696,191,2026-10-08 00:16:49.129244,52.5,0.03955902935318977,0.25648280368705734,0.09603390728537184
0214,cdot_cos,R,Q-R,192,38,33093,-0.015589503526616064,0.058514518318796845,0.0796441432321658,0.9849515509397361,876.0,7.646949960837587,0.6345683222898351,8.792854113804689,-0.2227089443023354,0.048,0.9999999999952401,-151.25124042011032,0.9537079154560156,192,2026-10-08 00:16:49.177243,52.5,0.46255189550731396,1.837759501031331,1.8240761878882497
0214,cdot_cos,S,R-S,193,38,33114,0.13563333999330998,-0.11493963235945934,0.15122284351992604,0.999643635228653,876.0,7.735819215917958,0.6357189778422212,8.831707837340527,-0.22836620235474686,0.021,0.9999999999952018,-4.916552169482774,0.9586750134784082,193,2026-10-08 00:16:49.198244,52.5,0.9755315797532769,2.592605665059007,4.231869289541514
0214,cdot_cos,T,S-T,194,38,33354,-0.044919313113824834,-0.02578505895333706,-0.1805526531071348,7.643340459355217e-05,876.0,7.755839398770065,0.6357190657629826,8.854559528077848,-0.051809831404492614,0.24,0.9999999999950688,2008130.5944171166,0.9636425668444,194,2026-10-08 00:16:49.438244,52.5,0.033114720446921125,0.2192621612208919,0.08341742855044373
0214,cdot_cos,P,T-P,195,39,33711,0.007782907606099555,0.0004363512266460541,0.05270222071992439,0.940858873319112,861.0,7.8410650533039865,0.6368006405054882,8.89245500706326,-0.221769265399494,0.357,0.9999999999950181,-157.14072020697498,0.9686103675068131,195,2026-10-08 00:16:49.795244,52.5,0.4646924134015418,0.14898893939486435,0.2387273236244303
0214,cdot_cos,Q,P-Q,196,39,33924,-0.07143341421027068,-0.1309200880888536,-0.07921632181637023,0.01538501208361796,861.0,7.862217501497998,0.6368183150569579,8.915475151039015,-0.05541598767991109,0.213,0.9999999999948582,9412.02259110024,0.9735778672349987,196,2026-10-08 00:16:50.008243,52.5,0.04969254095355005,0.24002645440318163,0.09930726851648601
0214,cdot_cos,R,Q-R,197,39,33977,-0.03420928492132351,0.09072107110006236,0.037224129288947166,0.8759111467495425,861.0,7.943316322879742,0.6378239652561414,8.95230510138992,-0.2135936141080027,0.053,0.9999999999947916,-157.2889127417403,0.9785450293181814,197,2026-10-08 00:16:50.061243,52.5,0.47684962045138435,1.6130599675534374,1.5301664411649782
0214,cdot_cos,S,R-S,198,39,34000,0.08361079096285919,-0.06869943284671423,0.1178200758841827,0.9979452700025553,861.0,8.033201858058662,0.638968255804738,8.991099516128086,-0.2389684726307424,0.023,0.9999999999947485,-22.175188420335207,0.9835121287960441,198,2026-10-08 00:16:50.084243,52.5,0.8992583028092143,2.3945559100919667,3.9080667469095873
0214,cdot_cos,T,S-T,199,39,34233,-0.10292107588252679,-0.07663575537953424,-0.18653186684538597,5.5842303238932565e-05,861.0,8.053465894743972,0.6389683197921453,9.013776576087864,-0.05424519030317234,0.233,0.9999999999946036,2886869.3112099725,0.9884796855535753,199,2026-10-08 00:16:50.317244,52.5,0.03319555250061681,0.2370867704400366,0.08697011452922729
0214,cdot_cos,P,T-P,200,40,34572,0.005267767156992873,0.00011794458474526674,0.10818884303951966,0.9965977635927281,818.0,8.14368429308372,0.6401094929171659,9.05253491633952,-0.24283000792294057,0.339,0.9999999999945556,-165.25522156540788,0.9934474773889511,200,2026-10-08 00:16:50.656243,52.5,0.4599614983958268,0.16453829188346974,0.26613096855382623
0214,cdot_cos,Q,P-Q,201,40,34781,-0.07546398692377036,-0.15326592754975235,-0.08073175408076323,0.014225141132817318,818.0,8.165022856640965,0.6401257702587779,9.075369493186477,-0.05782894672650938,0.209,0.9999999999943855,11365.557448260191,0.9984149849606232,201,2026-10-08 00:16:50.865243,52.5,0.040798569438117535,0.24640450859426896,0.10209839022605452
0214,cdot_cos,R,Q-R,202,40,34834,-0.03936899539819644,0.08743493899206731,0.036094991525573925,0.8693231064341241,818.0,8.246681377676124,0.641119893996609,9.11204654555571,-0.22242714420369675,0.053,0.9999999999943133,-165.57113688513854,1.003382147675991,202,2026-10-08 00:16:50.918243,52.5,0.4771093878754911,1.630024756829169,1.5407268119841326
0214,cdot_cos,S,R-S,203,40,34856,0.10602739524622985,-0.06970370190502184,0.14539639064442628,0.9995161784644501,818.0,8.337805480864857,0.6422614045707065,9.150837285390288,-0.25047065970436844,0.022,0.999999999994267,-24.56702209950471,1.008349242530925,203,2026-10-08 00:16:50.940243,52.5,0.8940770913476194,2.5372871710727716,4.142004690396949
0214,cdot_cos,T,S-T,204,40,35093,-0.07422324811986618,-0.07483642441763982,-0.18025064336609603,7.76548590056687e-05,818.0,8.358322013203326,0.6422614931949963,9.173349820769346,-0.056772998080766544,0.237,0.9999999999941126,2185604.669668634,1.0133168273384787,204,2026-10-08 00:16:51.177243,52.5,0.03298204300997868,0.23440160306063063,0.08656764699775976
0214,cdot_cos,P,T-P,205,41,35390,0.006889290478038256,0.00035100476873841123,0.08111253859790443,0.9860524856763636,820.0,8.448911840715596,0.6433860483810794,9.211907661415712,-0.2519936288079828,0.297,0.9999999999940586,-173.59808850927013,1.018284552556242,205,2026-10-08 00:16:51.474244,52.5,0.4608398796138519,0.18844861161997845,0.30501625425006684
0214,cdot_cos,Q,P-Q,206,41,35600,-0.0793072760209007,-0.178034044770831,-0.08619656649893895,0.010715191757611948,820.0,8.470260488505593,0.643398259997008,9.234524286290991,-0.059780196678990115,0.21,0.9999999999938813,15740.212700212176,1.0232520793270459,206,2026-10-08 00:16:51.684243,52.5,0.040141834725362306,0.255110775492637,0.10166022757141592
0214,cdot_cos,R,Q-R,207,41,35658,-0.0344798910471942,0.06988837918658197,0.044827384973706495,0.9132070875341805,820.0,8.556058366422503,0.6444383142761183,9.271875201909163,-0.24145572690989858,0.058,0.999999999993811,-174.67889309230097,1.028219254755751,207,2026-10-08 00:16:51.742244,52.5,0.4712259549242042,1.5351218849001065,1.4792737571881065
0214,cdot_cos,S,R-S,208,41,35679,0.157957903580339,-0.08084815272094029,0.19243779462753322,0.9999590445298036,820.0,8.648334627154005,0.6455756081679277,9.310646341112038,-0.262025724583494,0.021,0.9999999999937627,-18.08679165670132,1.03318634512335,208,2026-10-08 00:16:51.763244,52.5,0.9244986082363497,2.691470823861569,4.394107653881057
0214,cdot_cos,T,S-T,209,41,35910,-0.04843904414124896,-0.05275155708399761,-0.20639694772158795,1.9680949185627688e-05,820.0,8.669100141024689,0.6455756305357284,9.333001135188736,-0.05935283799975274,0.231,0.9999999999935998,9060921.504801989,1.0381539359471095,209,2026-10-08 00:16:51.994244,52.5,0.032885855176090835,0.2385676309301929,0.08989399944018919
0214,cdot_cos,P,T-P,210,42,36210,0.00971725560957681,0.0006616930321962599,0.05815629975082577,0.9549207257264923,875.0,8.758552872643754,0.6466601665240036,9.371019119017827,-0.25694790638801956,0.3,0.9999999999935404,-182.19318724731025,1.0431216948519924,210,2026-10-08 00:16:52.294244,52.5,0.4634724738671051,0.18593440749934706,0.2981757720635514
0214,cdot_cos,Q,P-Q,211,42,36439,-0.06679959365346369,-0.14952257085325615,-0.0765168492630405,0.0176860531687094,875.0,8.780660785524297,0.646680238982797,9.39359680186016,-0.06390868356492671,0.229,0.9999999999933538,9617.118899567971,1.0480892848019516,211,2026-10-08 00:16:52.523244,52.5,0.04877450055679175,0.23631785833031047,0.09654110428184634
0214,cdot_cos,R,Q-R,212,42,36482,-0.024203122413052117,0.06450396092728222,0.042596471240411576,0.9034635178384159,875.0,8.866786451759037,0.6477049187614875,9.430750211487643,-0.2501739545059023,0.043,0.999999999993278,-181.77900531912513,1.0530564251109853,212,2026-10-08 00:16:52.566243,52.5,0.4749512948735484,2.0868887495814294,2.0029224705753346
0214,cdot_cos,S,R-S,213,42,36503,0.12184322898056152,-0.09160970162593075,0.14604635139361363,0.9995324017896734,875.0,8.9601332179883,0.6488369748152263,9.469488155613687,-0.27350405378894055,0.021,0.999999999993228,-20.60860785646358,1.0580235131674842,213,2026-10-08 00:16:52.587244,52.5,0.9182360888508795,2.7228554707578905,4.445084106155406
0214,cdot_cos,T,S-T,214,42,36729,-0.06122114173165881,-0.042535777358623884,-0.18306437071222031,6.699138988399188e-05,875.0,8.981146381530868,0.6488370506327985,9.491692023666827,-0.06196318420069213,0.226,0.999999999993056,2790129.8260152657,1.0629911112235018,214,2026-10-08 00:16:52.813244,52.5,0.032910065036022035,0.24906638797546773,0.09297859974587558
0214,cdot_cos,P,T-P,215,43,37085,0.004594353405084841,0.0001419825991920402,0.06581549513674365,0.9693892059379438,924.0,9.072711225353212,0.6499333699672258,9.529918686284926,-0.2713076988825035,0.356,0.9999999999929962,-190.95213238318345,1.0679590373186183,215,2026-10-08 00:16:53.169244,52.5,0.46226688608016436,0.1589026329774608,0.2572046174784931
0214,cdot_cos,Q,P-Q,216,43,37299,-0.09038409339241185,-0.14754230167201635,-0.09497844679749669,0.006784086298476803,924.0,9.09428505621082,0.6499410367869911,9.552169104179864,-0.06432356079835132,0.214,0.9999999999927932,26997.391933183564,1.0729266084509386,216,2026-10-08 00:16:53.383244,52.5,0.04004070049220896,0.26775700081115783,0.10081229372714279
0214,cdot_cos,R,Q-R,217,43,37349,-0.0119756665610228,0.05784943839632095,0.07840842683138904,0.9839590966553013,924.0,9.187311221700387,0.6510522047945725,9.590624027824505,-0.278701466937075,0.05,0.9999999999927238,-192.9302361803499,1.077893766123232,217,2026-10-08 00:16:53.433243,52.5,0.46338240031502836,1.873870771435655,1.8605233097913398
0214,cdot_cos,S,R-S,218,43,37371,0.10976371796930785,-0.11311625535234528,0.12173938453033065,0.9983267581907073,924.0,9.281672133354386,0.6521779223696956,9.629317837305281,-0.2851688574501065,0.022,0.9999999999926693,-5.745127069126604,1.0828608539643676,218,2026-10-08 00:16:53.455244,52.5,0.9775760777116278,2.6281155643044634,4.289132347909024
0214,cdot_cos,T,S-T,219,43,37608,-0.055483717653521655,-0.021605234043191233,-0.1652474356228295,0.0001706900746505409,924.0,9.302948306529784,0.6521781146956892,9.651380947333855,-0.06470157919264792,0.237,0.9999999999924865,1146320.7554988307,1.0878285001059838,219,2026-10-08 00:16:53.692243,52.5,0.03312562324489272,0.23952447515859143,0.0897728825966155
0214,cdot_cos,P,T-P,220,44,38009,0.007273016141179752,-0.0003589970037661885,0.06275673379470141,0.9642475247039154,897.0,9.395206734579558,0.6532637924435661,9.689494685615081,-0.281861860786045,0.401,0.9999999999924196,-200.0227802569028,1.0927965774099262,220,2026-10-08 00:16:54.093244,52.5,0.4628050697141113,0.1421590892528831,0.23007089289220564
0214,cdot_cos,Q,P-Q,221,44,38199,-0.09107794040022868,-0.1161510416781664,-0.09835095654140844,0.0056895109911599545,897.0,9.416959896110596,0.6532701937317121,9.71158747865818,-0.06686359815776323,0.19,0.9999999999921997,33586.71844240503,1.097764103067882,221,2026-10-08 00:16:54.283243,52.5,0.04013624395490138,0.3052039631216153,0.11449032384756731
0214,cdot_cos,R,Q-R,222,44,38259,-0.010615206292044706,0.06753842971850305,0.08046273410818397,0.9855754425073816,897.0,9.511184240565772,0.654378229598574,9.750044336727543,-0.2909676873524188,0.06,0.9999999999921255,-202.2534611892709,1.1027312871551398,222,2026-10-08 00:16:54.343244,52.5,0.4629192397374275,1.5766284646040833,1.5704057409196004
0214,cdot_cos,S,R-S,223,44,38280,0.08092706157054066,-0.0968459533668542,0.09154226786258537,0.9918856124415403,897.0,9.606155311863086,0.6554916700193832,9.788606435499105,-0.29575313525493074,0.021,0.9999999999920635,-4.297893100587887,1.107698369077804,223,2026-10-08 00:16:54.364243,52.5,0.9839496535377755,2.7740800595769057,4.52243196653876
0214,cdot_cos,T,S-T,224,44,38526,-0.07050356627678638,-0.02758708394844908,-0.15143062784732703,0.00035249979265673017,897.0,9.627695603068002,0.655492065415306,9.810535286693254,-0.06748838343089791,0.246,0.9999999999918668,577306.7921858786,1.1126660600338845,224,2026-10-08 00:16:54.610244,52.5,0.03396984333413316,0.23628902362206022,0.08756215936957754
0214,cdot_cos,P,T-P,225,45,38906,0.006845301249048237,-0.0002683138210252875,0.07734886752583461,0.9830570534664393,898.0,9.72240951148514,0.656593912797835,9.848937692178058,-0.29808873811494996,0.38,0.9999999999917963,-209.28520441259468,1.117634118915406,225,2026-10-08 00:16:54.990243,52.5,0.46135090981037263,0.15382694760401416,0.2492471274135199
0214,cdot_cos,Q,P-Q,226,45,39116,-0.08460907243951876,-0.12803113835752777,-0.091454373688567,0.008151611540533156,898.0,9.744604083247053,0.6566030424051451,9.8709382112215,-0.07027323486470931,0.21,0.9999999999915632,24953.483267252006,1.122601714967385,226,2026-10-08 00:16:55.200243,52.5,0.03909138826763691,0.2787311099550681,0.10568843696149141
0214,cdot_cos,R,Q-R,227,45,39160,-0.010551368098068812,0.05647695259526288,0.07405770434144995,0.9799255645712858,898.0,9.839476577666268,0.6576996902331893,9.909275585078841,-0.3017324542483767,0.044,0.9999999999914807,-211.06066456764054,1.1275688557779011,227,2026-10-08 00:16:55.244244,52.5,0.4643573645799582,2.174497398417443,2.1561930549821686
0214,cdot_cos,S,R-S,228,45,39181,0.10562724912831391,-0.11068665561485658,0.11617861722638272,0.9977607608910807,898.0,9.935959854307788,0.6588145691442522,9.947912450650202,-0.3093679864721544,0.021,0.9999999999914149,-6.848754737407608,1.1325359344409018,228,2026-10-08 00:16:55.265243,52.5,0.9756210194530838,2.815837872333008,4.594441744834265
0214,cdot_cos,T,S-T,229,45,39424,-0.054628292393901844,-0.02345707386228346,-0.16025554152221574,0.0002218214506664335,898.0,9.957741768304254,0.6588148168087025,9.96970785897907,-0.07026025176047081,0.243,0.9999999999912047,965450.3681899263,1.137503639037035,229,2026-10-08 00:16:55.508243,52.5,0.033267571410984687,0.2381965508938512,0.08963750615829953
0214,cdot_cos,P,T-P,230,46,39804,0.005537271135653068,0.00013841429869928024,0.06016556352955491,0.9592498512981037,898.0,10.0517233780422,0.6598850106912791,10.007682942192352,-0.3044499849616722,0.38,0.9999999999911252,-218.82925796337895,1.142471735035379,230,2026-10-08 00:16:55.888243,52.5,0.4633732699871162,0.1533732966124281,0.24732002562617078
0214,cdot_cos,Q,P-Q,231,46,40015,-0.08212750611745633,-0.13356510767043653,-0.0876647772531094,0.009928175103732317,898.0,10.0743054737297,0.6598960786256248,10.029584451919671,-0.07357902359653129,0.211,0.9999999999908785,20859.444423348446,1.1474393518369248,231,2026-10-08 00:16:56.099244,52.5,0.04338124891546632,0.2793902847803362,0.10702415017772735
0214,cdot_cos,R,Q-R,232,46,40064,-0.014589482329432588,0.061266533375396004,0.06753802378802373,0.971961734913613,898.0,10.169626078219501,0.6609787755887238,10.067761690238802,-0.31191736394960123,0.049,0.9999999999907886,-220.13393264805208,1.1524065062696156,232,2026-10-08 00:16:56.148243,52.5,0.4657495117393651,1.9673732369943697,1.9453184589755386
0214,cdot_cos,S,R-S,233,46,40085,0.09563080333174012,-0.09798253706365039,0.11022028566117271,0.9969408825002152,898.0,10.267108050955148,0.6620875505054516,10.106360796791435,-0.3215132735523834,0.021,0.9999999999907168,-8.65451540976473,1.1573735815706983,233,2026-10-08 00:16:56.169244,52.5,0.9705949198875046,2.8453332806421288,4.641998701697469
0214,cdot_cos,T,S-T,234,46,40323,-0.06882610513031051,-0.0325864644804444,-0.16445690846205063,0.0001779219419847004,898.0,10.28913007600647,0.6620877482277259,10.128027998078075,-0.07305751982520846,0.238,0.999999999990493,1256589.601284558,1.1623412932279578,234,2026-10-08 00:16:56.407244,52.5,0.0333457876803802,0.249749515247493,0.0925295170223637
0214,cdot_cos,P,T-P,235,47,40702,0.009121700654132679,-0.0005027629182682607,0.07794780578444319,0.9835729073620572,840.0,10.385988820212955,0.6631799124429083,10.166389159362328,-0.3226707983173343,0.379,0.999999999990412,-228.5492190846325,1.1673094237939936,235,2026-10-08 00:16:56.786243,52.5,0.46135615404544555,0.1575307822259612,0.2555639688825438
0214,cdot_cos,Q,P-Q,236,47,40893,-0.08769798753250425,-0.1248837731397019,-0.09681968818663693,0.006162852434943388,840.0,10.40853840893375,0.663186750228546,10.1881029574747,-0.07555395406034501,0.191,0.9999999999901495,36139.893431931436,1.1722769996431508,236,2026-10-08 00:16:56.977243,52.5,0.03797856176698261,0.3071144081619857,0.1180606739308612
0214,cdot_cos,R,Q-R,237,47,40952,-0.03112269377807815,0.10386119359057612,0.056575293754426104,0.9512096954401221,840.0,10.503306524130833,0.6642413126267528,10.225900316396148,-0.3188241064784155,0.059,0.9999999999900526,-230.68350704684363,1.1772441840303878,237,2026-10-08 00:16:57.036243,52.5,0.466254767795494,1.6382997982512508,1.6062392406285435
0214,cdot_cos,S,R-S,238,47,40975,0.08085406836500475,-0.07504744769599342,0.1119767621430829,0.9972096110989496,840.0,10.601857785127397,0.6653451169101755,10.264479888815137,-0.33407075564937694,0.023,0.9999999999899758,-13.812819355695973,1.1822112621722773,238,2026-10-08 00:16:57.059244,52.5,0.9553868118684655,2.626250177997978,4.2848374346331966
0214,cdot_cos,T,S-T,239,47,41201,-0.0960785852139898,-0.06594231240347097,-0.17693265357899457,9.243020420713991e-05,840.0,10.62411403231874,0.6653452191369256,10.28602282877747,-0.0758766479523198,0.226,0.999999999989738,2525700.0494773034,1.1871789588881256,239,2026-10-08 00:16:57.285243,52.5,0.0332794949527971,0.2679709421388717,0.0984789698732011
0214,cdot_cos,P,T-P,240,48,41542,0.010167926791871047,-0.0006426402699208924,0.10624651200586085,0.996233899227821,819.0,10.722980650974167,0.6664461393474754,10.324575193408302,-0.3384253258938749,0.341,0.9999999999896558,-238.4811137315971,1.1921470110647416,240,2026-10-08 00:16:57.626244,52.5,0.46033766399611337,0.17869418337691215,0.289931433007116
0214,cdot_cos,Q,P-Q,241,48,41752,-0.07972210413142108,-0.15535441932315633,-0.08989003092329213,0.008843176512118614,819.0,10.745983465381794,0.6664559036827059,10.346214968717542,-0.07918834015144943,0.21,0.9999999999893843,26549.373779513582,1.1971146623687277,241,2026-10-08 00:16:57.836244,52.5,0.037866963743620786,0.27603197026268067,0.10953721146489298
0214,cdot_cos,R,Q-R,242,48,41797,-0.03460523376202831,0.09061958370851965,0.04511687036939278,0.914404137797178,819.0,10.838914078484493,0.6674647858124458,10.383352962286281,-0.3211575447821782,0.045,0.9999999999892756,-239.83892418939337,1.2020818047877597,242,2026-10-08 00:16:57.881243,52.5,0.4707498795277562,2.1414164424827575,2.0651247356155187
0214,cdot_cos,S,R-S,243,48,41818,0.15086510824191834,-0.08837951308119574,0.18547034200394666,0.9999409574388979,819.0,10.938710945205242,0.6685662868644922,10.421954693571832,-0.3473856540400014,0.021,0.9999999999891978,-23.811243038849458,1.20704887414993,243,2026-10-08 00:16:57.902244,52.5,0.9272784162263189,2.911515965923428,4.752231748607135
0214,cdot_cos,T,S-T,244,48,42061,-0.04511120202940073,-0.041166948406157484,-0.19597631027131907,3.401223306411659e-05,819.0,10.961197749053277,0.668566324299922,10.443377532449167,-0.07871467551825437,0.243,0.9999999999889488,7176917.147083424,1.2120166453333703,244,2026-10-08 00:16:58.145243,52.5,0.03293478059847275,0.2443050009718079,0.09253828744046973
0214,cdot_cos,P,T-P,245,49,42361,0.010681571003879382,-0.0008198364466399625,0.05579277303328011,0.9492673401401465,818.0,11.057443175677541,0.6696102999132397,10.481097470991543,-0.3381913726113984,0.3,0.999999999988853,-248.54670337417122,1.216984600769219,245,2026-10-08 00:16:58.445244,52.5,0.4642889763873767,0.19907760313125542,0.32081808874754836
0214,cdot_cos,Q,P-Q,246,49,42571,-0.08021552253135959,-0.15396623857025066,-0.09089709353523898,0.008391597130583909,818.0,11.08064431093203,0.6696195213101416,10.502611231921081,-0.08196648569553584,0.21,0.9999999999885731,27785.908105148636,1.2219522709865076,246,2026-10-08 00:16:58.655244,52.5,0.04389427568371182,0.2835876661982431,0.11048159644994641
0214,cdot_cos,R,Q-R,247,49,42614,-0.02770419622220372,0.07625922540603612,0.05251132630915587,0.9402987469413364,818.0,11.176549995480803,0.6706519740112995,10.540163153938904,-0.3401028507800399,0.043,0.9999999999884667,-250.02246087883387,1.226919407221702,247,2026-10-08 00:16:58.698244,52.5,0.46813666546990823,2.287422837656827,2.2303647569482177
0214,cdot_cos,S,R-S,248,49,42634,0.14013210490757216,-0.09490641786172942,0.16783630112977588,0.9998509985948939,818.0,11.277362674970517,0.6717480111729563,10.57873830034549,-0.3600511065299028,0.02,0.9999999999883875,-18.200346163179084,1.231886470888442,248,2026-10-08 00:16:58.718244,52.5,0.9461028865868015,3.088211954043363,5.0406339744856865
0214,cdot_cos,T,S-T,249,49,42859,-0.05745684525757041,-0.05036688752366021,-0.19758895016514258,3.125125147418563e-05,818.0,11.300078473642538,0.6717480454014426,10.600045397860157,-0.08157573681244114,0.225,0.9999999999881289,8135778.121787916,1.23685420631435,249,2026-10-08 00:16:58.943244,52.5,0.0329190620579042,0.26926846074116795,0.10095910520898124
0214,cdot_cos,P,T-P,250,50,43179,0.005685159013890889,-0.00014716378513261044,0.0631420042714613,0.9649383145277554,859.0,11.398533482304043,0.6728040398359451,10.638006650386242,-0.35487616282454515,0.32,0.999999999988036,-258.8085856161517,1.2418222576890818,250,2026-10-08 00:16:59.263244,52.5,0.46295334137455674,0.1907192757302889,0.3076719020672025
0214,cdot_cos,Q,P-Q,251,50,43389,-0.08090100264298042,-0.14778142908463515,-0.0865861616568713,0.01050053010756637,859.0,11.422138810109923,0.6728155216462673,10.659444365768955,-0.0855404724507694,0.21,0.999999999987744,23457.597958305105,1.246789947343723,251,2026-10-08 00:16:59.473243,52.5,0.04291067756821357,0.2892631229504085,0.11240632288514331
0214,cdot_cos,R,Q-R,252,50,43440,-0.023541235793446996,0.07237160740987861,0.05735976684953342,0.9530859444236317,859.0,11.520023993943214,0.6738568107413457,10.697187715699567,-0.35601671154259573,0.051,0.9999999999876378,-259.75134126557265,1.2517571102873817,252,2026-10-08 00:16:59.524243,52.5,0.46779315702016044,1.957866041682137,1.919317330064539
0214,cdot_cos,S,R-S,253,50,43461,0.13014845830185237,-0.09840467506012172,0.15368969409529937,0.9996869106917762,859.0,11.6218411463615,0.6749471730225624,10.735734503561224,-0.3728946403101776,0.021,0.9999999999875564,-15.479193528915568,1.256724174609986,253,2026-10-08 00:16:59.545243,52.5,0.9557471162003198,2.970615280067849,4.848435829442213
0214,cdot_cos,T,S-T,254,50,43679,-0.05992668290054152,-0.04246499078973784,-0.19007514120239388,4.636381379900135e-05,859.0,11.644789835706064,0.6749472235479204,10.75693116468529,-0.08450056773514522,0.218,0.9999999999872857,5707907.552605847,1.2616919076647715,254,2026-10-08 00:16:59.763244,52.5,0.032944706817057176,0.2822182042183591,0.10526921717689532
0214,cdot_cos,P,T-P,255,51,44038,0.0085135618776741,0.00043141533617874423,0.06844024477821561,0.9732241183924427,838.0,11.744888283400705,0.6760069044602257,10.795007778062146,-0.369897640056399,0.359,0.999999999987193,-269.32359449635527,1.2666601247867908,255,2026-10-08 00:17:00.122243,52.5,0.46229276932804114,0.1734754671835455,0.27882575959510136
0214,cdot_cos,Q,P-Q,256,51,44248,-0.06747109101035839,-0.12881022852424703,-0.0759846528880325,0.018178065694790486,838.0,11.76934522114385,0.6760266802659999,10.81647138474632,-0.09085533100688084,0.21,0.9999999999868864,14110.287703876893,1.271627833709185,256,2026-10-08 00:17:00.332243,52.5,0.04636169825192764,0.26144833870124073,0.11646160830068705
0214,cdot_cos,R,Q-R,257,51,44302,-0.042980556999628924,0.10387113488771733,0.024490534010729467,0.7834274789469007,838.0,11.854696585655226,0.6768783681803959,10.851230896181981,-0.31811521011117616,0.054,0.99999999998674,-266.83468822667334,1.2765950072584134,257,2026-10-08 00:17:00.386244,52.5,0.48948821861498226,1.7415258301738155,1.5805808242847559
0214,cdot_cos,S,R-S,258,51,44324,0.08584648713004629,-0.06248415230635307,0.12882704412967522,0.9988460615188992,838.0,11.957430010802621,0.6779625445057894,10.889736150477177,-0.38526985885065695,0.022,0.9999999999866539,-61.94070758288162,1.2815620718031198,258,2026-10-08 00:17:00.408243,52.5,0.8400402406478423,2.8612072755126956,4.6697011430634205
0214,cdot_cos,T,S-T,259,51,44557,-0.08692792769543956,-0.07384204644338799,-0.17277441482548583,0.00011497776884070739,838.0,11.980589705777785,0.6779626691960277,10.910821799709037,-0.08731273598606706,0.233,0.9999999999863692,2389578.5833491557,1.2865298762114654,259,2026-10-08 00:17:00.641243,52.5,0.03295779033623739,0.2698354930382248,0.09939783251143067
0214,cdot_cos,P,T-P,260,52,44876,0.005553812556560402,-8.897322095531725e-05,0.09248174025199996,0.9922731056633638,821.0,12.083173350558434,0.6790378168406778,10.949201786411917,-0.388090007055294,0.319,0.9999999999862736,-279.7543877493312,1.2914979871073071,260,2026-10-08 00:17:00.960243,52.5,0.46069485927364334,0.1984998185365421,0.32157882376379127
0214,cdot_cos,Q,P-Q,261,52,45086,-0.08110192837458365,-0.16831519377502213,-0.08665574093114405,0.010462643158115058,821.0,12.107232590004099,0.6790491432364808,10.970421825176818,-0.09149750795492113,0.21,0.9999999999859547,26185.95573191021,1.2964657144540097,261,2026-10-08 00:17:01.170244,52.5,0.03910377136278885,0.2896870439781881,0.11456780688411648
0214,cdot_cos,R,Q-R,262,52,45137,-0.03302784962356849,0.07768094459172252,0.04807407875101515,0.9257996603746756,821.0,12.204841909029273,0.6800505374867615,11.007627439871008,-0.3724592761130652,0.051,0.9999999999858342,-280.5705825446823,1.3014328782571258,262,2026-10-08 00:17:01.221244,52.5,0.4703198661819362,1.9747664726911491,1.9139082161798935
0214,cdot_cos,S,R-S,263,52,45158,0.14723956211101888,-0.08682416606537774,0.18026741173458738,0.999922413468238,821.0,12.308658770218596,0.6811302454820402,11.046124215374629,-0.3987122735932307,0.021,0.9999999999857455,-24.314905136355396,1.3063999365218437,263,2026-10-08 00:17:01.242244,52.5,0.9362764740604647,3.028505210197284,4.943660056634411
0214,cdot_cos,T,S-T,264,52,45396,-0.05049380794371674,-0.048729048334027,-0.19773337005473562,3.1015206435849494e-05,821.0,12.33203912785756,0.6811302789419442,11.067104976183124,-0.0902593425887548,0.238,0.9999999999854486,9218583.841790304,1.3113677815848808,264,2026-10-08 00:17:01.480243,52.5,0.03279736042042843,0.25924862198892346,0.09823679680236677
0214,cdot_cos,P,T-P,265,53,45697,0.004945742882008138,-0.00017873613675293494,0.055439550825724875,0.9483667974311161,835.0,12.432061114285323,0.6821525242831519,11.10468726857417,-0.38740137126359586,0.301,0.9999999999853407,-290.675845314987,1.3163358594223755,265,2026-10-08 00:17:01.781244,52.5,0.46439798728304466,0.20623465309459046,0.332298958231775
0214,cdot_cos,Q,P-Q,266,53,45904,-0.08561868250250981,-0.15948218614080545,-0.09056442538451795,0.008538182005296909,835.0,12.456192389020503,0.6821617196454494,11.125770824159519,-0.09393181447710237,0.207,0.9999999999850101,31914.95313530929,1.3213035953900711,266,2026-10-08 00:17:01.988243,52.5,0.04396845441528368,0.30230658100502394,0.11657620645014095
0214,cdot_cos,R,Q-R,267,53,45956,-0.026777391937161468,0.07259680547830438,0.05884129056534834,0.9564437075863963,835.0,12.557216038821403,0.6831908798832981,11.163481520833193,-0.3945285699659546,0.052,0.9999999999848932,-292.0796436104052,1.3262707637880453,267,2026-10-08 00:17:02.040244,52.5,0.4667722705462935,1.9790128376120888,1.942762496171168
0214,cdot_cos,S,R-S,268,53,45978,0.1364013242736912,-0.09183864078328852,0.16317871621085267,0.999809731226483,835.0,12.66200972413216,0.6842647897013882,11.201947977808457,-0.41186684977101995,0.022,0.999999999984802,-16.145005393377474,1.3312378231299653,268,2026-10-08 00:17:02.062243,52.5,0.9587769585467674,2.9181560987935646,4.763349332307114
0214,cdot_cos,T,S-T,269,53,46214,-0.050508734553828,-0.042164694063279655,-0.1869100588275192,5.474454469598903e-05,835.0,12.68561490716832,0.6842648484495889,11.222828545101464,-0.09324731774373012,0.236,0.999999999984494,5423477.280450695,1.3362056840621634,269,2026-10-08 00:17:02.298244,52.5,0.03281302536269745,0.2651488050593717,0.1000219620176285
0214,cdot_cos,P,T-P,270,54,46532,0.007891257203119713,0.00038000615362832226,0.05839999175694771,0.955468269176588,876.0,12.787159960120183,0.6852892955218165,11.260503597870782,-0.40240487974964056,0.318,0.9999999999843844,-301.7799263496029,1.3411738569041949,270,2026-10-08 00:17:02.616243,52.5,0.4638125092805068,0.19815842947461834,0.319324065886362
0214,cdot_cos,Q,P-Q,271,54,46745,-0.07957691025088659,-0.14654860025001334,-0.0874681674540063,0.010030151388026392,876.0,12.811643668314177,0.6853000402510707,11.281515177234114,-0.09750317791010109,0.213,0.9999999999840399,28376.86223873925,1.3461416350352107,271,2026-10-08 00:17:02.829243,52.5,0.04384498133013234,0.2970076612803061,0.1149469868262636
0214,cdot_cos,R,Q-R,272,54,46797,-0.020340428377482195,0.06391759810507668,0.0592364818734044,0.9572998935829182,876.0,12.913685223825594,0.6863246268700538,11.319209170160786,-0.4076530360115221,0.052,0.9999999999839185,-302.70730883568416,1.3511088041666437,272,2026-10-08 00:17:02.881243,52.5,0.4672839284987522,1.9976563610336362,1.962337605988774
0214,cdot_cos,S,R-S,273,54,46819,0.11352899634808665,-0.09293937951194375,0.13386942472556884,0.999114210287509,876.0,13.019399929861676,0.6873920322506366,11.357633813337115,-0.42494895864381754,0.022,0.9999999999838242,-16.203705683825387,1.3560758606334298,273,2026-10-08 00:17:02.903244,52.5,0.9601159921638487,2.944200103776334,4.805213910730996
0214,cdot_cos,T,S-T,274,54,47051,-0.06418849791932522,-0.04129220865855196,-0.17771749426741187,8.86994248933013e-05,876.0,13.043230028391752,0.6873921269248794,11.378417796044609,-0.09627046812230114,0.232,0.9999999999835029,3471678.0496422476,1.361043729167997,274,2026-10-08 00:17:03.135243,52.5,0.0329055011013263,0.27663910758995797,0.10271594193998612
0214,cdot_cos,P,T-P,275,55,47408,0.010218923452087456,-0.00045669510353084006,0.07440742137141268,0.9802835706445863,862.0,13.147760475783416,0.6884374866762152,11.416498499888913,-0.4235913194513404,0.357,0.9999999999833952,-313.11790119217613,1.3660120868041943,275,2026-10-08 00:17:03.492243,52.5,0.46175171369218676,0.18053364868568172,0.2928023736461169
0214,cdot_cos,Q,P-Q,276,55,47602,-0.08768062575118259,-0.12419619894669133,-0.09789954920327004,0.005825161659208131,862.0,13.17213105355333,0.6884436928203556,11.43734144383007,-0.09924288607847427,0.194,0.9999999999830314,52262.47184024842,1.3709798107606257,276,2026-10-08 00:17:03.686244,52.5,0.03807381334087996,0.3322583318474475,0.1256215348964589
0214,cdot_cos,R,Q-R,277,55,47656,-0.016944502357020143,0.07441768355637798,0.07073612339416244,0.9761922056479341,862.0,13.276676708540226,0.689482773671663,11.475336854543254,-0.42703525710671486,0.054,0.9999999999829101,-315.4637780263114,1.375946988299864,277,2026-10-08 00:17:03.740243,52.5,0.4641255171951154,1.9526111417216028,1.9360306479054927
0214,cdot_cos,S,R-S,278,55,47678,0.08332999093450082,-0.08767599466726103,0.10027449329152097,0.9948541772292769,862.0,13.383013056859262,0.6905397560300719,11.513655150057092,-0.43699140050480423,0.022,0.9999999999828096,-9.419403567980645,1.380914041626395,278,2026-10-08 00:17:03.762244,52.5,0.9774741962394022,2.963621205484536,4.833470378138022
0214,cdot_cos,T,S-T,279,55,47911,-0.0809515746527572,-0.04519931002646876,-0.164281565587258,0.00017956706897218863,862.0,13.407076041581545,0.6905399466317436,11.534347656404888,-0.09937144335007492,0.233,0.9999999999824739,1771337.8597376184,1.3858819369281394,279,2026-10-08 00:17:03.995244,52.5,0.03345496308222665,0.28008679046253526,0.10327461254198744
0214,cdot_cos,P,T-P,280,56,48270,0.01076423832573667,-0.0004608058455334269,0.09171581297849386,0.9919586160030175,819.0,13.513533501214804,0.6915918723596631,11.572602898926066,-0.44093964801354424,0.359,0.9999999999823632,-324.70752981676907,1.3908503409634336,280,2026-10-08 00:17:04.354244,52.5,0.46087100654085594,0.18328307428644056,0.29653888477230744
0214,cdot_cos,Q,P-Q,281,56,48478,-0.07279399195088332,-0.132916514499614,-0.08355823027661999,0.012287525347176764,819.0,13.53867328891921,0.6916048902790629,11.59346952715851,-0.10463434819956272,0.208,0.9999999999819862,25834.028425433193,1.3958181394430047,281,2026-10-08 00:17:04.562243,52.5,0.04019147404111086,0.2901782467924112,0.12086436396349014
0214,cdot_cos,R,Q-R,282,56,48524,-0.03865481756544736,0.10145532322376222,0.03413917438543596,0.857209846418147,819.0,13.634247651880447,0.6925123020355513,11.629318856981516,-0.39891046157316745,0.046,0.9999999999818263,-324.30273386851997,1.400785285004525,282,2026-10-08 00:17:04.608243,52.5,0.4782127012544367,2.2090630790271146,2.0777035426355894
0214,cdot_cos,S,R-S,283,56,48545,0.10135353048092222,-0.07122272042830285,0.14000834804636958,0.9993581015067854,819.0,13.741907092189704,0.6935683100054153,11.667684662470071,-0.4518453784752081,0.021,0.9999999999817222,-50.12738389546017,1.4057523308385222,283,2026-10-08 00:17:04.629244,52.5,0.8894493425543286,3.141008042334023,5.1266400147265445
0214,cdot_cos,T,S-T,284,56,48770,-0.08093951959450142,-0.07183831967943212,-0.18229305007542362,6.975964334085382e-05,819.0,13.766169989658476,0.6935683836487888,11.688281898531377,-0.10232230095932772,0.225,0.9999999999813713,4746157.880264003,1.4107202152801406,284,2026-10-08 00:17:04.854244,52.5,0.03284672541846022,0.29214223951814944,0.10783509986120679
0214,cdot_cos,P,T-P,285,57,49089,0.005813860713410848,0.00020855680176420853,0.08675338030791227,0.9895902949610287,820.0,13.873371099972871,0.6946120722135888,11.726462023185634,-0.45338446006785077,0.319,0.9999999999812555,-336.3667773593035,1.41568849144605,285,2026-10-08 00:17:05.173243,52.5,0.46101970414733945,0.20747661727767697,0.3360536373492029
0214,cdot_cos,Q,P-Q,286,57,49300,-0.08160274982541164,-0.1728023251109179,-0.08741661053882249,0.01005706374718227,820.0,13.898540071481634,0.6946226688420514,11.747197273099353,-0.10695508284391983,0.211,0.9999999999808663,32692.415181581826,1.4206563219851043,286,2026-10-08 00:17:05.384243,52.5,0.039202395401506364,0.3009963716824657,0.11928422516001035
0214,cdot_cos,R,Q-R,287,57,49351,-0.03460336245271186,0.0783510724687846,0.046999387372699784,0.9218294923051803,820.0,14.000391568822872,0.695593078865267,11.784156889838782,-0.4340172995395394,0.051,0.9999999999807202,-337.0350767934567,1.4256234885599572,287,2026-10-08 00:17:05.435244,52.5,0.470683427291816,2.0638610333245,1.997088183161536
0214,cdot_cos,S,R-S,288,57,49373,0.16246196611515665,-0.08696390291637889,0.19706532856786851,0.9999678777580642,820.0,14.109053896880733,0.6966437813302369,11.822499845358065,-0.4656259433924284,0.022,0.9999999999806118,-30.083344149950097,1.430590535682316,288,2026-10-08 00:17:05.457243,52.5,0.9343686688368921,3.0258482076875772,4.939196729902759
0214,cdot_cos,T,S-T,289,57,49608,-0.041882428174961205,-0.04245305119931342,-0.20434439429011786,2.1920185777768434e-05,820.0,14.133528889961125,0.6966438043401205,11.843007514472092,-0.10537441569622712,0.235,0.9999999999802478,15656381.967830168,1.435558484644735,289,2026-10-08 00:17:05.692243,52.5,0.03275249813737748,0.271491862130023,0.10414890672507529
0214,cdot_cos,P,T-P,290,58,49909,0.007471289959881284,-0.00036241880479282536,0.04935371813484249,0.9302846571709874,838.0,14.236655072081843,0.6976194470892562,11.880094883069972,-0.44519035083979486,0.301,0.9999999999801119,-348.29955477517103,1.440526717578709,290,2026-10-08 00:17:05.993243,52.5,0.46612343045250915,0.2129913087946952,0.3426119007332828
0214,cdot_cos,Q,P-Q,291,58,50118,-0.08788189057839002,-0.16539513872884426,-0.0953531805382713,0.006652802997136563,838.0,14.261749657855532,0.6976264178599589,11.90068036368981,-0.10882077560146439,0.209,0.99999999997971,48254.28773671372,1.4454945596571165,291,2026-10-08 00:17:06.202244,52.5,0.04545457133245512,0.31444101445148387,0.12006978839085357
0214,cdot_cos,R,Q-R,292,58,50168,-0.025058442416563475,0.06991518635583428,0.06282344816182654,0.9643680747211179,838.0,14.368091416122564,0.6986359132911626,11.938361690809838,-0.4623887755667739,0.05,0.9999999999795709,-350.2422983170301,1.450461722726213,292,2026-10-08 00:17:06.252243,52.5,0.46549438734848136,2.159274856396518,2.126835165340637
0214,cdot_cos,S,R-S,293,58,50189,0.13405812049127672,-0.09549423513345502,0.15911656290784018,0.9997645130517157,838.0,14.477677143495184,0.6996804352579478,11.976665848219161,-0.47913901816108284,0.021,0.9999999999794608,-16.036276044880918,1.455428762795824,293,2026-10-08 00:17:06.273243,52.5,0.9656449632413976,3.1969979288770336,5.21836797012476
0214,cdot_cos,T,S-T,294,58,50427,-0.05646624149764556,-0.04475490903118962,-0.19052436198892228,4.528320754133262e-05,838.0,14.502365329135399,0.6996804825215756,11.997087128294748,-0.10844662774008246,0.238,0.9999999999790844,7843079.504469228,1.460396748352219,294,2026-10-08 00:17:06.511244,52.5,0.03277133182488852,0.277344086638249,0.10373187243788011
0214,cdot_cos,P,T-P,295,59,50747,0.009184149467367134,0.0005742293979179171,0.06565039096501268,0.9691309454350968,920.0,14.60969292873499,0.7006910241795498,12.034830506935627,-0.47268592233924095,0.32,0.9999999999789551,-360.43966295198044,1.4653650964059834,295,2026-10-08 00:17:06.831244,52.5,0.46274755845422516,0.20936094279625783,0.335398748748722
0214,cdot_cos,Q,P-Q,296,59,50976,-0.06272854431168334,-0.11837860648077454,-0.07191269377905048,0.022413651180717763,920.0,14.636356332525004,0.7007143725048052,12.055614377232564,-0.1179652216654997,0.229,0.9999999999785412,15192.554360682228,1.470333046761333,296,2026-10-08 00:17:07.060243,52.5,0.049440077954037764,0.2841723743206517,0.11643407768565053
0214,cdot_cos,R,Q-R,297,59,51015,-0.016128011417770163,0.06734598646646746,0.04660053289391318,0.9203071774492402,920.0,14.739843876173849,0.7016721556313454,12.092468377111233,-0.45904335623115244,0.039,0.9999999999783825,-356.11207288408286,1.475300161381119,297,2026-10-08 00:17:07.099244,52.5,0.4756754744432663,2.7406768357417595,2.653526760226782
0214,cdot_cos,S,R-S,298,59,51036,0.09467309494049114,-0.09565450660921426,0.1108011063582613,0.9970324839167521,920.0,14.850129125712861,0.702707797140098,12.130686733699951,-0.49177019841133174,0.021,0.9999999999782675,-31.60055086976836,1.4802671981252429,298,2026-10-08 00:17:07.120243,52.5,0.9356170176596437,3.219082088217597,5.2516785494767975
0214,cdot_cos,T,S-T,299,59,51267,-0.06343457239231107,-0.026950728141976417,-0.1581076673328022,0.00024829304933578845,920.0,14.875045323878988,0.7027080547895834,12.15102752161848,-0.11161146353924672,0.231,0.9999999999778753,1475488.042454711,1.4852351759738063,299,2026-10-08 00:17:07.351244,52.5,0.03317063098592847,0.28948841558161126,0.10786232972349062
0214,cdot_cos,P,T-P,300,60,51667,0.0071465937427429215,-0.0004222613712446453,0.07058116613505398,0.9760024000471124,880.0,14.983872773711566,0.7037198393918692,12.18885547857621,-0.4887162375456814,0.4,0.9999999999777442,-372.71250536378125,1.4902039180668305,300,2026-10-08 00:17:07.751244,52.5,0.4622621275286195,0.16758597729640057,0.2720686245814452
0214,cdot_cos,Q,P-Q,301,60,51856,-0.10192410422930769,-0.13406456357410873,-0.1090706979720506,0.003248812464842297,880.0,15.009114105716108,0.7037232039816069,12.209213589497047,-0.1138612638570128,0.189,0.9999999999772978,111411.7924950737,1.495171709097472,301,2026-10-08 00:17:07.940243,52.5,0.037171680399819496,0.35863729566326513,0.13355202118805487
0214,cdot_cos,R,Q-R,302,60,51915,-0.015440111550824871,0.08000784571037961,0.08648399267848281,0.9894435912445149,880.0,15.11943767147228,0.7047468778019087,12.247268030121493,-0.49890282761550864,0.059,0.9999999999771538,-376.1369648439262,1.500138912990168,302,2026-10-08 00:17:07.999244,52.5,0.46219117646560315,1.8759823125652215,1.8698909450198622
0214,cdot_cos,S,R-S,303,60,51937,0.08539840750726489,-0.09323483536706874,0.10083851905808977,0.9950035679262649,880.0,15.230480018598804,0.7057742284459855,12.285411114528713,-0.5048174951261568,0.022,0.9999999999770282,-5.75720426589441,1.5051059502178559,303,2026-10-08 00:17:08.021244,52.5,0.988351923120599,3.094780351192645,5.047379414842013
0214,cdot_cos,T,S-T,304,60,52163,-0.07778873317792372,-0.03495356026500239,-0.1631871406851886,0.00019018465511908795,880.0,15.255608006924756,0.7057744246141054,12.305670669552413,-0.11474936718898278,0.226,0.9999999999766176,1988437.9174165765,1.5100739276238266,304,2026-10-08 00:17:08.247243,52.5,0.03339646362501012,0.3004555323761155,0.11118578905288534
0214,cdot_cos,P,T-P,305,61,52547,0.004386540596514619,-3.4388791632170417e-05,0.08217527377443834,0.986799365866163,856.0,15.366285919232809,0.7067912421997703,12.343652439837967,-0.5066438812418262,0.384,0.9999999999764814,-385.4128012514659,1.5150426399834085,305,2026-10-08 00:17:08.631244,52.5,0.46139037203430555,0.17763969250157025,0.28822372996888573
0214,cdot_cos,Q,P-Q,306,61,52752,-0.09122144165127125,-0.1556694172367342,-0.09560798224778587,0.006564980817968571,856.0,15.392035290765962,0.7067979999971344,12.363991438094851,-0.11839570835765613,0.205,0.9999999999760193,57451.88142873577,1.5200105229490692,306,2026-10-08 00:17:08.836244,52.5,0.03765679193195363,0.3303801267616405,0.12560669040562839
0214,cdot_cos,R,Q-R,307,61,52800,-0.023833465037610947,0.0846149782031366,0.0673879766136603,0.9717462569642227,856.0,15.501741771205081,0.707797280754157,12.401687094088485,-0.5056360415485738,0.048,0.9999999999758599,-387.51905354879034,1.5249776762294698,307,2026-10-08 00:17:08.884243,52.5,0.4649395115770017,2.3134449947512605,2.285551675814975
0214,cdot_cos,S,R-S,308,61,52822,0.14074235659889725,-0.11075475660432185,0.1645758216365082,0.9998231851585431,856.0,15.614126010262083,0.7088233437822494,12.43987604698179,-0.5206231185721996,0.022,0.9999999999757286,-14.606390263850729,1.5299447096744807,308,2026-10-08 00:17:08.906244,52.5,0.9716235861272887,3.129892668922476,5.108374502591011
0214,cdot_cos,T,S-T,309,61,53063,-0.046965743932923236,-0.02894859516905407,-0.1877081005318205,5.249840458407289e-05,856.0,15.63945704863767,0.7088233976026819,12.460055105617947,-0.1178669019068599,0.241,0.9999999999753008,7483332.971802793,1.5349127802710478,309,2026-10-08 00:17:09.147244,52.5,0.03280932419515772,0.27765700456258435,0.10510804305222697
0214,cdot_cos,P,T-P,310,62,53403,0.009701703704177278,0.000488299660662141,0.056667447637100514,0.9514337402393106,878.0,15.747956686461249,0.7097978270715821,12.4973582727598,-0.5060118459846152,0.34,0.9999999999751434,-398.3304656373118,1.5398813253256807,310,2026-10-08 00:17:09.487243,52.5,0.46437312003870035,0.19811691685488397,0.3191165818340558
0214,cdot_cos,Q,P-Q,311,62,53613,-0.07880698518687616,-0.14052188774226457,-0.08850868889105344,0.009501994140357432,878.0,15.774176552098991,0.7098075489977357,12.517672176307329,-0.12280532578087341,0.21,0.9999999999746688,39416.7281412013,1.5448492518357066,311,2026-10-08 00:17:09.697243,52.5,0.04413779046999329,0.3201086125179326,0.12485650303686736
0214,cdot_cos,R,Q-R,312,62,53667,-0.024765324232529994,0.0801685652015481,0.05404166095434617,0.9446525813604019,878.0,15.88240230371878,0.7107731044973999,12.554836779574158,-0.5080490920032018,0.054,0.9999999999744942,-398.9866624510799,1.5498164336529925,312,2026-10-08 00:17:09.751244,52.5,0.4684712281231073,2.050518747868176,2.004180585551658
0214,cdot_cos,S,R-S,313,62,53689,0.10861506084477465,-0.0916518002931083,0.13338038507730465,0.9990911944792921,878.0,15.995632576868754,0.7117922270393409,12.592970610070989,-0.5341391361567938,0.022,0.9999999999743558,-25.600497565193127,1.5547834634988345,313,2026-10-08 00:17:09.773243,52.5,0.9523286970340649,3.1538184360891854,5.146830597726067
0214,cdot_cos,T,S-T,314,62,53922,-0.07223596484644211,-0.043384123170133404,-0.18085102569121675,7.524552706136001e-05,878.0,16.021170314906705,0.7117923037129877,12.613072362554714,-0.12099398872851992,0.233,0.9999999999739106,5388359.159390181,1.5597515191221547,314,2026-10-08 00:17:10.006243,52.5,0.032889811739995084,0.2955228416613847,0.10960402591395138
0214,cdot_cos,P,T-P,315,63,54281,0.005309730117805841,0.00010281873972715758,0.07754569496424796,0.9832283096702319,880.0,16.13334622108296,0.7127931558589158,12.650905190499534,-0.5326491120597893,0.359,0.999999999973758,-411.30463176412593,1.5647201936716832,315,2026-10-08 00:17:10.365243,52.5,0.46169773724082597,0.19287398284473048,0.312467705226336
0214,cdot_cos,Q,P-Q,316,63,54492,-0.08639191624487606,-0.14590784100015078,-0.09170164636268191,0.008047318832530754,880.0,16.15965383458922,0.712801338855216,12.671117356692088,-0.12545419580400857,0.211,0.999999999973263,49761.1023292562,1.5696881451396563,316,2026-10-08 00:17:10.576244,52.5,0.03893874046764804,0.32679015536544637,0.12468063273109893
0214,cdot_cos,R,Q-R,317,63,54540,-0.01815874607826626,0.07019445021098958,0.0682331701666098,0.9729393586789736,880.0,16.271251666647178,0.7137896551976834,12.70874801412011,-0.5333491690354043,0.048,0.9999999999730895,-412.7170175219853,1.5746552977161032,317,2026-10-08 00:17:10.624243,52.5,0.46543614488824714,2.351526276485013,2.32495483454076
0214,cdot_cos,S,R-S,318,63,54561,0.11723847591247971,-0.10442178827493398,0.13539722199074597,0.9991824283882186,880.0,16.385400357131783,0.7148025059203528,12.746839122272482,-0.5481703518137118,0.021,0.9999999999729448,-14.633136400640458,1.5796223189245215,318,2026-10-08 00:17:10.645243,52.5,0.9733246934145717,3.33095556984409,5.435651927838321
0214,cdot_cos,T,S-T,319,63,54801,-0.05760626404042173,-0.031561233530527845,-0.17484473995290145,0.00010313703780576813,880.0,16.41115180058063,0.7148026103569979,12.766867314584658,-0.12419553561511647,0.24,0.999999999972482,4059636.497832113,1.584590432845526,319,2026-10-08 00:17:10.885243,52.5,0.03291691658439372,0.2855809133926209,0.10729768103686274
0214,cdot_cos,P,T-P,320,64,55161,0.00478606377407368,-7.424487083061028e-05,0.06239232781449541,0.9635820974690686,879.0,16.52247919556024,0.7157773302659968,12.804299724749432,-0.5380460735754493,0.36,0.9999999999723149,-424.5840616771526,1.589559151755823,320,2026-10-08 00:17:11.245243,52.5,0.46339611661178925,0.19190352167958047,0.3092427638322527
0214,cdot_cos,Q,P-Q,321,64,55370,-0.07978188503634387,-0.12490168949872398,-0.08456794881041754,0.011660521758431111,879.0,16.549322336189928,0.7157891132623854,12.824503814741712,-0.13027507902455476,0.209,0.999999999971802,34606.7316922429,1.5945271134526555,321,2026-10-08 00:17:11.454243,52.5,0.04371444251312396,0.3317667885945466,0.12843607956788017
0214,cdot_cos,R,Q-R,322,64,55415,-0.016219800337743322,0.0712770030073804,0.06356208469860054,0.9656768581491731,879.0,16.66115771319276,0.7167639099264951,12.861957035240259,-0.5439013028683851,0.045,0.9999999999716179,-424.3205163423471,1.599494250377935,322,2026-10-08 00:17:11.499244,52.5,0.46744186259113335,2.5184400302674783,2.4852306000629674
0214,cdot_cos,S,R-S,323,64,55436,0.09236339576536663,-0.094836804174248,0.10858319610310996,0.9966672454208605,879.0,16.775981938914,0.7177678661113467,12.89995664155252,-0.5610403474767458,0.021,0.9999999999714665,-17.071506572663814,1.6044612676980596,323,2026-10-08 00:17:11.520243,52.5,0.9699132111062432,3.351997633324087,5.467820272439977
0214,cdot_cos,T,S-T,324,64,55679,-0.0783550355098914,-0.04120840635494759,-0.17071843127525804,0.0001280812497943268,879.0,16.801941613792373,0.7177679949904487,12.91991235660723,-0.12737610853428327,0.243,0.9999999999709858,3364891.8406529278,1.6094294209805513,324,2026-10-08 00:17:11.763244,52.5,0.0332202254818562,0.2892097010714139,0.10682993777107877
0214,cdot_cos,P,T-P,325,65,56040,0.00983470814341461,0.0005413784740484217,0.08818974365330601,0.9903391090284519,915.0,16.916537853634708,0.7187634346922078,12.957781694377976,-0.5634261956264807,0.361,0.9999999999708197,-438.04771531779926,1.614398184636145,325,2026-10-08 00:17:12.124243,52.5,0.4611989202469806,0.1958600097774251,0.3174411075964959
0214,cdot_cos,Q,P-Q,326,65,56231,-0.07989577778493959,-0.10716415223751782,-0.0897304859283542,0.008916895773185628,915.0,16.943352540851674,0.7187723877992641,12.977865009134284,-0.13238903810381866,0.191,0.9999999999702869,48143.86277443271,1.6193660737730862,326,2026-10-08 00:17:12.315244,52.5,0.038548533620762285,0.3676739960207984,0.14039103254955965
0214,cdot_cos,R,Q-R,327,65,56291,-0.00931897917416486,0.06689779491565587,0.07057679861077473,0.9759970289781579,915.0,17.056989320114653,0.7197512986911676,13.01545694591166,-0.5621718200612847,0.06,0.9999999999701017,-439.0417815474014,1.6243332878157941,327,2026-10-08 00:17:12.375243,52.5,0.4655646474081431,1.9065630063039112,1.8939463210496519
0214,cdot_cos,S,R-S,328,65,56312,0.07886120610909085,-0.09993439775180335,0.0881801852832557,0.9903343067081768,915.0,17.172140101608143,0.7207424599926302,13.05329364340135,-0.5722536007968362,0.021,0.999999999969939,-10.171685194603924,1.6293003012215925,328,2026-10-08 00:17:12.396243,52.5,0.9825366040949058,3.3650721039655482,5.483370547309058
0214,cdot_cos,T,S-T,329,65,56560,-0.07647382542509688,-0.02483428514367113,-0.15533503153418773,0.0002871871730229316,915.0,17.198322348481206,0.720742747108007,13.07318187061601,-0.1306536568469749,0.248,0.9999999999694404,1538057.4487545614,1.6342685054090547,329,2026-10-08 00:17:12.644243,52.5,0.034049908618881894,0.2863147376917955,0.10557357610105972
0214,cdot_cos,P,T-P,330,66,56955,0.0213934623526884,0.0005322098626191128,0.09786728777778528,0.9941650213777229,862.0,17.314152211503274,0.7217355790104663,13.111071608849395,-0.5791261109628525,0.395,0.9999999999692676,-451.71035802235076,1.6392374880808336,330,2026-10-08 00:17:13.039244,52.5,0.460982519942537,0.18113088463172816,0.29324015954953864
0214,cdot_cos,Q,P-Q,331,66,57130,-0.0634477782584488,-0.0806206905927113,-0.08484124061113721,0.011496322831641993,862.0,17.34141574734027,0.7217470472243023,13.131132675072203,-0.1368750671990598,0.175,0.9999999999687107,38563.20174069196,1.6442053100810166,331,2026-10-08 00:17:13.214243,52.5,0.03951573754000617,0.39670090443831696,0.1557916333542713
0214,cdot_cos,R,Q-R,332,66,57184,-0.00978264763290878,0.10500404555493309,0.05366513062554002,0.9436099069072321,862.0,17.452997528056684,0.7226873590226262,13.16808716953607,-0.5612592945986197,0.054,0.9999999999685052,-451.3228783856927,1.6491724929456384,332,2026-10-08 00:17:13.268243,52.5,0.4694804409537793,2.0889477367683145,2.066329272526175
0214,cdot_cos,S,R-S,333,66,57207,0.0552837952200934,-0.07801495517052773,0.06506644285300217,0.9682004883696286,862.0,17.56702210291125,0.7236501372581654,13.20547260979625,-0.5760276406283142,0.023,0.9999999999683269,-15.339301912472934,1.6541395127999845,333,2026-10-08 00:17:13.291244,52.5,0.9746876099968589,3.052006026737492,4.957590211068022
0214,cdot_cos,T,S-T,334,66,57437,-0.11601001922960386,-0.04554280221255143,-0.17129381444969727,0.00012427054719529973,862.0,17.59338980528661,0.7236502607000626,13.225287895933187,-0.1337391520371902,0.23,0.9999999999678078,3582968.9822327257,1.6591076449367455,334,2026-10-08 00:17:13.521244,52.5,0.03662229585763431,0.311965559653245,0.1146421842406962
0214,cdot_cos,P,T-P,335,67,57817,0.013573785271346336,-8.247790819413909e-05,0.1295838045009502,0.9988909587692285,839.0,17.71052626035174,0.7246413889443842,13.263213029207776,-0.595219624113883,0.38,0.9999999999676308,-465.61126142916584,1.6640765903251251,335,2026-10-08 00:17:13.901243,52.5,0.46056040826976313,0.18961383860453745,0.30825382911877
0214,cdot_cos,Q,P-Q,336,67,58006,-0.08379127559695322,-0.11491478886906985,-0.09736506086829956,0.0059899414073095476,839.0,17.737496322626058,0.7246473256840404,13.283105086171544,-0.1376050550009346,0.189,0.9999999999670545,77081.79836289803,1.6690445038330302,336,2026-10-08 00:17:14.090244,52.5,0.0359521962641633,0.37479018880498155,0.14269874219214743
0214,cdot_cos,R,Q-R,337,67,58053,-0.018482056803486243,0.09860351015072229,0.06530921879346697,0.9685905748291834,839.0,17.852196951720025,0.725606268686174,13.320461481098732,-0.5862807364142257,0.047,0.9999999999668493,-467.8856620414921,1.6740116488417296,337,2026-10-08 00:17:14.137243,52.5,0.4651982922367497,2.4711246460012495,2.4404389168929184
0214,cdot_cos,S,R-S,338,67,58075,0.09792688180788718,-0.09586667007142663,0.11640893861137343,0.9977876148966943,839.0,17.969782039350175,0.7265919434483072,13.358331324437597,-0.6035927731223882,0.022,0.9999999999666758,-17.563640029388715,1.6789786596061977,338,2026-10-08 00:17:14.159244,52.5,0.9717257640526655,3.276325025005633,5.344776710461377
0214,cdot_cos,T,S-T,339,67,58313,-0.07380971100999245,-0.04220660176420366,-0.17173659281787962,0.00012141543499941351,839.0,17.996355252820273,0.7265920632553259,13.37807962690426,-0.1369569835394763,0.238,0.999999999966139,3894895.264759728,1.6839468589270001,339,2026-10-08 00:17:14.397243,52.5,0.033134823931414446,0.3017788265272295,0.1116521574373847
