record_id,input,event,transition,event_index,k,peak,value_cos,value_sin,value_return,x_input,rr,knowledge,decision,decision_norm,entropy,delta_t,cosine_similarity,delta_h_over_delta_d,frobenius_norm,matrix_size,timestamp,scale,P,zdot,zdot_back
0249,cdot_cos,Q,P-Q,1,0,1025,-0.013563152304581062,-0.03197803630539045,-0.03930569648289804,0.2723677861085614,1019.0,0.0013528893418445866,0.5003382222838735,0.5003382222838735,,,1.0,,0.004967141530112327,1,2026-10-08 01:46:17.109244,25.0,,,
0249,cdot_cos,R,Q-R,2,0,1055,0.02433153972495397,0.1300925335833187,0.037894692029535035,0.7205854128481908,1019.0,0.0069750979671269545,0.5012330322684385,0.708850552143417,-8.443624717816405e-06,,1.0,,0.009934283060224654,2,2026-10-08 01:46:17.139244,25.0,,,
0249,cdot_cos,S,R-S,3,0,1085,-0.0009557318840599532,-0.03001432695370054,-0.025287271609013923,0.34701598823058016,1019.0,0.011528212514893643,0.501663948006965,0.868907446273655,-1.5192797696189362e-05,0.03,1.0,-0.015662396090362338,0.014901424594135257,3,2026-10-08 01:46:17.169244,25.0,0.6413146733200714,0.14870624922445735,0.15177048492555628
0249,cdot_cos,T,S-T,4,0,1335,-0.04273325994156953,0.0026122321270621554,-0.04177752805750958,0.2602945481861432,1019.0,0.015897472920594395,0.5019871736519189,1.0039743473044334,-2.1609420060169305e-05,0.25,0.9999999999999998,-0.019851835595826532,0.01986856618306707,4,2026-10-08 01:46:17.419244,25.0,0.7430913070471317,0.031071478937465844,0.01747704162280301
0249,cdot_cos,P,T-P,5,1,1854,0.02254072884793416,3.917972555732799e-05,0.06527398878950369,0.8364228742963193,1020.0,0.027063951983626565,0.5030258048758891,1.1247998941503676,-8.650945581632528e-05,0.519,0.9999999999999998,-0.06248612044232056,0.02483570795827869,5,2026-10-08 01:46:17.938244,25.0,0.4722685840712329,0.016702123706244364,0.021515373917210347
0249,cdot_cos,Q,P-Q,6,1,2043,-0.012340591073108661,-0.028726242954074915,-0.03488131992104282,0.29483145355605767,1020.0,0.033234277327676046,0.5033919071695777,1.2330533132681092,-6.709299639330077e-05,0.189,1.0,0.05303561260815091,0.029802849606176372,6,2026-10-08 01:46:18.127244,25.0,0.7487154919304658,0.049111135386913904,0.032647224042589844
0249,cdot_cos,R,Q-R,7,1,2072,0.029591398398553844,0.11057325066742887,0.041931989471662504,0.7404482683397632,1020.0,0.04562796115988002,0.5043113301848772,1.334282363112379,-0.00017624701651397363,0.029,0.9999999999999999,-0.11872013023855084,0.034769991114420765,7,2026-10-08 01:46:18.156243,25.0,0.5383081716821657,0.3449753268721237,0.4273684080070336
0249,cdot_cos,S,R-S,8,1,2103,-0.0009689736105153785,-0.02827994258131919,-0.030560372009069223,0.31777643735722205,1020.0,0.05324284628625922,0.5047059082132312,1.4275238809042725,-0.0001357617778487021,0.031,1.0,0.1026038850519624,0.03973713265341949,8,2026-10-08 01:46:18.187244,25.0,0.7421470095136682,0.24811156571843312,0.24564145568965162
0249,cdot_cos,T,S-T,9,1,2354,-0.03399687701217541,0.0021616155838118226,-0.03302790340166003,0.30455556097352504,1020.0,0.061010878234422874,0.5050840645916492,1.515252193880219,-0.000160037226766721,0.251,1.0000000000000002,-0.06419420722076746,0.044704274716586556,9,2026-10-08 01:46:18.438244,25.0,0.8592578191647733,0.04706623093186514,0.03094833445483527
0249,cdot_cos,P,T-P,10,2,2874,0.021343524638737284,-7.255914831724093e-05,0.055340401650912696,0.7995541366846888,1039.0,0.07687009421405552,0.5060768152271183,1.6003554073889055,-0.00039428154404628037,0.52,0.9999999999999998,-0.2359548399270185,0.04967141773843298,10,2026-10-08 01:46:18.958244,25.0,0.5520568826130161,0.023467007603760328,0.030498492268524323
0249,cdot_cos,Q,P-Q,11,2,3064,-0.014271254528376099,-0.03154996883142638,-0.035614779167113385,0.29103358578708505,1039.0,0.08541656614233362,0.506438159859707,1.6796653564915776,-0.000250081884749526,0.19,0.9999999999999998,0.39906406873605293,0.05463855979080037,11,2026-10-08 01:46:19.148243,25.0,0.5617997692760776,0.06499889445276448,0.04498143120146365
0249,cdot_cos,R,Q-R,12,2,3094,0.02311791976706529,0.11446470012011589,0.03738917429544139,0.7180337837697781,1039.0,0.10156967410610603,0.5073296344671504,1.7574414070968285,-0.0005445740715088825,0.03,0.9999999999999999,-0.33034276501032395,0.05960570121808666,12,2026-10-08 01:46:19.178244,25.0,0.5822966442784664,0.44255904924614375,0.538436932125747
0249,cdot_cos,S,R-S,13,2,3123,-0.001793042579805368,-0.029245959095965973,-0.02491096234687066,0.34915079829790285,1039.0,0.11197010909710224,0.5077631060342489,1.8307659155382012,-0.0004004148246669625,0.029,0.9999999999999999,0.3325690951470472,0.06457284269769266,13,2026-10-08 01:46:19.207244,25.0,0.6976590593272272,0.3517268886781581,0.3586356893446971
0249,cdot_cos,T,S-T,14,2,3373,-0.03368212505750686,0.004216944979825423,-0.031889082477701496,0.3106189894633239,1039.0,0.1219698336494392,0.5081487304761114,1.9013184519354112,-0.0004217563222012387,0.25,0.9999999999999998,-0.0553426993143881,0.06953998566255074,14,2026-10-08 01:46:19.457243,25.0,0.9506574433241665,0.05960949006807523,0.03999889820934782
0249,cdot_cos,P,T-P,15,3,3913,0.023533749814630273,-5.8482886267762385e-05,0.05721587487213713,0.8069631454587803,979.0,0.14177485413113985,0.5091505052942262,1.9719314292639236,-0.0009416685966988969,0.54,0.9999999999999998,-0.5189911595861989,0.07450713111439278,15,2026-10-08 01:46:19.997243,25.0,0.5757290674595166,0.02786445200129673,0.036675963855001215
0249,cdot_cos,Q,P-Q,16,3,4083,-0.013490895230997162,-0.02579618464176475,-0.037024645045627434,0.2838149532252987,979.0,0.15206344181083967,0.5095028199105562,2.038011282719605,-0.0005449941115937109,0.17,0.9999999999999993,1.1259098167350161,0.07947427368695151,16,2026-10-08 01:46:20.167244,25.0,0.4829457473623038,0.08923484611835696,0.06052110399823418
0249,cdot_cos,R,Q-R,17,3,4131,0.03057092232703549,0.13680719382314344,0.04406181755803265,0.7505495622967986,979.0,0.17211470181138122,0.5104344706414005,2.1045752410233227,-0.0011717117076650632,0.048,0.9999999999999991,-0.6726958669408717,0.08444141517910042,17,2026-10-08 01:46:20.215244,25.0,0.5857433550006105,0.3313365418675966,0.4177345833446157
0249,cdot_cos,S,R-S,18,3,4162,0.0006254392108076552,-0.024565996958281246,-0.029945483116227835,0.3211183472205543,979.0,0.18387174983012894,0.5108330503277364,2.1672810873602733,-0.0007544186207045767,0.031,0.9999999999999991,1.046950211629128,0.08940855657236409,18,2026-10-08 01:46:20.246243,25.0,0.575145625475552,0.36617676518851816,0.3792596135079909
0249,cdot_cos,T,S-T,19,3,4392,-0.03858439932052148,0.0025943285170154234,-0.03920983853132914,0.27284298189352163,979.0,0.19481766125306935,0.5111716986853808,2.228145781143446,-0.0007471413573204278,0.23,0.9999999999999991,0.02148914418120459,0.0943757005977119,19,2026-10-08 01:46:20.476243,25.0,0.9903071389262349,0.07485431914279472,0.04759091923017568
0249,cdot_cos,P,T-P,20,4,4892,0.024695780613049934,-3.9375673515561534e-05,0.06328017993357142,0.8294882165180519,999.0,0.2183047366358145,0.5122011819573308,2.2906333270116415,-0.001748773430306555,0.5,0.9999999999999989,-0.972946428832127,0.09934284886425003,20,2026-10-08 01:46:20.976243,25.0,0.5639652560354785,0.03528179066616205,0.04697415076549033
0249,cdot_cos,Q,P-Q,21,4,5081,-0.012819760493050659,-0.031777980214058046,-0.03751554110610059,0.2813270474034759,999.0,0.2300994519192314,0.5125503157350059,2.3488006274030937,-0.000953164731683852,0.189,0.9999999999999983,2.2788075789192326,0.10430999264014378,21,2026-10-08 01:46:21.165244,25.0,0.4340037084381545,0.09029786001255344,0.062405900970459706
0249,cdot_cos,R,Q-R,22,4,5110,0.026232303366312805,0.11555972523138328,0.03905206385936347,0.7263737561799106,999.0,0.2524373277205597,0.5134517059556873,2.408301982854493,-0.0019424166492986407,0.029,0.999999999999998,-1.0974735413336167,0.10927713376728503,22,2026-10-08 01:46:21.194243,25.0,0.6009225330322753,0.6228795146245479,0.7702715793561488
0249,cdot_cos,S,R-S,23,4,5141,-0.0001772234504543464,-0.028983655744845967,-0.026409526816767153,0.3406861118972407,999.0,0.2662264637674552,0.5138744490580825,2.4644552911896653,-0.0012887628325199802,0.031,0.9999999999999974,1.5462199455772174,0.1142442750504148,23,2026-10-08 01:46:21.225244,25.0,0.6021824493864806,0.4183166437397247,0.44481084022243444
0249,cdot_cos,T,S-T,24,4,5391,-0.0412190537336182,0.00011444684491559678,-0.041041830283163855,0.2638514344884514,999.0,0.27837295963242265,0.5142018376240804,2.5190642634406535,-0.001191961475507345,0.25,0.9999999999999978,0.2956772687451046,0.11921142110582604,24,2026-10-08 01:46:21.475244,25.0,0.9219983759901441,0.07766983269170835,0.048585983459869864
0249,cdot_cos,P,T-P,25,5,5891,0.026151823220140116,-2.733755187501945e-05,0.06737087695375832,0.8434693759648633,1039.0,0.30506138011330935,0.515248336751792,2.576241695699993,-0.0028054033303461807,0.5,0.9999999999999969,-1.5417517436129968,0.12417857346650808,25,2026-10-08 01:46:21.975244,25.0,0.5626376909241183,0.03945738310447072,0.05337684096177342
0249,cdot_cos,Q,P-Q,26,5,6061,-0.014526321219320123,-0.024042495986727697,-0.04067814443946024,0.2656212247942731,1039.0,0.31783034273689337,0.5155778678576451,2.628941626518148,-0.0014329497526836448,0.17,0.9999999999999958,4.164868060359567,0.12914571805404262,26,2026-10-08 01:46:22.145243,25.0,0.38374305877097126,0.11543359671701002,0.07511154484461183
0249,cdot_cos,R,Q-R,27,5,6094,0.03878979008681357,0.12407420119665252,0.05331611130613369,0.7913203837098508,1039.0,0.34430880299709277,0.5165595027346847,2.6841219310869024,-0.0031582748181512603,0.033,0.9999999999999953,-1.7576036730387894,0.13411285909937162,27,2026-10-08 01:46:22.178244,25.0,0.579095898814542,0.6037646020381204,0.802377583642406
0249,cdot_cos,S,R-S,28,5,6140,-0.0013409319189190006,-0.020597539353219244,-0.04013072200573257,0.2682993691055635,1039.0,0.3576788064714093,0.5168923001318325,2.735136981113765,-0.0016906337405644043,0.046,0.9999999999999949,4.410013690506014,0.13908000069216797,28,2026-10-08 01:46:22.224244,25.0,0.4197478353451402,0.2987978991017156,0.2906522494416641
0249,cdot_cos,T,S-T,29,5,6371,-0.036930407043137686,0.009154506802548562,-0.035589475124218686,0.2911641295405542,1039.0,0.3717982097144506,0.5172534419178373,2.785495051805374,-0.0018552185285455112,0.231,0.9999999999999942,-0.45573454626192955,0.14404714831850685,29,2026-10-08 01:46:22.455244,25.0,0.9151067973844874,0.09325991195781079,0.06112295776208348
0249,cdot_cos,P,T-P,30,6,6930,0.02680357881784478,-8.929615888698543e-06,0.06373398586098247,0.8310868530880883,999.0,0.4007648857959179,0.5182841696811616,2.8387593329988277,-0.004030287495175919,0.559,0.999999999999994,-2.1102264283783927,0.149014307815496,30,2026-10-08 01:46:23.014244,25.0,0.5829342682590816,0.03861682379103793,0.051818740753966544
0249,cdot_cos,Q,P-Q,31,6,7120,-0.012140418848818387,-0.030690376539322186,-0.03894399766666316,0.2741635392883695,999.0,0.414971818712831,0.5186241581709957,2.8875771393572425,-0.002087045469512598,0.19,0.9999999999999919,5.7156112155787415,0.15398145448766748,31,2026-10-08 01:46:23.204243,25.0,0.394121075033082,0.10599099917328851,0.07477333114164793
0249,cdot_cos,R,Q-R,32,6,7150,0.020142722514926346,0.1395544162251422,0.03228314136374473,0.6914866084741486,999.0,0.44104146548176754,0.5194815890803635,2.9386316719766965,-0.0040182817658584195,0.03,0.9999999999999908,-2.252352084869314,0.1589485951256485,32,2026-10-08 01:46:23.234244,25.0,0.6184045259325365,0.7276803212696286,0.8689882256312176
0249,cdot_cos,S,R-S,33,6,7180,2.4258945113275683e-05,-0.026842257486170747,-0.02011846356981307,0.3768449371639402,999.0,0.4586326379890087,0.5199488220154822,2.986878618419718,-0.002849526424438473,0.03,0.9999999999999897,2.501440402789488,0.16391573594146208,33,2026-10-08 01:46:23.264243,25.0,0.6635455688223041,0.5309122886524409,0.5863724169080394
0249,cdot_cos,T,S-T,34,6,7430,-0.0429999659923962,3.7584133327699526e-05,-0.04302422493750948,0.254338512038965,999.0,0.472896202800914,0.5202641451219532,3.033635240369985,-0.002392186325652683,0.25,0.999999999999989,1.4503856184351154,0.16888288674668295,34,2026-10-08 01:46:23.514244,25.0,0.8259832357421165,0.09221374973540952,0.057054259247621086
0249,cdot_cos,P,T-P,35,7,7929,0.025971592276573082,2.534318154525912e-05,0.06897155826896928,0.8486804565719134,980.0,0.5047395128567135,0.5213162016378744,3.0841482847008557,-0.005603892019400517,0.499,0.9999999999999883,-3.0527881773875527,0.17385005007077942,35,2026-10-08 01:46:24.013243,25.0,0.5637634371704922,0.047320806107902035,0.06381424860881661
0249,cdot_cos,Q,P-Q,36,7,8099,-0.012621268612656259,-0.024295485766559932,-0.03859286088922934,0.2759138850579139,980.0,0.5201223672966002,0.5216581946927694,3.1299492251392516,-0.002837730745552662,0.17,0.9999999999999855,8.088355112056261,0.1788171976413169,36,2026-10-08 01:46:24.183244,25.0,0.37727559792015475,0.13300975548019173,0.09048737905815729
0249,cdot_cos,R,Q-R,37,7,8147,0.03136242142032703,0.14013091711444867,0.04398369003298329,0.7501836978853937,980.0,0.5499628297199787,0.5225879378246182,3.1787783884542207,-0.00574673560675991,0.048,0.999999999999984,-3.1288264054424335,0.18378433901281696,37,2026-10-08 01:46:24.231244,25.0,0.6027810376895688,0.48881543321486337,0.6216763004870511
0249,cdot_cos,S,R-S,38,7,8178,0.0006409023339617907,-0.023245940951322222,-0.03072151908636524,0.3169036839470602,980.0,0.5670486488852271,0.5229806470107272,3.2238692859446707,-0.00343446900535814,0.031,0.9999999999999823,5.887987047901475,0.18875147964059524,38,2026-10-08 01:46:24.262244,25.0,0.5100466883412661,0.5322052210383568,0.5511554569434977
0249,cdot_cos,T,S-T,39,7,8409,-0.038343953314327855,0.002540029602556735,-0.03898485564828964,0.2739603198783927,980.0,0.5829595534243568,0.5233201176109088,3.2681331495395574,-0.003292566875682303,0.231,0.9999999999999813,0.41801007097502707,0.1937186323693759,39,2026-10-08 01:46:24.493243,25.0,0.9578177862634683,0.10590501750231891,0.06887837462826704
0249,cdot_cos,P,T-P,40,8,8909,0.020863492553241093,-7.252193506681906e-05,0.059207445867568945,0.8146006954181869,1059.0,0.6159767669712984,0.5243293797809345,3.316150238909164,-0.007121829944612602,0.5,0.99999999999998,-3.7941212726052043,0.19868580274877162,40,2026-10-08 01:46:24.993243,25.0,0.5841019992301736,0.05010970179434082,0.0660344270938833
0249,cdot_cos,Q,P-Q,41,8,9097,-0.013637131700271244,-0.02796844351695824,-0.03450062425351234,0.2968140314858538,1059.0,0.6330692552186976,0.5246970731750723,3.3597006359617216,-0.0038406736291255023,0.188,0.9999999999999758,8.923620515895374,0.2036529534455073,41,2026-10-08 01:46:25.181243,25.0,0.4255733661662781,0.1315267297088994,0.09091749067765517
0249,cdot_cos,R,Q-R,42,8,9126,0.034002595331181905,0.105760454063401,0.04763972703145315,0.7669186458683483,1059.0,0.6654308173418446,0.5256470074976031,3.4065820509424762,-0.007558086166128476,0.029,0.9999999999999739,-3.9133363737181712,0.20862009344153384,42,2026-10-08 01:46:25.210243,25.0,0.6114966836964535,0.8542645117804601,1.1159159352809311
0249,cdot_cos,S,R-S,43,8,9158,-0.0026226744708864958,-0.02704896671013886,-0.0366252698020684,0.28584879180984196,1059.0,0.6826165969019643,0.526001023463712,3.449219471732128,-0.004166610848091706,0.032,0.9999999999999717,9.580006674029418,0.21358723389041934,43,2026-10-08 01:46:25.242244,25.0,0.44309770483665295,0.552869978856509,0.5370556112537401
0249,cdot_cos,T,S-T,44,8,9408,-0.034105732240730054,0.006296312834648802,-0.03148305776984356,0.3127967579872114,1059.0,0.7008144959886612,0.5263883837912108,3.4916656231917926,-0.004527432350668339,0.25,0.9999999999999702,-0.9314880150647177,0.21855439126395076,44,2026-10-08 01:46:25.492243,25.0,0.9233963527516308,0.10587012167484078,0.07279159634678756
0249,cdot_cos,P,T-P,45,9,9968,0.022569583973381487,-7.424927365229622e-05,0.05667531621411154,0.8048492891675302,999.0,0.7355516577393847,0.5273849435583288,3.537805861139623,-0.008970968173981696,0.56,0.9999999999999688,-4.458875393057347,0.2235215745155205,45,2026-10-08 01:46:26.052243,25.0,0.609373439434573,0.0461885429360461,0.062030645983434815
0249,cdot_cos,Q,P-Q,46,9,10137,-0.01861192885157666,-0.033583501178862676,-0.04118151282495815,0.2631737170897116,999.0,0.7525456640770328,0.52771075679233,3.5791086261670504,-0.004546483866946939,0.169,0.9999999999999623,13.57981765411499,0.22848872595868364,46,2026-10-08 01:46:26.221244,25.0,0.37788469357169024,0.15331102002413996,0.10055625051862803
0249,cdot_cos,R,Q-R,47,9,10168,0.03289552770586061,0.11348826065471446,0.05150745655743727,0.7837553333020965,999.0,0.787370782507544,0.5286809174252843,3.6244539099812827,-0.009639243685629583,0.031,0.9999999999999594,-5.24939854874791,0.23345586566799834,47,2026-10-08 01:46:26.252243,25.0,0.5895852012581982,0.8534151299485097,1.1233909171132637
0249,cdot_cos,S,R-S,48,9,10197,-0.00420120516835747,-0.032247588078848574,-0.03709673287421808,0.28344877443469435,999.0,0.8054574021338404,0.5290317275897926,3.6652394706418683,-0.005177787812926054,0.029,0.9999999999999563,12.717578690907617,0.23842300545699663,48,2026-10-08 01:46:26.281244,25.0,0.42246321641955187,0.6452531757998563,0.6236765388378079
0249,cdot_cos,T,S-T,49,9,10447,-0.035069501990298665,0.004565475251220873,-0.030868296821941196,0.3161098726994242,999.0,0.8247954667039357,0.5294229268983381,3.705960635301006,-0.005665601574016642,0.25,0.9999999999999534,-1.2469698959954632,0.24339016665868227,49,2026-10-08 01:46:26.531244,25.0,0.9175015912768025,0.11213867693632618,0.07735225828038095
0249,cdot_cos,P,T-P,50,10,10967,0.022252345224125326,-5.05159536543151e-05,0.05732184721442399,0.8073755022763641,1039.0,0.8615267406020035,0.5304219229854537,3.7506495486923854,-0.011128852080532749,0.52,0.9999999999999509,-5.468740645712265,0.24835735590473187,50,2026-10-08 01:46:27.051244,25.0,0.612069942483145,0.05329230563082565,0.07063706518859202
0249,cdot_cos,Q,P-Q,51,10,11157,-0.014482332963123467,-0.03192010198869305,-0.03673467818724879,0.285290755356937,1039.0,0.8802194645599943,0.5307748661029087,3.790490915575597,-0.005849161646968933,0.19,0.9999999999999436,14.95904062851253,0.25332451197103056,51,2026-10-08 01:46:27.241244,25.0,0.40549751202243345,0.14093595481771226,0.0983827576736359
0249,cdot_cos,R,Q-R,52,10,11187,0.026028754552301546,0.12265289035388434,0.04051108751542501,0.7335632975369947,1039.0,0.9150824034327342,0.5316822405982455,3.834015371545951,-0.01124187622831139,0.03,0.9999999999999393,-5.943207142207063,0.25829165114204156,52,2026-10-08 01:46:27.271244,25.0,0.6189697949643579,0.9272019266109673,1.1620979624246612
0249,cdot_cos,S,R-S,53,10,11216,-0.0019042064151869004,-0.030097515129592106,-0.027932960967488447,0.33218391792935237,1039.0,0.9358515801566524,0.5320930639467383,3.8736961873008084,-0.006904016699518575,0.029,0.9999999999999352,10.558941074571084,0.26325879049210327,53,2026-10-08 01:46:27.300243,25.0,0.5334928897044396,0.6892389442623905,0.7161785077213173
0249,cdot_cos,T,S-T,54,10,11466,-0.038607766338661136,0.004800259441785233,-0.03670355992347424,0.2854494071523739,1039.0,0.9550582621999528,0.532446054372821,3.912663657224265,-0.006521913736655126,0.25,0.9999999999999312,1.0824740124082137,0.2682259559986017,54,2026-10-08 01:46:27.550244,25.0,0.943095666485955,0.11754018273299138,0.0768267281732018
0249,cdot_cos,P,T-P,55,11,12006,0.026264448591819648,-3.8678140289653285e-05,0.06487221493048079,0.8350439623762869,1019.0,0.9946216715231481,0.5334784927719372,3.9563826216397495,-0.013848098922087448,0.54,0.999999999999928,-7.096002232873263,0.273193157977445,55,2026-10-08 01:46:28.090244,25.0,0.5891708577594598,0.05366603886757207,0.07326557282073193
0249,cdot_cos,Q,P-Q,56,11,12176,-0.017098029040655945,-0.0295474760352551,-0.043362477632475596,0.2527381019997894,1019.0,1.0130175841769307,0.5337909190323508,3.994525747904269,-0.006629846427166003,0.17,0.999999999999918,23.10385972474085,0.2781603145250672,56,2026-10-08 01:46:28.260243,25.0,0.33663666165037803,0.1687508048889746,0.10821125090460351
0249,cdot_cos,R,Q-R,57,11,12206,0.038178382562323615,0.12416763649435354,0.05527641160297956,0.7992976259804284,1019.0,1.0519969451853994,0.5347788080038747,4.037491751287552,-0.014445615311824958,0.03,0.9999999999999132,-7.911586332017064,0.2831274532128482,57,2026-10-08 01:46:28.290244,25.0,0.5821379483672385,0.9639519300142323,1.2993120336156259
0249,cdot_cos,S,R-S,58,11,12236,-0.004575505763215711,-0.0292913355633892,-0.04275388832553933,0.25562237511750546,1019.0,1.0708546999777846,0.5350946863409699,4.0751600131400805,-0.007183718704773932,0.03,0.9999999999999072,22.989536648287725,0.2880945922217991,58,2026-10-08 01:46:28.320243,25.0,0.36389764322408924,0.6694443192115873,0.6285918264128387
0249,cdot_cos,T,S-T,59,11,12486,-0.0351715464855645,0.006628716396604005,-0.030596040722348793,0.31758314919099395,1019.0,1.0921636043380947,0.5354870917646681,4.113154690411668,-0.008270135948680094,0.25,0.9999999999999021,-2.768609143235623,0.2930617624168888,59,2026-10-08 01:46:28.570244,25.0,0.8768964994749993,0.12423506221117675,0.08523561744124031
0249,cdot_cos,P,T-P,60,12,13025,0.025779219838066834,-1.00727742390678e-05,0.060950766323631334,0.8210928378694392,1039.0,1.132972231083373,0.5365014284611475,4.155722512277608,-0.016288171388951483,0.539,0.9999999999998981,-7.904708040339377,0.2980289759773946,60,2026-10-08 01:46:29.109244,25.0,0.6112426641266513,0.056456483671375804,0.07571173793187068
0249,cdot_cos,Q,P-Q,61,12,13214,-0.01309874297903097,-0.02877633488431603,-0.0388779628170978,0.2744921816386684,1039.0,1.1530236937358378,0.5368404553277257,4.192858367417568,-0.008221326648886817,0.189,0.9999999999998861,23.794116441217835,0.30299613829719985,61,2026-10-08 01:46:29.298244,25.0,0.3748573921015721,0.15532706664825416,0.10609239498658637
0249,cdot_cos,R,Q-R,62,12,13243,0.030389003917623583,0.10858591818472739,0.04348774689665455,0.7478529035642442,1039.0,1.191685862276413,0.5377639590373282,4.2343580424053755,-0.01625456302110228,0.029,0.9999999999998797,-8.698650897323791,0.3079632762454749,62,2026-10-08 01:46:29.327244,25.0,0.6100500771334101,1.0417911130526503,1.3331782255370774
0249,cdot_cos,S,R-S,63,12,13274,-0.001768109328551444,-0.027459706442794874,-0.032157113246175026,0.3091859452610635,1039.0,1.2134475782928915,0.5381456892228984,4.271399383392695,-0.009383864371543212,0.031,0.9999999999998714,17.99883506539108,0.3129304148683846,63,2026-10-08 01:46:29.358243,25.0,0.4808585051717702,0.6944958698540107,0.7019908392412411
0249,cdot_cos,T,S-T,64,12,13525,-0.03670434939593711,0.004485580274627995,-0.03493624006738566,0.2945460784734557,1039.0,1.2347446062073617,0.5385093030021024,4.308074819882744,-0.009346848597817821,0.251,0.9999999999998646,0.1017997002380417,0.31789759032766796,64,2026-10-08 01:46:29.609244,25.0,0.9960475903396184,0.12749630125867856,0.08484871679071788
0249,cdot_cos,P,T-P,65,13,14064,0.025726957791141185,2.8595132339360424e-05,0.06243130718707829,0.8264656337329898,1020.0,1.2774507215247481,0.5395293454250839,4.349825071740498,-0.019226712799905205,0.539,0.99999999999986,-9.685738533510722,0.3228648165486209,65,2026-10-08 01:46:30.148243,25.0,0.5981813383916426,0.05910653580921504,0.07923212489311027
0249,cdot_cos,Q,P-Q,66,13,14234,-0.012433323867474132,-0.021589204971638524,-0.03816028165861532,0.2780796880096056,1020.0,1.2984614518096955,0.5398724836107244,4.3859452878816825,-0.00969808835199443,0.17,0.9999999999998443,27.76905878349149,0.32783197906470196,66,2026-10-08 01:46:30.318244,25.0,0.37436424039382504,0.18502977336362014,0.12359253108792574
0249,cdot_cos,R,Q-R,67,13,14282,0.040444056696678554,0.1454030251746576,0.052877380564152685,0.7895033792044679,1020.0,1.340360844468379,0.5408464892412519,4.42701982816407,-0.019805888662605728,0.048,0.9999999999998371,-10.37755839782665,0.3327991199262333,67,2026-10-08 01:46:30.366244,25.0,0.6002895328288119,0.6529389266939264,0.8729040137225724
0249,cdot_cos,S,R-S,68,13,14313,-0.0005489175732889309,-0.015436222781783271,-0.04099297426996749,0.26408874020008066,1020.0,1.3611435887723125,0.5411722246811185,4.462621009661668,-0.010056302212451133,0.031,0.999999999999827,29.93099692851337,0.33776625798861315,68,2026-10-08 01:46:30.397243,25.0,0.3792725721336149,0.6472510933747874,0.6704111065784986
0249,cdot_cos,T,S-T,69,13,14544,-0.049512961324626105,0.009354055815089564,-0.04896404375133717,0.22721553961752453,1020.0,1.3804904122576158,0.5414524513971811,4.497642376101103,-0.009499667089797392,0.231,0.9999999999998167,1.9863742132613025,0.3427334350029495,69,2026-10-08 01:46:30.628243,25.0,0.9430884313119495,0.14075795679746544,0.08375248262036089
0249,cdot_cos,P,T-P,70,14,15084,0.022904783036087784,-8.729377738289817e-05,0.07241774436071388,0.859415479880892,1019.0,1.4261737648127415,0.5425121366837101,4.538982742657561,-0.022955248074191033,0.54,0.999999999999812,-12.69771426992953,0.34770067484683065,70,2026-10-08 01:46:31.168243,25.0,0.5564567751313912,0.06203242154621515,0.08459880102801051
0249,cdot_cos,Q,P-Q,71,14,15254,-0.017561849018728284,-0.030309006798256388,-0.04046663205481607,0.266653977319046,1019.0,1.4474854275275282,0.5428408513784867,4.574058958058241,-0.010963193274987359,0.17,0.9999999999997935,36.48165107846639,0.35266784066476353,71,2026-10-08 01:46:31.338243,25.0,0.33492559252401904,0.19040907329657716,0.12536272185168637
0249,cdot_cos,R,Q-R,72,14,15284,0.035279875465414744,0.11915371137888969,0.052841724484143024,0.7893552008433166,1019.0,1.4909128497335777,0.5438137004037897,4.614412929301078,-0.022835558014634137,0.03,0.9999999999997845,-12.20370728741659,0.3576349775811122,72,2026-10-08 01:46:31.368243,25.0,0.5945758857641621,1.0883809534077713,1.447580740201652
0249,cdot_cos,S,R-S,73,14,15314,-0.004032956535067957,-0.026156783710631248,-0.0393128320004827,0.27233243398454765,1019.0,1.5127882847319944,0.5441492621765862,4.649214000972565,-0.01175705798221759,0.03,0.9999999999997723,33.014785742998775,0.3626021149068356,73,2026-10-08 01:46:31.398243,25.0,0.3897362481549618,0.7660746343672383,0.7291811666138903
0249,cdot_cos,T,S-T,74,14,15563,-0.033799593527746995,0.006456730102944647,-0.02976663699267904,0.32209384323284856,1019.0,1.536877327795612,0.5445460870600494,4.684363231710625,-0.013143026585333645,0.249,0.9999999999997616,-3.4926453981929932,0.3675693014099117,74,2026-10-08 01:46:31.647244,25.0,0.8999169719427085,0.13867883257753041,0.09674314483380557
0249,cdot_cos,P,T-P,75,15,16103,0.022884213789460053,-6.499451441387618e-05,0.05668380731720705,0.8048826287932412,1019.0,1.5818503433556046,0.5455374672848496,4.724493764641583,-0.025083992571996058,0.54,0.9999999999997546,-12.044789363302108,0.3725365562173982,75,2026-10-08 01:46:32.187244,25.0,0.6212390739701916,0.06179694762003611,0.08328336214813437
0249,cdot_cos,Q,P-Q,76,15,16273,-0.018964673896815446,-0.032633025809257324,-0.041848887686275496,0.25995120321682597,1019.0,1.603618031225251,0.5458575744819493,4.758676822174803,-0.012399425138529319,0.17,0.9999999999997321,39.6259988791157,0.37750372565107,76,2026-10-08 01:46:32.357243,25.0,0.35951606617892207,0.19702172335563925,0.12804522276262614
0249,cdot_cos,R,Q-R,77,15,16303,0.03554601396518951,0.11232437273802749,0.054510687862004956,0.7962090715935283,1019.0,1.648837729296522,0.5468377994243793,4.79848305779099,-0.02629031511126642,0.03,0.9999999999997223,-14.171124781115356,0.3824708619080516,77,2026-10-08 01:46:32.387244,25.0,0.5895679548875293,1.1264832438449335,1.5073232690423637
0249,cdot_cos,S,R-S,78,15,16332,-0.004923526973697279,-0.03108412027300556,-0.04046954093888679,0.2666397567800039,1019.0,1.671207025855947,0.547165982846755,4.832439957689894,-0.013273911989501376,0.029,0.9999999999997066,39.661976304406245,0.38743799835206993,78,2026-10-08 01:46:32.416243,25.0,0.37508583774522414,0.8096084459273525,0.7713550537732793
0249,cdot_cos,T,S-T,79,15,16582,-0.03598749397805879,0.006845220721645094,-0.03106396700436151,0.3150533041099782,1019.0,1.6957950191603084,0.5475537013822893,4.866764595732019,-0.014794652179657674,0.25,0.9999999999996941,-3.9222787944882347,0.3924051914203286,79,2026-10-08 01:46:32.666244,25.0,0.9023165685676702,0.1435697872233197,0.09835197321744538
0249,cdot_cos,P,T-P,80,16,17122,0.02507685299236032,-4.446151089335193e-05,0.06106434697041911,0.8215095808164676,1019.0,1.742991919467607,0.5485644148645278,4.906510181245681,-0.028992568856508628,0.54,0.9999999999996857,-14.04741989332749,0.3973724619882958,80,2026-10-08 01:46:33.206244,25.0,0.6128048048517211,0.06492807266421034,0.08740166723573797
0249,cdot_cos,Q,P-Q,81,16,17292,-0.01473104570987943,-0.025537847991021646,-0.03980789870223975,0.2698867036893622,1019.0,1.7659173376376556,0.5488963728398466,4.940068369778403,-0.014368142165615595,0.17,0.9999999999996599,44.05505448949501,0.40233963530787703,81,2026-10-08 01:46:33.376243,25.0,0.36137575183862125,0.20087504838649908,0.1348554010002863
0249,cdot_cos,R,Q-R,82,16,17324,0.032954322622898234,0.11453587060843812,0.047685368332777665,0.7671225483725669,1019.0,1.8112894359190166,0.5498396873820497,4.979011182216801,-0.02897882179179094,0.032,0.9999999999996481,-15.488661493601542,0.4073067714147345,82,2026-10-08 01:46:33.408243,25.0,0.6039977921731301,1.0930555585145532,1.4178780712925318
0249,cdot_cos,S,R-S,83,16,17371,-0.0009516791720138582,-0.02656329634894645,-0.03390600179491209,0.299926046467846,1019.0,1.835872893382587,0.5502084031239655,5.012638161534746,-0.016005938536806853,0.047,0.9999999999996302,35.18396905860237,0.4122739122621719,83,2026-10-08 01:46:33.455244,25.0,0.44463374626304575,0.5290656246591222,0.5230522864589442
0249,cdot_cos,T,S-T,84,16,17621,-0.03291651905998403,0.0020967202788170942,-0.03196483988797017,0.3102135774861778,1019.0,1.861021604636974,0.5505897078688231,5.046239082227394,-0.016594662576679683,0.25,0.9999999999996135,-1.5439724991951491,0.41724111209015863,84,2026-10-08 01:46:33.705244,25.0,0.9651452117295986,0.1478950089621276,0.10059484501754845
0249,cdot_cos,P,T-P,85,17,18141,0.028945132776217995,-2.247673621184642e-05,0.06186165183620203,0.8244136260029463,959.0,1.9098203978636508,0.5516027610190727,5.085527292923183,-0.03283078791008014,0.52,0.999999999999604,-16.02692349300776,0.42220839355580947,85,2026-10-08 01:46:34.225244,25.0,0.6098516069761433,0.06994514649744504,0.09384383312822439
0249,cdot_cos,Q,P-Q,86,17,18311,-0.009505583552146065,-0.019360656724927313,-0.03845071632836406,0.27662441035782126,959.0,1.933764556994317,0.5519425861841646,5.118506224698415,-0.016417543550896786,0.17,0.9999999999995741,48.29908448582568,0.4271755710321757,86,2026-10-08 01:46:34.395243,25.0,0.36797578879735476,0.20643162573862076,0.14084799488627156
0249,cdot_cos,R,Q-R,87,17,18342,0.03575904026742001,0.17448742909434403,0.04526462381956607,0.7561369282695413,959.0,1.9800071506147818,0.5528712303347466,5.156840822027808,-0.03227296028639879,0.031,0.9999999999995594,-17.0737270304935,0.4321427061577996,87,2026-10-08 01:46:34.426244,25.0,0.6118359696264372,1.1438540601069531,1.4916965684020935
0249,cdot_cos,S,R-S,88,17,18371,-0.0008235314494504851,-0.013731445915215728,-0.036582571716870495,0.2860667505015922,959.0,2.004683508720948,0.5532224653656691,5.189688031026769,-0.01753118772784395,0.029,0.9999999999995383,41.97124791293368,0.4371098411372127,88,2026-10-08 01:46:34.455244,25.0,0.43132715817811107,0.7882217242025761,0.8509089002126274
0249,cdot_cos,T,S-T,89,17,18621,-0.054639024897373614,3.8932803574512764e-05,-0.05381549344792313,0.2066255090536669,959.0,2.0257240106185312,0.5534761287869623,5.221484647823303,-0.015117958991834539,0.25,0.9999999999995174,9.51350700746175,0.44207704800513725,89,2026-10-08 01:46:34.705244,25.0,0.8524620195182299,0.1483863957969378,0.08416200759033288
0249,cdot_cos,P,T-P,90,18,19100,0.02783144372559668,2.906937054906232e-05,0.08247046862297029,0.8871306905500317,860.0,2.078876706619417,0.5545648951267009,5.261065896779499,-0.03887563996600504,0.479,0.999999999999507,-21.82073426321525,0.4470443324038629,90,2026-10-08 01:46:35.184243,25.0,0.5427426584648191,0.08068810979801684,0.11096596242356092
0249,cdot_cos,Q,P-Q,91,18,19270,-0.012662989428488472,-0.03688503615720151,-0.04049443315408515,0.26651808699400475,860.0,2.1030232198050314,0.5548918882383268,5.2933327479756445,-0.017990634265111268,0.17,0.9999999999994741,63.86986440493959,0.452011514327653,91,2026-10-08 01:46:35.354244,25.0,0.3132097694255729,0.19532713737769944,0.14203831285655558
0249,cdot_cos,R,Q-R,92,18,19300,0.011263482241448037,0.14433265687964225,0.023926471669936507,0.6452356406338157,860.0,2.1452879333278347,0.555683335532959,5.329928861682434,-0.031978548145597335,0.03,0.9999999999994558,-17.673841297273448,0.4569786485178203,92,2026-10-08 01:46:35.384243,25.0,0.6457030607108918,1.2591756162908827,1.4088237840934457
0249,cdot_cos,S,R-S,93,18,19330,0.0035825680815829136,-0.03338778136967648,-0.007680914159865123,0.4521412532791807,860.0,2.1785737567824843,0.5562377648068592,5.36416429163846,-0.025626331097253895,0.03,0.9999999999994358,11.457217985007533,0.46194578323408586,93,2026-10-08 01:46:35.414243,25.0,0.7804547464639943,0.9238432734343993,1.1095274484883197
0249,cdot_cos,T,S-T,94,18,19580,-0.04768322880908649,-0.018106286897438425,-0.05126579689066941,0.2172703515090472,860.0,2.2007185297338987,0.5565041385499335,5.395509355580934,-0.017265440462358023,0.25,0.9999999999994119,31.38781825264841,0.4669129979077496,94,2026-10-08 01:46:35.664243,25.0,0.6161555352029279,0.15055092330053466,0.08857909180565748
0249,cdot_cos,P,T-P,95,19,19960,0.023704193751414318,-5.94828867963052e-05,0.07138742256050082,0.8562744744111,959.0,2.2538492184327517,0.5575536144944571,5.434362044225298,-0.04211558307960128,0.38,0.9999999999994014,-23.67862050285035,0.4718802622518117,95,2026-10-08 01:46:36.044243,25.0,0.5543016377593404,0.10377322704593409,0.13981760183908673
0249,cdot_cos,Q,P-Q,96,19,20149,-0.012947129578706232,-0.03781585343163069,-0.03665132333012055,0.28571584665993416,959.0,2.2795861822888086,0.5579036826494815,5.466319146014432,-0.02075895049358503,0.189,0.9999999999993676,61.0070704218244,0.4768474565329521,96,2026-10-08 01:46:36.233243,25.0,0.35743865103929107,0.1831861138359049,0.13617441193680926
0249,cdot_cos,R,Q-R,97,19,20180,0.011336049754854187,0.11780852809380932,0.024283179333560417,0.6472743052523128,959.0,2.3230935694627237,0.5586965304208689,5.502524495840112,-0.035614888803191164,0.031,0.9999999999993477,-18.73744096374409,0.48181459078091526,97,2026-10-08 01:46:36.264243,25.0,0.6589371077160672,1.246005242550646,1.4034641023843586
0249,cdot_cos,S,R-S,98,19,20209,0.0022345130115996813,-0.03526844697181178,-0.009101536743254505,0.4433595586639472,959.0,2.3568385073269487,0.5592394301398612,5.536189722288853,-0.028079749012020046,0.029,0.9999999999993268,13.879432107934612,0.4867817247849104,98,2026-10-08 01:46:36.293243,25.0,0.7646417674027212,1.044559968633714,1.1636185470422393
0249,cdot_cos,T,S-T,99,19,20459,-0.03158546238281214,-0.00409007943456156,-0.03381997539441182,0.30037781565725585,959.0,2.383678047643479,0.5596071663917391,5.568022819761607,-0.02261875901911046,0.25,0.9999999999993028,14.850290024499918,0.4917489480608229,99,2026-10-08 01:46:36.543243,25.0,0.7854988209427481,0.15606296720875434,0.10735816126612185
0249,cdot_cos,P,T-P,100,20,20919,0.02113381595767941,-1.1296884523485353e-05,0.052719278340491546,0.7888457610703578,1139.0,2.434869990931326,0.5605725950006898,5.605727856171984,-0.04383099421271099,0.46,0.9999999999992889,-21.97183198937568,0.4967162593156525,100,2026-10-08 01:46:37.003244,25.0,0.6163408467843661,0.08500531425611564,0.11128683323444936
0249,cdot_cos,Q,P-Q,101,20,21108,-0.013169310983566917,-0.022536043598265987,-0.03430312694124633,0.29784558283046775,1139.0,2.4618829367591055,0.5609369944423707,5.637349108437347,-0.023499876893157405,0.189,0.9999999999992507,55.79349195973454,0.5016834594065737,101,2026-10-08 01:46:37.192243,25.0,0.42098483778899737,0.20972459029919127,0.14292563930042163
0249,cdot_cos,R,Q-R,102,20,21137,0.04214632413823755,0.10170027607752316,0.05531563512180447,0.7994548866490183,1139.0,2.51414588606442,0.561914762344703,5.67506306819976,-0.04617962156414252,0.029,0.9999999999992327,-23.1954276847162,0.5066505921708704,102,2026-10-08 01:46:37.221244,25.0,0.6119405184057343,1.3185985975888828,1.8021706657005037
0249,cdot_cos,S,R-S,103,20,21168,-0.004734812894373792,-0.023726907032173897,-0.04688113703261135,0.2364885324986782,1139.0,2.5383616554192607,0.5622039062528587,5.705748634645204,-0.021722784973021023,0.031,0.9999999999992017,84.58361356155935,0.5116177263602867,103,2026-10-08 01:46:37.252243,25.0,0.32437305921818116,0.8639485708947505,0.7811538501561484
0249,cdot_cos,T,S-T,104,20,21419,-0.03185226370020142,0.012986720795741133,-0.02711745080582763,0.33672206124931686,1139.0,2.5677106974598947,0.5626155282396704,5.737577269771903,-0.026601154517738368,0.251,0.9999999999991754,-11.851576691767299,0.5165849585395004,104,2026-10-08 01:46:37.503244,25.0,0.8324439458809354,0.16423922838012098,0.11692845434515511
0249,cdot_cos,P,T-P,105,21,22058,0.023919565243828832,-1.1071211919030033e-05,0.05577182894403025,0.8012771455119282,1039.0,2.6208097480660815,0.5635946925460705,5.775129322888007,-0.048880057950544946,0.639,0.9999999999991597,-22.752977500492154,0.5215523685123119,105,2026-10-08 01:46:38.142244,25.0,0.6339487441067152,0.0630575638225071,0.08309710579997935
0249,cdot_cos,Q,P-Q,106,21,22247,-0.011114985931451505,-0.02433485438596573,-0.035034551175280336,0.2940356380838849,1039.0,2.6482982640250587,0.5639538815322869,5.8062631190846625,-0.02569265131954156,0.189,0.9999999999991087,64.5548931643397,0.5265195739088631,106,2026-10-08 01:46:38.331244,25.0,0.40555783859755107,0.20882672399573785,0.14544188338083217
0249,cdot_cos,R,Q-R,107,21,22276,0.03471901345971796,0.1175707258390127,0.045833999391169465,0.7587520835655154,1039.0,2.6997462497364704,0.5648804494665232,5.84317141869204,-0.04878350832059978,0.029,0.9999999999990835,-24.920846219538724,0.5314867051084639,107,2026-10-08 01:46:38.360243,25.0,0.6229224417886555,1.3597908971990302,1.7740684728072973
0249,cdot_cos,S,R-S,108,21,22307,-0.0016102578388850672,-0.02511018480593498,-0.03632927129860303,0.2873618054815232,1039.0,2.7271661360626025,0.5652312501480548,5.874058075577036,-0.02637833973470262,0.031,0.9999999999990465,63.868657518213325,0.5364538378617725,108,2026-10-08 01:46:38.391244,25.0,0.4276810752579212,0.902429895282191,0.8845124621332944
0249,cdot_cos,T,S-T,109,21,22558,-0.03412835471895913,0.0041564549911911434,-0.03251809688007406,0.3072617095630519,1039.0,2.755696903243966,0.5656062716280996,5.905105457900891,-0.027724461586690154,0.251,0.9999999999990126,-3.5894526676884824,0.541421078296658,109,2026-10-08 01:46:38.642244,25.0,0.9526062976922404,0.16611795551040645,0.11366839514487535
0249,cdot_cos,P,T-P,110,22,23097,0.02412431232847532,2.1242138220158613e-05,0.058252667047434446,0.8109686734727567,1020.0,2.8105573497288265,0.5665957197552279,5.9425087740004505,-0.054092039830438324,0.539,0.9999999999989921,-26.648772705523367,0.5463884639497438,110,2026-10-08 01:46:39.181243,25.0,0.6141858907111709,0.07548542776310617,0.10178190442460171
0249,cdot_cos,Q,P-Q,111,22,23267,-0.01708468198668934,-0.029609150803862883,-0.04120899431516466,0.26304051309894433,1020.0,2.8370701943725947,0.566916537081065,5.972839337951075,-0.026519028453538818,0.17,0.999999999998935,85.94614179565669,0.551355665665017,111,2026-10-08 01:46:39.351244,25.0,0.3535450358704961,0.2386070016347216,0.1559579096692243
0249,cdot_cos,R,Q-R,112,22,23298,0.03746253734982876,0.12071874531749693,0.0545472193365181,0.7963572216012677,1020.0,2.891683730284632,0.567887471007859,6.009959155366585,-0.05538142152011406,0.031,0.9999999999989085,-29.726423467228447,0.5563227968445273,112,2026-10-08 01:46:39.382244,25.0,0.5938333259628128,1.3104435840737032,1.7617269649044263
0249,cdot_cos,S,R-S,113,22,23327,-0.004277747678112353,-0.027518114714823794,-0.04174028502794111,0.2604738587222669,1020.0,2.9183176965851643,0.5682049329142377,6.0401043625040405,-0.02738667250338618,0.029,0.9999999999988649,88.18301803849124,0.5612899276002566,113,2026-10-08 01:46:39.411244,25.0,0.3598012895811353,0.9596096339089034,0.9184126310528409
0249,cdot_cos,T,S-T,114,22,23577,-0.03735195467548633,0.0070525443799627505,-0.033074206997373984,0.3043104372163874,1020.0,2.9473410890513483,0.5685757512537555,6.070730864398522,-0.030123287035410222,0.25,0.9999999999988259,-7.379933084169088,0.5662571765557632,114,2026-10-08 01:46:39.661243,25.0,0.9131572837121853,0.17069473469202823,0.11609356986473607
0249,cdot_cos,P,T-P,115,23,24117,0.022023500658768,-8.762624163891654e-05,0.05937545533425433,0.815234204003486,999.0,3.0036650639311784,0.5695687772938074,6.107947870999028,-0.05927589535513504,0.54,0.9999999999988028,-29.357345269818662,0.5712245850854776,115,2026-10-08 01:46:40.201244,25.0,0.6115171998552011,0.07703533386871599,0.10430365718487054
0249,cdot_cos,Q,P-Q,116,23,24286,-0.020078070676475174,-0.036225866820516026,-0.04210157133524317,0.25873778691409566,999.0,3.0305392496295616,0.5698838258159674,6.13784014235046,-0.028672920588505253,0.169,0.9999999999987381,97.13733794658364,0.5761917916602958,116,2026-10-08 01:46:40.370244,25.0,0.3439314941449704,0.2432572475735491,0.15901885028629098
0249,cdot_cos,R,Q-R,117,23,24317,0.03232394681247544,0.1143649063355015,0.05240201748895061,0.7875215957276865,999.0,3.085886013611038,0.5708423914458142,6.174608116826786,-0.05982289419286619,0.031,0.9999999999987088,-32.496443263192035,0.58115892183333,117,2026-10-08 01:46:40.401243,25.0,0.5941026165103239,1.3531971904636229,1.7853794832734329
0249,cdot_cos,S,R-S,118,23,24346,-0.004415829641086822,-0.03432377427389385,-0.03673977645356226,0.28526476766323533,999.0,3.114437475438306,0.5711894829946701,6.204709554447733,-0.03127755716199502,0.029,0.9999999999986605,82.24152136507355,0.5861260515212952,118,2026-10-08 01:46:40.430244,25.0,0.4014605579645256,1.0085111225744154,0.9845331664575241
0249,cdot_cos,T,S-T,119,23,24596,-0.03650373944891859,0.004761237959320053,-0.03208790980783177,0.30955559625365203,999.0,3.144379658720354,0.5715660508142423,6.235053086623061,-0.0331032417777408,0.25,0.9999999999986164,-4.8482226065412,0.5910933099510115,119,2026-10-08 01:46:40.680243,25.0,0.9463420185478596,0.17503828979549763,0.11976873312819158
0249,cdot_cos,P,T-P,120,24,25116,0.023036067282108302,-5.787924036447118e-05,0.05953980673102689,0.8158522981358377,999.0,3.201956620336055,0.5725581197454375,6.272063675966408,-0.06450790668668237,0.52,0.9999999999985911,-31.655728671098473,0.5960607301619402,120,2026-10-08 01:46:41.200243,25.0,0.6145688270081444,0.08384725961709377,0.11072492618404021
0249,cdot_cos,Q,P-Q,121,24,25304,-0.011143554301637614,-0.02743262065883473,-0.03417962158374592,0.2984917135932499,999.0,3.2315808087221316,0.5729209376123852,6.302134350902186,-0.03363905277546417,0.188,0.9999999999985221,85.08085384799504,0.6010279540106349,121,2026-10-08 01:46:41.388243,25.0,0.39945693365924734,0.2219628024809244,0.15757547013870538
0249,cdot_cos,R,Q-R,122,24,25334,0.03034740635172107,0.12455983332278704,0.04149096065335868,0.7383236833334992,999.0,3.2854146340688826,0.5738180352139438,6.338031498433497,-0.06188941662261351,0.03,0.9999999999984864,-31.490847593468256,0.6059950825504824,122,2026-10-08 01:46:41.418243,25.0,0.6335190666242325,1.4130339289529263,1.7944608448916988
0249,cdot_cos,S,R-S,123,24,25365,-0.00019561842779750328,-0.027692030713637725,-0.030543024779518573,0.3178704644170843,999.0,3.316362844459307,0.5742041134028699,6.368235825282961,-0.03603368442351958,0.031,0.9999999999984339,66.97019655788542,0.610962212394996,123,2026-10-08 01:46:41.449243,25.0,0.48794948470707344,0.9670804756837058,0.998329367433052
0249,cdot_cos,T,S-T,124,24,25615,-0.03772446879092577,0.00012606520559173878,-0.03752885036312827,0.2812597799468078,999.0,3.3453736235612723,0.5745456496781125,6.397873733220777,-0.03407758739462234,0.25,0.9999999999983827,5.727347783212438,0.6159294807318996,124,2026-10-08 01:46:41.699244,25.0,0.9442151016611486,0.17680228175797374,0.11604311640786058
0249,cdot_cos,P,T-P,125,25,26115,0.024858958878060475,-3.071824491950872e-05,0.06258342766898625,0.8270103854488683,1019.0,3.404763985338294,0.5755494825788616,6.434843137981483,-0.0706452222352664,0.5,0.9999999999983549,-36.42800989423135,0.6208969115576278,125,2026-10-08 01:46:42.199244,25.0,0.5959350417120598,0.08841621337143213,0.11878072355404345
0249,cdot_cos,Q,P-Q,126,25,26304,-0.013558968267487216,-0.03155986152812273,-0.03841792714554769,0.27678847101919923,1019.0,3.4337898369327045,0.5758853122704632,6.4643012323151146,-0.03497140162827524,0.189,0.9999999999982785,106.22592790070972,0.6258641429815355,126,2026-10-08 01:46:42.388243,25.0,0.3605641014340288,0.2217389658389818,0.1535759343619598
0249,cdot_cos,R,Q-R,127,25,26333,0.02742613451981343,0.10817172257766844,0.040985102787300644,0.7358730132693222,1019.0,3.488581314425429,0.5767778113913886,6.499960577050149,-0.06678659811100264,0.029,0.9999999999982382,-35.647314083335324,0.6308312698168769,127,2026-10-08 01:46:42.417243,25.0,0.6210330552712866,1.499798278990628,1.8893612928525767
0249,cdot_cos,S,R-S,128,25,26364,-0.0010807014473089248,-0.030038314508368157,-0.028506835967122356,0.3290089379377483,1019.0,3.520778137114161,0.5771766862093187,6.530013531836862,-0.039728624654063086,0.031,0.9999999999981806,67.83575257358278,0.635798398705091,128,2026-10-08 01:46:42.448243,25.0,0.5060752140188842,1.0124964614730774,1.0386071835074742
0249,cdot_cos,T,S-T,129,25,26615,-0.03521950353586294,0.0022336845485357555,-0.034138802088554014,0.29870544187839837,1019.0,3.55135609503676,0.5775387353894682,6.5595838442878245,-0.03806023501634409,0.251,0.9999999999981246,4.608185100792536,0.6407656780672257,129,2026-10-08 01:46:42.699244,25.0,0.957111384175677,0.1814941669563335,0.1218245335561717
0249,cdot_cos,P,T-P,130,26,27134,0.027147561484710685,-1.4355619966969262e-05,0.062367065020573625,0.8262351723535349,1019.0,3.6118882089262403,0.5785397477417275,6.59637295340165,-0.07626580838680216,0.519,0.9999999999980951,-38.16693498759492,0.645733145549861,130,2026-10-08 01:46:43.218244,25.0,0.6059530077771924,0.08602878888352083,0.11663220402597364
0249,cdot_cos,Q,P-Q,131,26,27304,-0.014262197254620012,-0.024756155546873278,-0.0414097587393307,0.26206871532096454,1019.0,3.6406539778978546,0.5788571186236743,6.625327855038527,-0.03668694681974513,0.17,0.9999999999980084,124.70854706099814,0.650700370722378,131,2026-10-08 01:46:43.388243,25.0,0.3399941717325561,0.2580453553743086,0.1692104057153783
0249,cdot_cos,R,Q-R,132,26,27334,0.038803496042995336,0.13191567717084837,0.053065693297615346,0.7902846948246623,1019.0,3.6996236297535052,0.5798137750117697,6.661558527115163,-0.07607042263426014,0.03,0.9999999999979692,-41.16783863527397,0.655667497161378,132,2026-10-08 01:46:43.418243,25.0,0.5958752778740161,1.4626761549602594,1.9656550618550206
0249,cdot_cos,S,R-S,133,26,27364,-0.003362909385212517,-0.02214093923369796,-0.042166405428207855,0.25842704110784404,1019.0,3.72841454719547,0.5801264767371951,6.690350327831448,-0.03757640964890268,0.03,0.9999999999979007,123.10137698469227,0.6606346243291094,133,2026-10-08 01:46:43.448243,25.0,0.359004747974847,0.9428283977316914,0.9596972480654979
0249,cdot_cos,T,S-T,134,26,27614,-0.04951286773991519,0.009279856806315918,-0.04614995835470267,0.23980498675864664,1019.0,3.7561933336174067,0.5804165878878609,6.718813182562171,-0.0365245541979427,0.25,0.9999999999978337,3.625698111037823,0.6656019134215653,134,2026-10-08 01:46:43.698244,25.0,0.9716121427561046,0.18349274000742444,0.11111514568774616
0249,cdot_cos,P,T-P,135,27,28153,0.025116196028394277,2.4745835328871467e-05,0.07462906376830947,0.8659630340054817,1000.0,3.8201609171991824,0.5814637481375008,6.756003848792652,-0.08507860803072664,0.539,0.9999999999978044,-46.36735766992713,0.6705694203690621,135,2026-10-08 01:46:44.237243,25.0,0.5651317537642292,0.08645054482921094,0.11867826267490848
0249,cdot_cos,Q,P-Q,136,27,28323,-0.016575825975644644,-0.029977229483355343,-0.04169202200403892,0.2607063451964408,1000.0,3.849387020943296,0.5817788623467629,6.7846551635032295,-0.039341332907958944,0.17,0.9999999999977082,145.14507368572296,0.6755366517469238,136,2026-10-08 01:46:44.407244,25.0,0.3126797935457045,0.263042662764695,0.17191825731831598
0249,cdot_cos,R,Q-R,137,27,28353,0.03705449252580397,0.12285359596315314,0.053630318501448615,0.7926145604685908,1000.0,3.9095954225391787,0.5827364799739729,6.82076179035016,-0.08193867079723544,0.03,0.9999999999976651,-44.482616734386724,0.6805037769446652,137,2026-10-08 01:46:44.437243,25.0,0.5945987034642377,1.4982537313836586,2.006946719862753
0249,cdot_cos,S,R-S,138,27,28383,-0.003816942942116016,-0.029526936070821467,-0.040871435467919985,0.26467967746311705,1000.0,3.9392822448263156,0.5830561209552644,6.849364732407012,-0.04086050186395217,0.03,0.9999999999975893,128.5134614695367,0.6854709029006825,138,2026-10-08 01:46:44.467244,25.0,0.3659249293350056,1.0096707820604012,0.9895607429045643
0249,cdot_cos,T,S-T,139,27,28633,-0.0407549240125283,0.005242403057926664,-0.03693798107041229,0.2842555511348216,1000.0,3.9701756694628028,0.5833993250430145,6.87818277347228,-0.04283937480187626,0.25,0.999999999997519,-5.765878113214179,0.6904382028868999,139,2026-10-08 01:46:44.717243,25.0,0.9548577973515924,0.18753473107252017,0.12357369854594857
0249,cdot_cos,P,T-P,140,28,29153,0.021888050670167258,-7.544372253651646e-05,0.06264297468269556,0.8272232579392012,999.0,4.033049610362576,0.58439763580338,6.914692448801517,-0.08815898908243659,0.52,0.9999999999974833,-45.39629950895071,0.6954057215805318,140,2026-10-08 01:46:45.237243,25.0,0.5980584093753797,0.0893036565125806,0.12091142480725565
0249,cdot_cos,Q,P-Q,141,28,29323,-0.018945970811872343,-0.03435641700077249,-0.0408340214820396,0.2648617593404425,999.0,4.063051472235887,0.5847171307346007,6.9431380620498215,-0.042545968650302426,0.17,0.9999999999973795,142.7660221645882,0.7003729595401856,141,2026-10-08 01:46:45.407244,25.0,0.34229307896949895,0.2676705962853762,0.1764815404312405
0249,cdot_cos,R,Q-R,142,28,29353,0.03349439696859949,0.12178770410293493,0.05244036778047183,0.7876819816369331,999.0,4.124057613099604,0.5856668665140325,6.979033134338936,-0.08742766022545158,0.03,0.9999999999973327,-47.25702932030254,0.7053400835720474,142,2026-10-08 01:46:45.437243,25.0,0.5984824775047017,1.5376420366162602,2.0335380287905678
0249,cdot_cos,S,R-S,143,28,29383,-0.0038672539591889615,-0.030650296410004437,-0.037361650927788446,0.28210554752663297,999.0,4.155309994432862,0.5860068566203827,7.007629750703975,-0.045281475880174976,0.03,0.9999999999972512,123.96297291626546,0.7103072083916608,143,2026-10-08 01:46:45.467244,25.0,0.3942539821455321,1.0782744375958646,1.0417460444419528
0249,cdot_cos,T,S-T,144,28,29632,-0.034430308200324465,0.004476345202895072,-0.030563054241135503,0.3177619002009572,999.0,4.1887540793553555,0.5863897211759554,7.036683619353473,-0.04882239289452769,0.249,0.9999999999971767,-9.248484778266418,0.7152745189836327,144,2026-10-08 01:46:45.716243,25.0,0.930041105271949,0.19305919692773996,0.1343135940662381
0249,cdot_cos,P,T-P,145,29,30152,0.022413689450942197,-5.424286441972767e-05,0.05684399765126666,0.8055107945885139,1019.0,4.251453474502877,0.5873597952616506,7.072755708821968,-0.09252021501684667,0.52,0.9999999999971365,-45.04586068908837,0.7202420647912511,145,2026-10-08 01:46:46.236243,25.0,0.6235628794515852,0.09175984553690268,0.12057575989907925
0249,cdot_cos,Q,P-Q,146,29,30340,-0.011197949593771598,-0.02586329056157945,-0.033611639044713794,0.3014735046031643,1019.0,4.284184318713734,0.5877226848845217,7.101487899463617,-0.04883143762227089,0.188,0.9999999999970274,120.39136597215871,0.7252093254148816,146,2026-10-08 01:46:46.424243,25.0,0.40873614092528154,0.2458711131403178,0.1741002351641361
0249,cdot_cos,R,Q-R,147,29,30370,0.03239923541222189,0.11921979488841121,0.04359718500599349,0.7483684693322664,1019.0,4.343901013043636,0.5886230980038184,7.136683625938315,-0.08999777692361546,0.03,0.9999999999969714,-45.7193908208493,0.7301764481626987,147,2026-10-08 01:46:46.454243,25.0,0.6329175813489468,1.5461957448369201,1.9905564776633966
0249,cdot_cos,S,R-S,148,29,30401,-0.0009374106501027568,-0.025324281482801282,-0.03333664606232464,0.3029232277910519,1019.0,4.3769560634039495,0.5889873972927279,7.165348784976105,-0.050338765658752345,0.031,0.9999999999968843,108.86381739471136,0.7351435726155617,148,2026-10-08 01:46:46.485244,25.0,0.4548250922081523,1.052868637615882,1.066291947106881
0249,cdot_cos,T,S-T,149,29,30651,-0.03714583752289118,0.00240635053118903,-0.03620842687278843,0.28798088084501705,1019.0,4.409178868575821,0.5893336362879749,7.193741655048602,-0.04942606174745642,0.25,0.9999999999967991,2.636051755651702,0.7401108957324987,149,2026-10-08 01:46:46.735244,25.0,0.9817034071514543,0.1942845777896416,0.12889122068748549
0249,cdot_cos,P,T-P,150,30,31171,0.0246903037094091,-3.4734171661366264e-05,0.06183614123230029,0.8243212867046669,1019.0,4.47409835229877,0.5903242263769203,7.229973771330893,-0.10060592061679335,0.52,0.9999999999967567,-51.66603163153277,0.7450784692176651,150,2026-10-08 01:46:47.255244,25.0,0.6012670066202599,0.09223044748519332,0.12484516100567196
0249,cdot_cos,Q,P-Q,151,30,31341,-0.016336675038426215,-0.028282585067961004,-0.04102697874783531,0.2639235575853105,1019.0,4.505098533960422,0.5906412299055434,7.257929566931444,-0.04854829882667609,0.17,0.9999999999966339,164.21779914007055,0.7500457210845493,151,2026-10-08 01:46:47.425244,25.0,0.342225573006199,0.2773537983108277,0.1823540097744214
0249,cdot_cos,R,Q-R,152,30,31371,0.036769869404773226,0.12487528693684152,0.05310654444319944,0.7904539060522738,1019.0,4.568398643724452,0.5915902072723578,7.293622692946086,-0.10010151689296679,0.03,0.9999999999965786,-54.32502382996433,0.7550128425877166,152,2026-10-08 01:46:47.455244,25.0,0.5974950025389506,1.5776867017331053,2.1100036588009927
0249,cdot_cos,S,R-S,153,30,31401,-0.0037802382153928724,-0.024733044520240454,-0.0405501076201661,0.2662460856912811,1019.0,4.599759736064408,0.5919096950327192,7.321527360834206,-0.05009904413473721,0.03,0.9999999999964795,156.50825778636627,0.7599799649244536,153,2026-10-08 01:46:47.485244,25.0,0.36858925285291183,1.072750839921947,1.0453697446652181
0249,cdot_cos,T,S-T,154,30,31651,-0.03921543853727997,0.0074117218627958665,-0.03543520032188709,0.29196078029225686,1019.0,4.6327636941197685,0.5922599504188112,7.349761482433816,-0.053079472386222834,0.25,0.9999999999963878,-8.509300270125342,0.7649473000173659,154,2026-10-08 01:46:47.735244,25.0,0.9453970328719545,0.19973087160923697,0.1320158322214411
0249,cdot_cos,P,T-P,155,31,32190,0.026622252124764084,-2.5406522805055426e-05,0.06583769066204405,0.8383418817345627,999.0,4.699625171869027,0.5932651585435326,7.386100698163893,-0.10861088982712794,0.539,0.9999999999963429,-55.24370135418188,0.7699149205529102,155,2026-10-08 01:46:48.274244,25.0,0.5997227885625647,0.09085438693306766,0.12404726855149946
0249,cdot_cos,Q,P-Q,156,31,32360,-0.015851731966722828,-0.028645200636980395,-0.04247398409148691,0.2569561519887843,999.0,4.7307047232336155,0.5935731041563096,7.413735338074271,-0.05100381839176268,0.17,0.9999999999962085,187.068979213146,0.7748821795588087,156,2026-10-08 01:46:48.444243,25.0,0.3232058485587787,0.2814055656622503,0.1828208903799337
0249,cdot_cos,R,Q-R,157,31,32390,0.03828336458796892,0.12996475789066186,0.054135096554691745,0.7946812455333139,999.0,4.795303064194192,0.5945250126619598,7.449386866800114,-0.10700666654150902,0.03,0.9999999999961493,-58.832175379601495,0.7798492996605425,157,2026-10-08 01:46:48.474244,25.0,0.59252720180376,1.6010078345556198,2.1532780320192124
0249,cdot_cos,S,R-S,158,31,32419,-0.003617166315104161,-0.027871112553237848,-0.04190053090307308,0.2597029065745351,999.0,4.826765193306953,0.594835944025754,7.47698168979701,-0.052629477893063055,0.029,0.9999999999960397,174.88486199942122,0.7848164196016918,158,2026-10-08 01:46:48.503244,25.0,0.35586357779654104,1.0955550607217523,1.0849010038883036
0249,cdot_cos,T,S-T,159,31,32670,-0.04366587121683107,0.005589253567866629,-0.040048704901726906,0.26870208961150077,999.0,4.8588452577160535,0.5951575696632659,7.504661220033499,-0.05400383697538348,0.251,0.9999999999959361,-4.273163958421918,0.7897837678856027,159,2026-10-08 01:46:48.754244,25.0,0.9748718175413266,0.2005498147361697,0.1278090215502025
0249,cdot_cos,P,T-P,160,32,33189,0.025389664932335628,-5.999477218326285e-06,0.0690555361491667,0.8489498743050686,1019.0,4.92744120030451,0.5961731907100987,7.541070741183566,-0.11658113248904388,0.519,0.9999999999958893,-61.61480771672795,0.7947513976618733,160,2026-10-08 01:46:49.273243,25.0,0.5846333666362221,0.09831568983078773,0.13216944622053248
0249,cdot_cos,Q,P-Q,161,32,33377,-0.011039613870892374,-0.025650846632351548,-0.036429278803228,0.2868500768846707,1019.0,4.960896943760411,0.5965161712774658,7.568952408187859,-0.057436336803017206,0.188,0.999999999995749,172.44357643946253,0.7997186831112351,161,2026-10-08 01:46:49.461244,25.0,0.3570979154144651,0.255334568340092,0.17795608221224096
0249,cdot_cos,R,Q-R,162,32,33407,0.032067721182873696,0.1193249701474728,0.04310733505376607,0.7460553335302273,1019.0,5.023446998000384,0.5974077714167456,7.603770470700527,-0.10834972025306906,0.03,0.999999999995678,-57.10338211833118,0.8046858017749781,162,2026-10-08 01:46:49.491244,25.0,0.6250656375374599,1.622836797549147,2.0850018079991095
0249,cdot_cos,S,R-S,163,32,33438,-0.00088309592395494,-0.02526215424680851,-0.032950817106828637,0.30496388941141994,1019.0,5.05826715161336,0.5977720444715446,7.631853488676125,-0.060885978492147816,0.031,0.9999999999955648,130.29715246741966,0.809652922404147,163,2026-10-08 01:46:49.522244,25.0,0.45861175873042964,1.1031167727665432,1.123230761708888
0249,cdot_cos,T,S-T,164,32,33689,-0.03782374479738776,0.00236641256621128,-0.03694064887343282,0.28424198192798666,1019.0,5.09184023791191,0.5981114685058719,7.6595750062261265,-0.05908728392116397,0.251,0.9999999999954536,5.299255176636734,0.8146202834617776,164,2026-10-08 01:46:49.773243,25.0,0.9700173567085112,0.2038564098733772,0.1337573159304787
0249,cdot_cos,P,T-P,165,33,34208,0.026967379924176155,8.35048940125436e-06,0.06479112472156391,0.8347645273021633,999.0,5.160603069369795,0.5991077475664182,7.695689578074179,-0.1221400314115695,0.519,0.9999999999954012,-63.28823919659217,0.819587943366298,165,2026-10-08 01:46:50.292243,25.0,0.5967641708374976,0.09789964053112758,0.13249100473580963
0249,cdot_cos,Q,P-Q,166,33,34378,-0.012942777204996498,-0.02369580405939505,-0.03991015712917265,0.26938325499751176,999.0,5.1934600647832205,0.5994290781598685,7.723115315315641,-0.05892508955518918,0.17,0.9999999999952466,196.72867490645032,0.8245552173700607,166,2026-10-08 01:46:50.462244,25.0,0.34204882286698723,0.2866454964966938,0.19327644360838375
0249,cdot_cos,R,Q-R,167,33,34411,0.03384459388830259,0.1327701535348497,0.046787371093299085,0.7630879426293766,999.0,5.258062538178671,0.6003388535609279,7.758099827538768,-0.11685878773200958,0.033,0.9999999999951744,-63.67912136265516,0.8295223380718937,167,2026-10-08 01:46:50.495244,25.0,0.609108927085317,1.5095907109937587,1.9576507089530504
0249,cdot_cos,S,R-S,168,33,34458,-5.6311518186686584e-05,-0.020296369651998096,-0.033900905406489275,0.2999527994193428,999.0,5.293093051708809,0.6006962768400763,7.785925708727595,-0.0639512719124676,0.047,0.9999999999950512,148.02481792901827,0.8344894757681595,168,2026-10-08 01:46:50.542243,25.0,0.43722391280383366,0.7277029125114095,0.7453300751093068
0249,cdot_cos,T,S-T,169,33,34688,-0.03918671857501826,0.004923016467173151,-0.03913040705683157,0.2732371390587244,999.0,5.326466611954744,0.6010217724594359,7.813295161576905,-0.061304564634992814,0.23,0.9999999999949284,8.131314586298604,0.8394568255467726,169,2026-10-08 01:46:50.772243,25.0,0.9577456027972238,0.2247176410391622,0.14510243585189161
0249,cdot_cos,P,T-P,170,34,35207,0.026495731072237124,3.8820137425416266e-05,0.06568244964725538,0.8378152157487289,860.0,5.396463166586823,0.6020192681110043,7.849383327485997,-0.12971996818891907,0.519,0.9999999999948738,-68.58716972485665,0.8444245161920372,170,2026-10-08 01:46:51.291244,25.0,0.5901323644695309,0.09959826994188797,0.1348681206783806
0249,cdot_cos,Q,P-Q,171,34,35377,-0.013297370146429477,-0.038666938776431604,-0.0397931012186666,0.2699596052102556,860.0,5.429849616154423,0.602340499728188,7.8766372300540315,-0.06245232079934929,0.17,0.9999999999947089,209.40543766924705,0.849391798039638,171,2026-10-08 01:46:51.461244,25.0,0.34058040419785196,0.2691781991344409,0.19639087980941278
0249,cdot_cos,R,Q-R,172,34,35407,0.01129304523465573,0.13600447908111396,0.02459041538108521,0.6490259438814309,860.0,5.487983754292533,0.6031124305504807,7.909758706069001,-0.10959171995592268,0.03,0.9999999999946145,-61.06686997750413,0.8543589139003553,172,2026-10-08 01:46:51.491244,25.0,0.6504203044772114,1.7281484631311184,1.9378046046036583
0249,cdot_cos,S,R-S,173,34,35437,0.0038222779406132928,-0.03559993896875724,-0.007470767294042438,0.45344296216772967,860.0,5.5335385239422905,0.6036514369776685,7.939808351116504,-0.0866529314591711,0.03,0.9999999999945051,42.557541690977224,0.8593260307172452,173,2026-10-08 01:46:51.521244,25.0,0.7674205809101498,1.2775377668837815,1.5184923216585786
0249,cdot_cos,T,S-T,174,34,35687,-0.04431074043235972,-0.016819144285684817,-0.04813301837297301,0.23088416411029206,860.0,5.56463602030556,0.6039257917622298,7.966341662780909,-0.05954995998200723,0.25,0.9999999999943685,98.78804016669152,0.8642934172098407,174,2026-10-08 01:46:51.771244,25.0,0.6343655143486733,0.20502724086342106,0.12438998545307811
0249,cdot_cos,P,T-P,175,35,36067,0.02316987403681077,-7.47306909075455e-05,0.06748061446917049,0.8438312475293925,939.0,5.636052144374001,0.6049279412440158,8.002458143964896,-0.1379002900477922,0.38,0.9999999999943094,-78.18227868176992,0.8692609673579637,175,2026-10-08 01:46:52.151244,25.0,0.5665632605271016,0.14075528703518803,0.18793716860116053
0249,cdot_cos,Q,P-Q,176,35,36255,-0.011573515381609327,-0.03630461093405929,-0.0347433894184201,0.29554887442275823,939.0,5.671610038452303,0.6052787325603655,8.029944026195091,-0.06929455603935167,0.188,0.9999999999941509,195.5742083993376,0.8742282808450678,176,2026-10-08 01:46:52.339243,25.0,0.3715545801674543,0.2539499853891501,0.18913773445905266
0249,cdot_cos,R,Q-R,177,35,36285,0.015557306830651521,0.11370135145298926,0.027130822212260847,0.6633525940282241,939.0,5.7315373388803215,0.606065680293346,8.063193923332546,-0.11768935901169342,0.03,0.9999999999940576,-61.49684527211343,0.8791953961348933,177,2026-10-08 01:46:52.369244,25.0,0.66284906137682,1.735325439824124,1.997576680933951
0249,cdot_cos,S,R-S,178,35,36316,0.003119221027419295,-0.03340956257552993,-0.012438085803232227,0.4228823480842105,939.0,5.77572956484175,0.6065670668618881,8.092628517998763,-0.0875410754021684,0.031,0.9999999999939404,60.12981898814172,0.8841625136697184,178,2026-10-08 01:46:52.400243,25.0,0.7086523972574363,1.253009095670581,1.4255556761751262
0249,cdot_cos,T,S-T,179,35,36566,-0.03867350506400227,-0.007690822947651333,-0.04179272609142157,0.26022139862042176,939.0,5.8092239028118975,0.6068754844958705,8.119455095392976,-0.06677897349307012,0.25,0.9999999999938038,67.31814144675327,0.889129914842824,179,2026-10-08 01:46:52.650244,25.0,0.7327814552390522,0.20765033891843743,0.13397735188058846
0249,cdot_cos,P,T-P,180,36,37006,0.019897981198026028,-4.4686774340465716e-05,0.0585714862620283,0.812187508609974,1159.0,5.879554734300969,0.6078375502641147,8.15501133798773,-0.1413554725585341,0.44,0.9999999999937406,-77.51704875807837,0.8940975671895115,180,2026-10-08 01:46:53.090244,25.0,0.5900303721002133,0.12080915628404783,0.1598427988387991
0249,cdot_cos,Q,P-Q,181,36,37196,-0.01507961931228054,-0.025033416926621224,-0.03497760051030657,0.29433126832490636,1159.0,5.91553596034186,0.6081859902021278,8.182321203321086,-0.07295211857278797,0.19,0.9999999999935697,196.31318492303694,0.8990648932137822,181,2026-10-08 01:46:53.280244,25.0,0.39154796364284483,0.27568938707768276,0.18937487389942362
0249,cdot_cos,R,Q-R,182,36,37226,0.0362211404289937,0.10383220093813668,0.05130075974127424,0.7828782597641152,1159.0,5.9843167013904885,0.6091122523656995,8.217389352081705,-0.14057303292236328,0.03,0.9999999999934919,-73.00407704102368,0.9040320074456462,182,2026-10-08 01:46:53.310244,25.0,0.6181416752802213,1.7153712640171885,2.2926913682876324
0249,cdot_cos,S,R-S,183,36,37256,-0.00483762879622412,-0.022069758214908104,-0.04105876922521782,0.2637691898139957,1159.0,6.018458236182891,0.6094241541435529,8.244152962225492,-0.07036133144963233,0.03,0.9999999999933412,225.1083721162539,0.9089991226372938,183,2026-10-08 01:46:53.340243,25.0,0.3686626037791435,1.260285922482322,1.1380511597467446
0249,cdot_cos,T,S-T,184,36,37505,-0.025809333914181526,0.012022504095944743,-0.020971705117957408,0.37184902279420157,1159.0,6.059933856739428,0.6098637062187849,8.272609616774178,-0.08597959981782284,0.249,0.9999999999932145,-35.53223667513153,0.9139665369938256,184,2026-10-08 01:46:53.589243,25.0,0.8338924336486462,0.2212866574030079,0.16656875725516856
0249,cdot_cos,P,T-P,185,37,38165,0.02338806180468551,-5.074287933090011e-05,0.04919739571886704,0.7738071788136003,1039.0,6.128658991569589,0.6107778290269248,8.30749282913157,-0.1436462130794664,0.66,0.9999999999931424,-63.08409849108726,0.9189345213900076,185,2026-10-08 01:46:54.249243,25.0,0.6693495270983111,0.07816294805087026,0.10412899216691054
0249,cdot_cos,Q,P-Q,186,37,38335,-0.01756354433893316,-0.02884935396183717,-0.040951606143618674,0.2642897823528545,1039.0,6.163108948166577,0.6110898649014957,8.334171946153212,-0.07259415396522723,0.17,0.9999999999929335,227.70477661241276,0.9239018282234588,186,2026-10-08 01:46:54.419244,25.0,0.37577778278036056,0.31195290676899484,0.2026468035116929
0249,cdot_cos,R,Q-R,187,37,38365,0.04062414447707203,0.1187373909376818,0.05818768881600519,0.8107195210575227,1039.0,6.234722979871047,0.6120464787867006,8.369627301527817,-0.15207299804923768,0.03,0.9999999999928482,-83.08351500353865,0.928868939854391,187,2026-10-08 01:46:54.449243,25.0,0.5929553748868035,1.7443489533554235,2.387134390149015
0249,cdot_cos,S,R-S,188,37,38394,-0.005311058652044055,-0.028458631319814343,-0.04593520312911609,0.24078509275231066,1039.0,6.267769885367902,0.6123304288598607,8.395869429841026,-0.07074882812111681,0.029,0.9999999999926743,286.40306030939945,0.9338360510551414,188,2026-10-08 01:46:54.478244,25.0,0.31680232763083865,1.2198565323205,1.1395484654087917
0249,cdot_cos,T,S-T,189,37,38644,-0.0376216052573505,0.00941236343303915,-0.03231054660530644,0.30836724972751306,1039.0,6.305474658745636,0.6126939649529936,8.423167004986851,-0.08114949327399751,0.25,0.9999999999925189,-28.609718125233886,0.9388034798718496,189,2026-10-08 01:46:54.728243,25.0,0.8797066938662151,0.22188473587252133,0.15081909351093614
0249,cdot_cos,P,T-P,190,38,39204,0.024772934608104525,-5.26830793123493e-05,0.062394539865455026,0.8263337647644966,999.0,6.378712253304163,0.613667515382009,8.45884094547584,-0.15886754673679263,0.56,0.9999999999924447,-79.82950974752167,0.9437713616480933,190,2026-10-08 01:46:55.288243,25.0,0.6131164999747638,0.09652067844926575,0.13078141885451183
0249,cdot_cos,Q,P-Q,191,38,39373,-0.016314715721150314,-0.029176553508829216,-0.041087650329254835,0.26362899957857666,999.0,6.413577818608814,0.6139779208605137,8.4853626959795,-0.07625251174825425,0.169,0.9999999999922252,266.15198735060045,0.9487386752928256,191,2026-10-08 01:46:55.457243,25.0,0.3384292634266657,0.31791351171662047,0.20630512014586397
0249,cdot_cos,R,Q-R,192,38,39402,0.04195449923105114,0.11409489758921956,0.058269214952201456,0.8110320845321128,999.0,6.48616702026438,0.6149322749015459,8.520770816183171,-0.15994167456806502,0.029,0.9999999999921323,-87.6919457786315,0.9537057835735661,192,2026-10-08 01:46:55.486243,25.0,0.5925926722828427,1.8291936485355327,2.5030759191574723
0249,cdot_cos,S,R-S,193,38,39433,-0.0039187779707256076,-0.029481031881230142,-0.04587327720177675,0.24106821961863925,999.0,6.519671050223875,0.6152157736106761,8.546869947146128,-0.0744088110231175,0.031,0.9999999999919448,301.7045961420981,0.9586728958648548,193,2026-10-08 01:46:55.517244,25.0,0.31679540292120245,1.1365508083160087,1.0807751599836837
0249,cdot_cos,T,S-T,194,38,39683,-0.03964902940348605,0.0051308899196843725,-0.03573025143276044,0.2904383017193904,999.0,6.556633170379973,0.6155572281493117,8.573739356710036,-0.08250613620218687,0.25,0.9999999999917732,-23.71421159439372,0.9636403389261254,194,2026-10-08 01:46:55.767244,25.0,0.9065200812919787,0.2235211972118023,0.14784848062439337
0249,cdot_cos,P,T-P,195,39,40203,0.025220468598708766,-3.317196281504162e-05,0.06486949800219483,0.8350346060442964,1019.0,6.631431648829776,0.6165383036120836,8.609508575008633,-0.1682286515000642,0.52,0.999999999991694,-87.37606692932366,0.9686081967596452,195,2026-10-08 01:46:56.287244,25.0,0.6007601276937958,0.10711255315177974,0.1438432277880823
0249,cdot_cos,Q,P-Q,196,39,40392,-0.012155327270441933,-0.028197149860583706,-0.0373757958691507,0.2820339364971506,1019.0,6.668030225657824,0.6168694492117962,8.636192989094312,-0.08298173579735887,0.189,0.9999999999914669,257.4303139667063,0.9735755499199902,196,2026-10-08 01:46:56.476243,25.0,0.35797313726986185,0.27896948374772634,0.19364326364046627
0249,cdot_cos,R,Q-R,197,39,40421,0.030496598632433,0.11719280524975904,0.042651925902874935,0.7438922886481805,1019.0,6.736882113686416,0.6177423575471616,8.670448180860003,-0.15721263412296393,0.029,0.999999999991353,-85.03859491104072,0.9785426563478237,197,2026-10-08 01:46:56.505243,25.0,0.6236482420211726,1.858745118147588,2.3742030354687045
0249,cdot_cos,S,R-S,198,39,40452,-0.0009441212759559983,-0.02588888813464642,-0.031440719908389,0.31302432137468633,1019.0,6.775837442510384,0.6181094441957931,8.697591851487175,-0.08963097362267233,0.031,0.9999999999911674,184.10274727298452,0.9835097669634775,198,2026-10-08 01:46:56.536243,25.0,0.4704813518026233,1.1758263880541997,1.2566235104505705
0249,cdot_cos,T,S-T,199,39,40702,-0.046925928378149365,0.002998569186661012,-0.045981807102193364,0.24057216803318984,1019.0,6.809783349745777,0.6183914739134414,8.723506277411268,-0.07850416364685417,0.25,0.999999999990973,39.45261537896446,0.9884772246896917,199,2026-10-08 01:46:56.786243,25.0,0.86785095960605,0.22238776689706263,0.1357836289415708
0249,cdot_cos,P,T-P,200,40,41222,0.024497426280469067,-3.045921355206658e-05,0.07142335465861843,0.8563849917678727,1019.0,6.887031325958915,0.6193947901244424,8.759586604744376,-0.17992561223591672,0.52,0.9999999999908928,-101.08622533654926,0.9934451172762992,200,2026-10-08 01:46:57.306243,25.0,0.5691077793917845,0.11066343762118261,0.14855380040988195
0249,cdot_cos,Q,P-Q,201,40,41411,-0.010714518980846995,-0.024862084031075912,-0.03521194526131606,0.2931158989381701,1019.0,6.924873324871807,0.6197379627382101,8.786324574006247,-0.08885111280464689,0.189,0.9999999999906536,265.38976531769015,0.9984124806109373,201,2026-10-08 01:46:57.495244,25.0,0.35878794977437395,0.28351246812381004,0.20022221647032437
0249,cdot_cos,R,Q-R,202,40,41440,0.030767090346628743,0.11388780782703596,0.04148160932747574,0.7382785134870602,1019.0,6.9941990389097155,0.6206017895769911,8.82043155036109,-0.16389169630221273,0.029,0.9999999999905311,-86.86993750213298,1.0033795851657743,202,2026-10-08 01:46:57.524243,25.0,0.6326316716565524,1.8738764465057522,2.390541863376168
0249,cdot_cos,S,R-S,203,40,41471,-0.0008964213524373292,-0.02536563233369118,-0.031663511699066074,0.3118278413023576,1019.0,7.03355815876914,0.6209664163210049,8.847432421262422,-0.09373970105455216,0.031,0.9999999999903327,192.3939930335989,1.0083466940804193,203,2026-10-08 01:46:57.555244,25.0,0.47313706151281437,1.2796843510425386,1.2696490277233792
0249,cdot_cos,T,S-T,204,40,41722,-0.031108586946058246,0.0019565492345234806,-0.030212165593620915,0.3196666553763905,1019.0,7.073539468674353,0.6213400673446636,8.874534107515016,-0.09572327308344594,0.251,0.9999999999901427,-5.308621958187178,1.013314168760576,204,2026-10-08 01:46:57.806243,25.0,0.9794912829540345,0.22779011022073908,0.15928808727176352
0249,cdot_cos,P,T-P,205,41,42241,0.02489590000338734,-3.2625795075987017e-06,0.056004486949445584,0.8022016882330268,1019.0,7.147908794099951,0.62227710774493,8.909675630950035,-0.17932414799441357,0.519,0.9999999999900447,-89.21800478101805,1.0182820961420294,205,2026-10-08 01:46:58.325243,25.0,0.6273819451735194,0.10779471323219549,0.14329349792986198
0249,cdot_cos,Q,P-Q,206,41,42411,-0.012486499270016055,-0.02171450127371111,-0.037382399273403394,0.2820005094855816,1019.0,7.185430381009372,0.6226062920410572,8.936105848450843,-0.09115507757212592,0.17,0.9999999999897887,267.8410588219526,1.0232494377682682,206,2026-10-08 01:46:58.495244,25.0,0.38012978002628683,0.3255718312232252,0.22071521711423842
0249,cdot_cos,R,Q-R,207,41,42459,0.03817259006302986,0.13667349115593017,0.050659089333045915,0.7801391119834021,1019.0,7.258603216715848,0.6235163727659412,8.97086319764891,-0.17896836677846137,0.048,0.9999999999896707,-96.48956054698502,1.0282165730948174,207,2026-10-08 01:46:58.543243,25.0,0.6122199009651204,1.1495972745137102,1.5244340772182507
0249,cdot_cos,S,R-S,208,41,42491,-0.0006690172599358434,-0.019487119901749006,-0.0388416073229657,0.27467322021641305,1019.0,7.295791719362688,0.6238365891595385,8.997124052592275,-0.09162086049426835,0.032,0.9999999999894492,272.77649748945527,1.0331836820255487,208,2026-10-08 01:46:58.575244,25.0,0.3854444159028139,1.1416243887261424,1.1621407077137547
0249,cdot_cos,T,S-T,209,41,42741,-0.04341502763055259,0.0027237687813001076,-0.04274601037061675,0.2556598522693062,1019.0,7.331667177594321,0.6241345423987572,9.02303323065979,-0.08880166666123802,0.25,0.9999999999892305,9.461866702383352,1.0381511701545516,209,2026-10-08 01:46:58.825243,25.0,0.9687515653718378,0.2289889852711262,0.14350183292653185
0249,cdot_cos,P,T-P,210,42,43260,0.02559739902355676,2.0577908057733434e-05,0.06901242665410935,0.8488116197653885,1019.0,7.410286211998251,0.6251230968687608,9.058919637953512,-0.19592095126345288,0.519,0.999999999989138,-108.35951670101537,1.04311913343519,210,2026-10-08 01:46:59.344243,25.0,0.5788294114919598,0.11103550520676742,0.15148176185728351
0249,cdot_cos,Q,P-Q,211,42,43430,-0.015527037985662146,-0.027068708953326782,-0.0411244370092189,0.26345050458776537,1019.0,7.4469220319989455,0.6254297085049445,9.084917781130219,-0.09198119878171572,0.17,0.9999999999888615,338.9948071620282,1.0480864840701651,211,2026-10-08 01:46:59.514244,25.0,0.32302975201370315,0.3277001022714606,0.21550482353349662
0249,cdot_cos,R,Q-R,212,42,43461,0.037537361296210346,0.12777018765355133,0.053064399281872496,0.790279333188435,1019.0,7.521704246770548,0.6263488548376814,9.119803808458343,-0.18897604530301387,0.031,0.9999999999887395,-105.52709951252025,1.0530535885024472,212,2026-10-08 01:46:59.545243,25.0,0.5985379786170177,1.8004501069927121,2.4123295087613608
0249,cdot_cos,S,R-S,213,42,43490,-0.0035058457938843992,-0.023303324646444305,-0.04104320709009474,0.26384474897984905,1019.0,7.558549938632494,0.6266555208356037,9.145763058631907,-0.09377305726165228,0.029,0.9999999999885029,310.4452032060239,1.0580206904453315,213,2026-10-08 01:46:59.574244,25.0,0.36231225915732235,1.307812495699855,1.270541098687792
0249,cdot_cos,T,S-T,214,42,43740,-0.03875318981347494,0.0072178478684980125,-0.035247344019590544,0.2929325678602721,1019.0,7.597557371521139,0.6269958762723565,9.172185753893398,-0.09973725928884096,0.25,0.9999999999882814,-17.523451613085935,1.0629881942654498,214,2026-10-08 01:46:59.824243,25.0,0.9419537182807179,0.2333180356062634,0.15602973155458244
0249,cdot_cos,P,T-P,215,43,44279,0.022634732214704273,4.0916569724329094e-05,0.06138792202817921,0.8226926555355971,1020.0,7.675208956435625,0.627951081180955,9.207597641093866,-0.19986546041535908,0.539,0.9999999999881777,-104.82379249226503,1.067956231349186,215,2026-10-08 01:47:00.363244,25.0,0.6059377551263994,0.10663596436731786,0.14406602024951037
0249,cdot_cos,Q,P-Q,216,43,44449,-0.017826618318826433,-0.031014314759978196,-0.040461350533530706,0.2666797981033792,1020.0,7.712510941109108,0.6282605015119712,9.233534570854587,-0.09670050325196111,0.17,0.9999999999878846,333.4136345358324,1.0729235911608737,216,2026-10-08 01:47:00.533243,25.0,0.34409060787266543,0.332198528729865,0.21942343925577973
0249,cdot_cos,R,Q-R,217,43,44480,0.03519365640377213,0.11914479988669585,0.053020274722598563,0.7900964468402898,1020.0,7.7881564562037795,0.6291766080860103,9.268379177572704,-0.1973408939358648,0.031,0.9999999999877555,-109.85664063099716,1.0778906937473494,217,2026-10-08 01:47:00.564243,25.0,0.6005061233555269,1.8317790042517237,2.440177906279727
0249,cdot_cos,S,R-S,218,43,44509,-0.004042149806263386,-0.026611066073415048,-0.039235806210035515,0.27271420140454544,1020.0,7.826081239372715,0.6294926014223405,9.294375865304662,-0.09962663252525622,0.029,0.9999999999875061,309.22886711915953,1.082857793711148,218,2026-10-08 01:47:00.593244,25.0,0.3750092376633288,1.347404427565018,1.3077511437563905
0249,cdot_cos,T,S-T,219,43,44759,-0.03730471990006023,0.007027291375829898,-0.033262570093796844,0.3033144188699279,1020.0,7.8663059130025506,0.6298439209606925,9.320867836665395,-0.10615571724100573,0.25,0.999999999987274,-18.584462299981585,1.087825313388279,219,2026-10-08 01:47:00.843244,25.0,0.9403484448297783,0.23600973163155814,0.1608986945193429
0249,cdot_cos,P,T-P,220,44,45299,0.021271006433926286,-6.912505440927083e-05,0.058575726333986514,0.8122036774790059,1019.0,7.944086105188494,0.6307839933284127,9.356068139702025,-0.20659348901151706,0.54,0.9999999999871613,-106.84046805256712,1.092793391680606,220,2026-10-08 01:47:01.383244,25.0,0.6149825651678549,0.10920746410708326,0.1440373929369321
0249,cdot_cos,Q,P-Q,221,44,45487,-0.012694548317765088,-0.02921933129264269,-0.03396555475169137,0.2996135306427555,1019.0,7.9842499742382005,0.6311305262825296,9.382460691476847,-0.10743402278086994,0.188,0.9999999999868605,286.14729148441813,1.097760795745448,221,2026-10-08 01:47:01.571244,25.0,0.3973331781369009,0.30059285385838613,0.21363760132822654
0249,cdot_cos,R,Q-R,222,44,45517,0.0292776667368527,0.10787613136595477,0.04197221505461779,0.7406414900713086,1019.0,8.057109018239247,0.6319865711472241,9.416419136686828,-0.19608298355429213,0.03,0.9999999999867081,-103.55644245942699,1.1027278943485888,222,2026-10-08 01:47:01.601243,25.0,0.6362910440078114,1.9102106315916987,2.4286348000348865
0249,cdot_cos,S,R-S,223,44,45547,-0.0011423726924978698,-0.02992464574947073,-0.030420039429350572,0.31853750666957675,1019.0,8.098862612133702,0.6323544864500326,9.44309753321688,-0.11312556869991944,0.03,0.9999999999864561,225.47965311887353,1.1076949941166003,223,2026-10-08 01:47:01.631244,25.0,0.4803109714594955,1.3775077289862678,1.3917864631485108
0249,cdot_cos,T,S-T,224,44,45798,-0.03387229497518371,0.0022170713380433187,-0.03272992228268584,0.3061356752483233,1019.0,8.139759481978423,0.6327079322869821,9.469536537041135,-0.1113263673677295,0.251,0.999999999986209,5.090458407201219,1.1126625319341954,224,2026-10-08 01:47:01.882244,25.0,0.9839683941524477,0.23756208064353893,0.16293573643315035
0249,cdot_cos,P,T-P,225,45,46318,0.023632096531756526,-4.660572292756686e-05,0.057504391506940235,0.8080842404512844,1019.0,8.218118776616759,0.6336402118036246,9.504635071057551,-0.21464053630806174,0.52,0.9999999999860874,-110.81887684543571,1.117630610585207,225,2026-10-08 01:47:02.402244,25.0,0.6179573880770701,0.11271714943050792,0.15069095122756884
0249,cdot_cos,Q,P-Q,226,45,46488,-0.014919294159939174,-0.025805293519587526,-0.0385513906916957,0.2761210616847548,1019.0,8.256985317386151,0.6339585413391184,9.530519907341633,-0.10718626674504814,0.17,0.999999999985765,337.5567064373108,1.1225979894980551,226,2026-10-08 01:47:02.572243,25.0,0.36696076404455,0.33812100211512935,0.22862671040819083
0249,cdot_cos,R,Q-R,227,45,46536,0.03408242229517374,0.12124163903557063,0.04900171645511291,0.772949790363607,1019.0,8.333079917335903,0.6348490232746561,9.564998618243976,-0.21110014864820986,0.048,0.9999999999856162,-116.69398081660319,1.1275651228924888,227,2026-10-08 01:47:02.620243,25.0,0.6112500157846598,1.2135617240773093,1.5853041656198237
0249,cdot_cos,S,R-S,228,45,46567,-0.0009022380857168802,-0.02463677871004103,-0.03498466038089062,0.2942946112118422,1019.0,8.373487242897573,0.6351878253708905,9.591159520444611,-0.11283991267794866,0.031,0.9999999999853412,290.0225148025221,1.1325322227622725,228,2026-10-08 01:47:02.651244,25.0,0.41861934147656343,1.3024577922616476,1.3034621148925853
0249,cdot_cos,T,S-T,229,45,46817,-0.03619127985935572,0.002339442583056155,-0.03528904177363884,0.2927167002964918,1019.0,8.413832300456125,0.6355246781167404,9.61726718862161,-0.11316605322725773,0.25,0.999999999985075,-0.9681991710833934,1.13749977495632,229,2026-10-08 01:47:02.901243,25.0,0.9971221843616166,0.24170686456257684,0.161380230234208
0249,cdot_cos,P,T-P,230,46,47337,0.02586007165063633,-3.29567176490514e-05,0.06205135150999205,0.8250990733351403,1039.0,8.494340675178861,0.6364734710029561,9.652632412974631,-0.22719449562104568,0.52,0.9999999999849521,-120.18264897473033,1.1424678926496334,230,2026-10-08 01:47:03.421243,25.0,0.6053806111230027,0.11509767063817053,0.15482379754372388
0249,cdot_cos,Q,P-Q,231,46,47526,-0.012967867972363758,-0.028398737790432824,-0.03882793962300009,0.27474130011672837,1039.0,8.533533877919822,0.6367891647326145,9.678393129658584,-0.1113447027162793,0.189,0.9999999999846122,366.96893862968125,1.1474353212134762,231,2026-10-08 01:47:03.610244,25.0,0.35329186520028083,0.302320357968657,0.20737144307386743
0249,cdot_cos,R,Q-R,232,46,47555,0.030662253370485084,0.10840639770871109,0.04363012134284884,0.7485234962143936,1039.0,8.608617770491014,0.637648663213429,9.71241127065367,-0.21451963470600255,0.029,0.9999999999844447,-120.04085439680478,1.1524024136873734,232,2026-10-08 01:47:03.639244,25.0,0.6181908883191389,2.016495821033574,2.5890997438341867
0249,cdot_cos,S,R-S,233,46,47586,-0.0017482417447643652,-0.02682768126746988,-0.032410495115249446,0.3078345873805569,1039.0,8.65049063553977,0.6380018819950669,9.738712250669469,-0.12039907859446168,0.031,0.9999999999841598,266.4653212240866,1.1573695116282985,233,2026-10-08 01:47:03.670244,25.0,0.4576099129856726,1.337123687019874,1.3507375822179313
0249,cdot_cos,T,S-T,234,46,47837,-0.03641815517840657,0.004487275308003625,-0.0346699134336422,0.2959314600156949,1039.0,8.691519439086246,0.6383413022665488,9.76478045558561,-0.11849063146240502,0.251,0.9999999999838801,5.6226669188740015,1.1623370825774435,234,2026-10-08 01:47:03.921243,25.0,0.9840227006356529,0.24354410300378845,0.163461368711061
0249,cdot_cos,P,T-P,235,47,48376,0.025085351803285506,-2.0403019115002462e-05,0.061503506981692074,0.8231137704097474,1039.0,8.772749775247672,0.6392846505950137,9.800084952564825,-0.2359777944406726,0.539,0.9999999999837502,-124.54271601822413,1.1673052810013396,235,2026-10-08 01:47:04.460243,25.0,0.6078216326597503,0.11183188585786766,0.15070563295255193
0249,cdot_cos,Q,P-Q,236,47,48546,-0.014514877075651827,-0.024079177465204795,-0.039600228878937334,0.2709109474552846,1039.0,8.812074212041027,0.6395948996967202,9.825681686545181,-0.11498476670157094,0.17,0.9999999999833877,389.98671413900246,1.1722726793351577,236,2026-10-08 01:47:04.630244,25.0,0.34915034215598983,0.3486857896979778,0.23132021643150494
0249,cdot_cos,R,Q-R,237,47,48578,0.039011900265845306,0.12404877341258777,0.053526777341497134,0.7921887442717305,1039.0,8.891302943744984,0.6405014503443166,9.860433297624173,-0.23296978901945864,0.032,0.9999999999832284,-130.1471932436574,1.1772397762823261,237,2026-10-08 01:47:04.662244,25.0,0.6026376640426434,1.8392309416798702,2.475897865748644
0249,cdot_cos,S,R-S,238,47,48606,-0.003315491147468808,-0.01864472923432242,-0.04232739141331411,0.25765649736787294,1039.0,8.929784992308539,0.6407960869807723,9.885759357759074,-0.11386681247504582,0.028,0.99999999998291,404.23681853403286,1.1822068655800997,238,2026-10-08 01:47:04.690243,25.0,0.3513455775084234,1.42084227661662,1.3743588772698243
0249,cdot_cos,T,S-T,239,47,48856,-0.03893900457506078,0.00964576971708965,-0.03562351342759198,0.29098853368053257,1039.0,8.970870111235515,0.6411287119700455,9.911648157892737,-0.12206220994860294,0.25,0.999999999982613,-24.63855013257982,1.1871744511022415,239,2026-10-08 01:47:04.940243,25.0,0.93506320535192,0.24777812042450265,0.16434047570790256
0249,cdot_cos,P,T-P,240,48,49415,0.025168652031887465,-1.539314804609419e-05,0.06410765660694825,0.8323942114592543,999.0,9.05367405252079,0.6420794602861151,9.947091698352342,-0.24741964633175945,0.559,0.9999999999824798,-131.8513367463959,1.192142736141159,240,2026-10-08 01:47:05.499244,25.0,0.6025050782153221,0.11012196176473442,0.148128696395842
0249,cdot_cos,Q,P-Q,241,48,49583,-0.0129395997289321,-0.02318451798986891,-0.03810825176081956,0.27834089021025393,999.0,9.093986464488488,0.6423971283637273,9.97272641839926,-0.12122935667166979,0.168,0.9999999999820991,397.2394412702745,1.1971101397185435,241,2026-10-08 01:47:05.667244,25.0,0.3531289898805142,0.3672108775695396,0.23995483314105603
0249,cdot_cos,R,Q-R,242,48,49613,0.05080386563450443,0.13429166477671223,0.06374346536343653,0.8311201191460901,999.0,9.177056907384156,0.6433449335358389,10.008140019937562,-0.25121500610096087,0.03,0.9999999999819446,-137.14384902511358,1.2020772300167335,242,2026-10-08 01:47:05.697243,25.0,0.596051691146479,1.9666173834307503,2.76901476318893
0249,cdot_cos,S,R-S,243,48,49644,-0.003053945340846561,-0.02339588528821271,-0.05385781097535099,0.20645213358431816,999.0,9.211983507494333,0.6435801969090837,10.032463985533768,-0.10627319955641146,0.031,0.9999999999815907,616.0831775275627,1.2070443238521966,243,2026-10-08 01:47:05.728243,25.0,0.2556718782986303,1.2243645508437193,1.1266645196831329
0249,cdot_cos,T,S-T,244,48,49895,-0.04000740972613964,0.00509599833765879,-0.03695346438529308,0.2841768040245944,999.0,9.252967509536466,0.6439039184335313,10.0581423287382,-0.1251683562036538,0.251,0.9999999999812729,-58.368552043258134,1.2120119284570714,244,2026-10-08 01:47:05.979244,25.0,0.8598838684504083,0.24792243861013805,0.16328287666188637
0249,cdot_cos,P,T-P,245,49,50414,0.0234091038516924,5.323708231802173e-06,0.06341651357783204,0.8299697425911359,999.0,9.336440571676622,0.6448486292148747,10.093519881300924,-0.25634601921713807,0.519,0.9999999999811308,-138.85483854322854,1.2169801635062616,245,2026-10-08 01:47:06.498244,25.0,0.5994629639201727,0.11801780774020561,0.16083441645502083
0249,cdot_cos,Q,P-Q,246,49,50584,-0.019147145225793683,-0.03492491207430345,-0.042556249077486084,0.25656367760279314,999.0,9.3754699939708,0.645140434238168,10.118676264658852,-0.12060485399722992,0.17,0.9999999999807283,465.1776165055122,1.221947581739323,246,2026-10-08 01:47:06.668243,25.0,0.3244890999870292,0.35222074371101414,0.22958483702457413
0249,cdot_cos,R,Q-R,247,49,50615,0.03389997795670551,0.12135252754882257,0.0530471231824992,0.7902077415994153,999.0,9.456195624538367,0.6460385052845184,10.15333646531047,-0.25075982000605657,0.031,0.9999999999805528,-144.92724883821796,1.2269146723859148,247,2026-10-08 01:47:06.699244,25.0,0.5950901638751542,1.9625370375917996,2.604052598953781
0249,cdot_cos,S,R-S,248,49,50644,-0.004064120834876808,-0.0324119312794414,-0.03796409879158232,0.2790653583694399,999.0,9.497147290301491,0.6463554174505236,10.178859663780857,-0.1279792327094139,0.029,0.9999999999802095,387.4278127102412,1.2318817595214595,248,2026-10-08 01:47:06.728243,25.0,0.38313073929852076,1.443966499164646,1.412126405624978
0249,cdot_cos,T,S-T,249,49,50894,-0.03757650746857653,0.004743435187552227,-0.033512386633699716,0.3019962941233099,999.0,9.539945681489916,0.6466982255973461,10.204770236249896,-0.13428244433024245,0.25,0.9999999999798832,-18.386994822768216,1.2368493792781865,249,2026-10-08 01:47:06.978244,25.0,0.9541446894302266,0.25398780424693257,0.1711935647537004
0249,cdot_cos,P,T-P,250,50,51413,0.025377951195878254,2.8679702757572395e-05,0.06295445866445479,0.8283333942995842,1039.0,9.624141192424958,0.6476377250408344,10.24009663932693,-0.2656084670095984,0.519,0.9999999999797355,-139.78297016521597,1.2418176557824327,250,2026-10-08 01:47:07.497243,25.0,0.6099156411280615,0.12172253498367765,0.16222641798659188
0249,cdot_cos,Q,P-Q,251,50,51602,-0.010203532369095625,-0.022374003531021824,-0.03558148356497388,0.291205365225064,1039.0,9.666293672802974,0.6479677407706705,10.265786448582025,-0.13379646459153782,0.189,0.9999999999793293,399.41127195210663,1.2467851310765363,251,2026-10-08 01:47:07.686244,25.0,0.3733764749115376,0.3217763597362205,0.22302899670908052
0249,cdot_cos,R,Q-R,252,50,51631,0.03678118370515365,0.12479564503948093,0.046984716074249276,0.7639787086280367,1039.0,9.745772656405249,0.6488328666947295,10.299949775288313,-0.2535794376095093,0.029,0.9999999999791342,-138.45726926778312,1.251752214740479,252,2026-10-08 01:47:07.715244,25.0,0.6235236174006886,2.081860806261137,2.740654606975004
0249,cdot_cos,S,R-S,253,50,51662,-0.0014262677733730077,-0.022145766384883137,-0.03820745147852666,0.277843014818767,1039.0,9.78704159956612,0.6491472528813892,10.325366464853591,-0.13243412752236094,0.031,0.9999999999787728,385.3391631938463,1.2567193046404714,253,2026-10-08 01:47:07.746243,25.0,0.40061316214235826,1.3274829362352594,1.331256230995833
0249,cdot_cos,T,S-T,254,50,51913,-0.040348036672580447,0.004915693654985989,-0.03892176889920744,0.2742741401133089,1039.0,9.828076598451835,0.6494574738848545,10.350696218827197,-0.1321844696722115,0.251,0.9999999999784197,0.8047741686108367,1.261686944380032,254,2026-10-08 01:47:07.997243,25.0,0.9981130746013245,0.2528897974140423,0.16348605133751104
0249,cdot_cos,P,T-P,255,51,52452,0.02582001811306887,2.768215964362628e-05,0.06616805478564931,0.839458069369936,979.0,9.913992277867969,0.6504061670671417,10.386201672352112,-0.2781997312245068,0.539,0.9999999999782698,-153.91199628974877,1.2666553126961164,255,2026-10-08 01:47:08.536243,25.0,0.5916395689281386,0.11924746364449541,0.15939829205219663
0249,cdot_cos,Q,P-Q,256,51,52641,-0.009611093906549085,-0.02571692117378461,-0.035431112019617954,0.29198190905523674,979.0,9.956625364260601,0.650735864898512,10.41182377741148,-0.13888662959579356,0.189,0.9999999999778412,422.54782523048283,1.271622799835192,256,2026-10-08 01:47:08.725244,25.0,0.3667515452574581,0.3173860772785484,0.225571885675302
0249,cdot_cos,R,Q-R,257,51,52670,0.029613969370605082,0.1391155075195813,0.039225063277154165,0.7272325261980896,979.0,10.03396421507926,0.6515564085394749,10.44529431672726,-0.25319259165540114,0.029,0.9999999999776201,-139.30515862076854,1.2765898809734433,257,2026-10-08 01:47:08.754244,25.0,0.6366988125603575,2.1192687831214583,2.666856924781352
0249,cdot_cos,S,R-S,258,51,52701,0.00071372696074239,-0.02514947700041087,-0.028900242409862692,0.3268413702767213,979.0,10.079542953681646,0.6519248946482271,10.471514821960014,-0.15005972008121832,0.031,0.9999999999772597,279.88265805576054,1.2815569685591972,258,2026-10-08 01:47:08.785243,25.0,0.5029427923916049,1.367580945478938,1.470281890399528
0249,cdot_cos,T,S-T,259,51,52952,-0.04400342801205442,-0.002831931551367093,-0.04471715497279681,0.24639565815821537,979.0,10.118754233698954,0.6522025648753128,10.496257411361869,-0.12959202586921037,0.251,0.9999999999768755,73.71223925167698,1.2865246258454262,259,2026-10-08 01:47:09.036243,25.0,0.8539014780639099,0.251243010790992,0.156220239112784
0249,cdot_cos,P,T-P,260,52,53431,0.02275834555217384,3.6188726766881315e-05,0.06676177356422826,0.8414483651545596,1039.0,10.205666945098724,0.6531500361779707,10.531779143600065,-0.2886683619835365,0.479,0.999999999976718,-167.8956773340479,1.2914928812215472,260,2026-10-08 01:47:09.515244,25.0,0.5763330800081184,0.13365585430017896,0.18144616158615698
0249,cdot_cos,Q,P-Q,261,52,53601,-0.01741091911464624,-0.029025553929549155,-0.04016926466682008,0.26811024895589436,1039.0,10.246796542118526,0.6534516740908518,10.556887848505527,-0.13741080786322601,0.17,0.9999999999762685,501.4540535557562,1.2964603308709175,261,2026-10-08 01:47:09.685244,25.0,0.3326152125609828,0.36816932522805285,0.24193880599883666
0249,cdot_cos,R,Q-R,262,52,53632,0.038398433531987554,0.1212865240706774,0.055809352646633795,0.8014264777276977,1039.0,10.330844515676262,0.6543525847307915,10.591675338178922,-0.2821701122018906,0.031,0.9999999999760774,-160.68109079981048,1.3014274155541998,262,2026-10-08 01:47:09.716243,25.0,0.5986839831562928,2.0045097709709503,2.7112249534753468
0249,cdot_cos,S,R-S,263,52,53662,-0.004501340618497545,-0.02543125668161509,-0.0428997741504851,0.25492901653870953,1039.0,10.371076147918725,0.6546389273595572,10.616512801462397,-0.1358304208689134,0.03,0.9999999999756726,511.0649852024622,1.306394498895353,263,2026-10-08 01:47:09.746243,25.0,0.34048965990197755,1.3991938618789668,1.341054408082106
0249,cdot_cos,T,S-T,264,52,53911,-0.03884207594943166,0.00951779804469448,-0.03434073533093412,0.2976489907704614,1039.0,10.414796147389,0.6549731122424434,10.642106888600228,-0.14813861529537864,0.249,0.9999999999752974,-36.83049430652352,1.31136216930786,264,2026-10-08 01:47:09.995244,25.0,0.9202723145401588,0.26065103639984966,0.17558232718985875
0249,cdot_cos,P,T-P,265,53,54470,0.022046416250935865,3.6991419576970436e-05,0.06088849220036753,0.8208640227650934,1039.0,10.50088036404585,0.6558939417603676,10.677234073863298,-0.29313277952238614,0.559,0.9999999999751288,-157.4603782835422,1.3163306801068404,265,2026-10-08 01:47:10.554244,25.0,0.6097925429721615,0.11371239442737979,0.1539968097618073
0249,cdot_cos,Q,P-Q,266,53,54640,-0.019331787973109936,-0.031972036877813866,-0.0413782042240458,0.26222130112289477,1039.0,10.54192660435881,0.65618785029998,10.70215632707022,-0.14056264660709378,0.17,0.9999999999746474,519.1075193546463,1.3212981400510708,266,2026-10-08 01:47:10.724244,25.0,0.3377583950415826,0.37052719027098807,0.24144847242917844
0249,cdot_cos,R,Q-R,267,53,54670,0.03674773392415525,0.10481373661449633,0.056079521897265186,0.8024991721491659,1039.0,10.626859608737986,0.65708658116485,10.736940074795834,-0.2922284184803926,0.03,0.9999999999744459,-168.75549488915476,1.3262652195697906,267,2026-10-08 01:47:10.754244,25.0,0.5951169488670432,2.095972430166408,2.8311001459725205
0249,cdot_cos,S,R-S,268,53,54700,-0.005599299721268168,-0.030472511290725666,-0.042347033645423415,0.2575625844856927,1039.0,10.667684950168795,0.6573747911727705,10.761745999892097,-0.1412452986983612,0.03,0.9999999999740221,523.8649444249872,1.3312323004251907,268,2026-10-08 01:47:10.784243,25.0,0.3433713992702879,1.4685046664355403,1.360844714360295
0249,cdot_cos,T,S-T,269,53,54950,-0.03278344177612417,0.008039957177951357,-0.027184142054856,0.33634979156494804,1039.0,10.714969888724118,0.6577509885674159,10.787975166593172,-0.16418424718878505,0.25,0.9999999999736451,-60.97583028731394,1.3361999915180747,269,2026-10-08 01:47:11.034244,25.0,0.8696063217293029,0.2644112354186312,0.18913975422129425
0249,cdot_cos,P,T-P,270,54,55509,0.021829627746301147,3.688977431402732e-05,0.05461306952242531,0.7966240684145478,999.0,10.79989056787811,0.6586411978050157,10.822636937124301,-0.2963158513082935,0.559,0.9999999999734555,-148.42758144788021,1.3411685492488323,270,2026-10-08 01:47:11.593244,25.0,0.6402383600749981,0.11435981711341783,0.15191534732377823
0249,cdot_cos,Q,P-Q,271,54,55678,-0.015833657818255027,-0.02857603393645653,-0.03766328556455617,0.2805808686662267,999.0,10.84282416425692,0.6589544748025751,10.84781959673748,-0.1506329977016435,0.169,0.9999999999729602,465.0288873477036,1.3461360169509478,271,2026-10-08 01:47:11.762244,25.0,0.38016963510751905,0.38346084286043775,0.25404494898703617
0249,cdot_cos,R,Q-R,272,54,55707,0.04322836312237473,0.11858452674549375,0.059062020940629754,0.8140509922013301,999.0,10.929500332764938,0.6598626011467428,10.882793205723395,-0.3055309448344068,0.029,0.9999999999727538,-170.5687189096216,1.3511030911424462,272,2026-10-08 01:47:11.791244,25.0,0.6023120753980615,2.1745737748143252,2.988833396828236
0249,cdot_cos,S,R-S,273,54,55738,-0.0037385882326405064,-0.02910710963299597,-0.04696695135501523,0.23610138200121056,999.0,10.96894944319615,0.6601257681903014,10.907128097813953,-0.13981022682458943,0.031,0.9999999999722987,629.7168360022058,1.3560701723766815,273,2026-10-08 01:47:11.822243,25.0,0.3056464763859782,1.3528128733853182,1.2725519493939361
0249,cdot_cos,T,S-T,274,54,55989,-0.038355585056139604,0.004808611857897514,-0.0346169968234991,0.2962071717796867,999.0,11.013374730914828,0.6604557915230808,10.93254900353231,-0.15797458996301778,0.251,0.999999999971883,-55.03963306308002,1.3610378843213817,274,2026-10-08 01:47:12.073244,25.0,0.8913814616803204,0.2627671776940834,0.1769931781620626
0249,cdot_cos,P,T-P,275,55,56508,0.02182944411540732,4.619876084960537e-05,0.060185029171546923,0.8182633740765752,1039.0,11.10085856639858,0.6613666606699652,10.967586567681277,-0.3125463808611771,0.519,0.9999999999716941,-169.69703214436709,1.3660063734478756,275,2026-10-08 01:47:12.592243,25.0,0.609841415966625,0.12701680698219367,0.16856230343690204
0249,cdot_cos,Q,P-Q,276,55,56697,-0.013388211604767693,-0.02951093145750144,-0.03521765572017501,0.2930863197821796,1039.0,11.145218176562345,0.6616926264467504,10.992926865821808,-0.15935002938955348,0.189,0.9999999999711893,469.9767962836176,1.3709739101572533,276,2026-10-08 01:47:12.781244,25.0,0.3823638498940609,0.3353919105356492,0.2347069320834121
0249,cdot_cos,R,Q-R,277,55,56726,0.031181283561041866,0.11037738996117455,0.04456949516580956,0.7529182456291589,1039.0,11.227636708581056,0.6625293058302774,11.026749216120395,-0.2973925928749861,0.029,0.9999999999709427,-164.9886040020824,1.3759409818591561,277,2026-10-08 01:47:12.810244,25.0,0.6286527764764028,2.2056176123658906,2.8420183454727765
0249,cdot_cos,S,R-S,278,55,56757,-0.0017632070021751233,-0.02816992474309091,-0.03294449056321699,0.30499741494494015,1039.0,11.273143998079567,0.6628679447317276,11.052281267576587,-0.16506265108863172,0.031,0.9999999999705018,390.770053941352,1.3809080608218207,278,2026-10-08 01:47:12.841243,25.0,0.4485678886785929,1.4958078927254665,1.467977080597133
0249,cdot_cos,T,S-T,279,55,57008,-0.03097343589907224,0.0037310998739085847,-0.029210228896897117,0.32513861340099826,1039.0,11.320376797930034,0.6632287624340172,11.078168344566295,-0.1719369041635559,0.251,0.9999999999700823,-19.051873096312953,1.38587579161238,279,2026-10-08 01:47:13.092243,25.0,0.9608074500699237,0.2664848762612256,0.18817848546003108
0249,cdot_cos,P,T-P,280,56,57547,0.02380927368099105,3.215148499586373e-05,0.05478270958006329,0.7973103064048449,1019.0,11.406919405962702,0.6641127599287711,11.112796842046649,-0.31648689118585144,0.539,0.9999999999698741,-163.51854827658948,1.3908443849731498,280,2026-10-08 01:47:13.631244,25.0,0.6333494623083816,0.11919362267373715,0.16056142492146092
0249,cdot_cos,Q,P-Q,281,56,57717,-0.01818376574423497,-0.031563357642346676,-0.04199303942522602,0.2592585177531225,1019.0,11.448867523172323,0.6643999590222248,11.137439916428944,-0.1542067824360627,0.17,0.9999999999693278,565.0439449451678,1.395811877186894,281,2026-10-08 01:47:13.801243,25.0,0.3491149997056942,0.3798222891589741,0.24675363064483066
0249,cdot_cos,R,Q-R,282,56,57748,0.03758509031641901,0.12067815431588119,0.05576885606065398,0.8012653107867275,1019.0,11.536058984276753,0.6652868083356999,11.172132996766518,-0.3219151127538121,0.031,0.9999999999690973,-189.10577904221185,1.4007789524404324,282,2026-10-08 01:47:13.832243,25.0,0.5939437477547204,2.084501004046425,2.8126277775622577
0249,cdot_cos,S,R-S,283,56,57777,-0.004536585048237173,-0.029299964489322344,-0.042121675364656185,0.2586414035295214,1019.0,11.578106585423201,0.6655728267889904,11.19673566067899,-0.15604856910479364,0.029,0.9999999999686124,579.9155325146521,1.4057460230110475,283,2026-10-08 01:47:13.861243,25.0,0.34544696631580546,1.5331377845364689,1.4499172809120118
0249,cdot_cos,T,S-T,284,56,58027,-0.03545786011947811,0.0065961158284605975,-0.030921275071240935,0.31582361565657013,1019.0,11.624980975779868,0.6659219151732676,11.222383235395556,-0.1745403254904115,0.25,0.9999999999681692,-52.97156026519665,1.4107137693124048,284,2026-10-08 01:47:14.111244,25.0,0.8994736972676475,0.2707104097707109,0.1874975614266674
0249,cdot_cos,P,T-P,285,57,58566,0.022870803242944954,4.022806030092308e-05,0.05832866336242307,0.8112597544082966,1020.0,11.713461790308557,0.6668177891039244,11.257248502510592,-0.3309424471452082,0.539,0.999999999967961,-174.5805032412636,1.4156824087645457,285,2026-10-08 01:47:14.650244,25.0,0.6233817820024113,0.12425368055660134,0.16415735534079517
0249,cdot_cos,Q,P-Q,286,57,58754,-0.011653548636421355,-0.027120809727094176,-0.03452435187936631,0.2966902383500999,1020.0,11.758926443419885,0.6671451237258754,11.282518717368308,-0.17094225929497459,0.188,0.9999999999674123,488.7970202986445,1.42064996779307,286,2026-10-08 01:47:14.838243,25.0,0.3921975296048166,0.3443611150905623,0.24183326123046614
0249,cdot_cos,R,Q-R,287,57,58784,0.03321176902084937,0.12539067905963916,0.044865317657270726,0.7542914846773561,1020.0,11.842941569582608,0.667976597556412,11.316312789931127,-0.3172314566133739,0.03,0.9999999999671437,-175.93962906083064,1.425617037398214,287,2026-10-08 01:47:14.868243,25.0,0.6305622386899006,2.163315470697806,2.800504205424126
0249,cdot_cos,S,R-S,288,57,58815,-0.0009485634857698685,-0.026855834209193224,-0.03416033250661924,0.29859269902767777,1020.0,11.888725371661753,0.6683054547892737,11.341591225916867,-0.17373865234160973,0.031,0.9999999999666583,436.3376867922317,1.4305841115520292,288,2026-10-08 01:47:14.899244,25.0,0.43783558892254326,1.4544036991482772,1.476896841262728
0249,cdot_cos,T,S-T,289,57,59066,-0.038436535588064945,0.002455118431870231,-0.03748797210229508,0.2814664174076339,1020.0,11.933114598929802,0.6686152995842871,11.366531652716702,-0.16900700424632875,0.251,0.9999999999661751,15.271026563723533,1.4355518796404119,289,2026-10-08 01:47:15.150244,25.0,0.9723915198815319,0.2675776000754867,0.17684951102808213
0249,cdot_cos,P,T-P,290,58,59586,0.02202893825749446,-8.18504245952748e-05,0.060465473845559406,0.8193036606810893,1019.0,12.023049326899647,0.6695163761305116,11.401525580650986,-0.34387310251783254,0.52,0.9999999999659603,-194.06353323054358,1.4405205052534118,290,2026-10-08 01:47:15.670244,25.0,0.6013854106551401,0.1278717860532771,0.17295139994201095
0249,cdot_cos,Q,P-Q,291,58,59755,-0.019077850785698926,-0.03286108322378443,-0.041106789043193384,0.2635361257185896,1019.0,12.06610125642521,0.6698059513662246,11.426108460865748,-0.16545327709169189,0.169,0.9999999999653728,616.1432450771222,1.4454880162849677,291,2026-10-08 01:47:15.839243,25.0,0.3401495691112138,0.3889003542122792,0.2547451451216714
0249,cdot_cos,R,Q-R,292,58,59786,0.03571931018845588,0.1180211595075772,0.05479716097415481,0.7973686861434258,1019.0,12.154497646623398,0.6706813208535162,11.46068289216576,-0.3411098462811578,0.031,0.9999999999651225,-200.6656294737284,1.4504550868187718,292,2026-10-08 01:47:15.870244,25.0,0.5975268726316344,2.127139198268651,2.8514964580060616
0249,cdot_cos,S,R-S,293,58,59816,-0.00469899903966273,-0.030120385744987772,-0.04041830922811861,0.2668902816806481,1019.0,12.197983886717866,0.6709740551120073,11.48530123826551,-0.1686451861857823,0.03,0.9999999999646006,589.1509281638506,1.4554221555539915,293,2026-10-08 01:47:15.900243,25.0,0.3596413527196526,1.53889553570122,1.4495413364822816
0249,cdot_cos,T,S-T,294,58,60065,-0.03314464092101524,0.006333093188832445,-0.02844564188135251,0.3293467595487708,1019.0,12.24683137876547,0.6713351108492891,11.511074698180837,-0.1900485416437838,0.249,0.9999999999641265,-59.279920654726205,1.4603899364242992,294,2026-10-08 01:47:16.149244,25.0,0.8934897048573667,0.27628073656603686,0.1961746668578504
0249,cdot_cos,P,T-P,295,59,60605,0.021361120427367555,-6.305047206284597e-05,0.054505761348382795,0.7961890864390513,1039.0,12.335571693527752,0.6722071192859281,11.545612842544395,-0.3467289897085622,0.54,0.9999999999638918,-179.67767452877894,1.4653586731884591,295,2026-10-08 01:47:16.689243,25.0,0.6364295232386786,0.12501842615953132,0.1643339162264474
0249,cdot_cos,Q,P-Q,296,59,60793,-0.013109428057012493,-0.028506678976759875,-0.03447054848438005,0.2969709874086853,1039.0,12.381851279017765,0.6725320664844722,11.570758108384524,-0.18172607834199345,0.188,0.9999999999632989,507.7837633495055,1.4703262579249599,296,2026-10-08 01:47:16.877243,25.0,0.40333977218135714,0.35029941436228873,0.24616800792559687
0249,cdot_cos,R,Q-R,297,59,60823,0.03166337197474641,0.10868932853654914,0.0447728000317589,0.7538625617949413,1039.0,12.467284273327973,0.673356203635892,11.60449032358673,-0.336820367039304,0.03,0.9999999999630095,-188.18990071023262,1.4752933225318277,297,2026-10-08 01:47:16.907244,25.0,0.6309896078580345,2.2049332847587997,2.847766477006945
0249,cdot_cos,S,R-S,298,59,60854,-0.001854649717933044,-0.02749313633627755,-0.03351802169267946,0.3019665989611024,1039.0,12.514147276103293,0.6736860196439111,11.629703434806656,-0.18564507976796094,0.031,0.999999999962485,458.3624918005888,1.4802603919172812,298,2026-10-08 01:47:16.938244,25.0,0.44293854931385435,1.5227148546890295,1.5117097669457944
0249,cdot_cos,T,S-T,299,59,61104,-0.03398874908144674,0.004255797687635825,-0.03213409936351369,0.30930884712830475,1039.0,12.561692594318693,0.6740236769351416,11.655038506401933,-0.18895884593713114,0.25,0.9999999999619775,-9.81399263464217,1.4852281950581725,299,2026-10-08 01:47:17.188244,25.0,0.9826159047883316,0.2759421436691092,0.1901812728616008
0249,cdot_cos,P,T-P,300,60,61644,0.02324716510706153,-6.625576392687171e-05,0.05723591418850826,0.8070411733827663,999.0,12.652118347937847,0.6749038336238037,11.689757928468376,-0.36084977458501655,0.54,0.9999999999617379,-195.29582727955403,1.4901969794980041,300,2026-10-08 01:47:17.728243,25.0,0.621045839667262,0.12492094580641998,0.16745509929473035
0249,cdot_cos,Q,P-Q,301,60,61813,-0.016207700735543677,-0.028974969957969776,-0.039454865842605207,0.271629340900498,999.0,12.696607215789626,0.6751997945770214,11.714361848925272,-0.1784016511766957,0.169,0.9999999999611048,616.4601155143283,1.495164512639892,301,2026-10-08 01:47:17.897243,25.0,0.3596291888665461,0.4011438813349027,0.2632477387679242
0249,cdot_cos,R,Q-R,302,60,61842,0.04210308277583345,0.1142864501454272,0.058310783511377126,0.8111913019934219,999.0,12.787704979829044,0.6760828162333864,11.749150548799138,-0.3667384715936609,0.029,0.9999999999608413,-213.28675130377002,1.5001315713078323,302,2026-10-08 01:47:17.926244,25.0,0.5983704079763624,2.2933570819377205,3.141302208255791
0249,cdot_cos,S,R-S,303,60,61873,-0.00397285834418864,-0.029846855866631494,-0.04607594112002209,0.24014248002954455,999.0,12.829621926542014,0.6763439831445109,11.773132652432698,-0.16955774788166766,0.031,0.9999999999602581,754.9988735669605,1.5050986382797173,303,2026-10-08 01:47:17.957243,25.0,0.3125746664577722,1.44450612726405,1.3521595713861245
0249,cdot_cos,T,S-T,304,60,62123,-0.03675390440777203,0.0047560200563171616,-0.03278104606358339,0.30586425401410816,999.0,12.877264359719415,0.6766764666871942,11.798341151653368,-0.19328781032480913,0.25,0.999999999959728,-71.3721414649094,1.5100664604967549,304,2026-10-08 01:47:18.207244,25.0,0.8844665267761714,0.280460748881481,0.19056973270960498
0249,cdot_cos,P,T-P,305,61,62643,0.024806212981368585,-4.0646111563288166e-05,0.06156011738914061,0.8233197345227795,1019.0,12.969852300982755,0.6775705524272633,11.833345843796339,-0.3771357018049471,0.52,0.9999999999594897,-205.62669019408355,1.5150352234265456,305,2026-10-08 01:47:18.727243,25.0,0.6141692614990619,0.13115700926565974,0.1780537331987293
0249,cdot_cos,Q,P-Q,306,61,62813,-0.01710899255379683,-0.029614663357435598,-0.041915205535165416,0.2596323801615657,1019.0,13.013667649355702,0.6778522318416697,11.857658717820897,-0.17933172669570682,0.17,0.9999999999588303,702.2308517862425,1.5200027714368767,306,2026-10-08 01:47:18.897243,25.0,0.33187196716847234,0.39577693023083677,0.2577373433702757
0249,cdot_cos,R,Q-R,307,61,62843,0.03798194760746532,0.12486956707695328,0.055090940161262154,0.7985527560658692,1019.0,13.10441645726124,0.6787177844480089,11.892184381202274,-0.37282065040350626,0.03,0.9999999999585512,-223.5438057614289,1.5249698311271627,307,2026-10-08 01:47:18.927244,25.0,0.5951233373719808,2.242723106649732,3.0249602635179214
0249,cdot_cos,S,R-S,308,61,62873,-0.004275612368703315,-0.027578957375737175,-0.04225755997616864,0.2579905544387776,1019.0,13.148231035754685,0.6789971589359323,11.91643985004892,-0.18084698912042957,0.03,0.999999999957958,687.1553043731584,1.5299368922853984,308,2026-10-08 01:47:18.957243,25.0,0.34592775089535904,1.5436108663578807,1.4604859497815426
0249,cdot_cos,T,S-T,309,61,63123,-0.035410257347006716,0.006680530449849872,-0.0311346449783034,0.31467213043408887,1019.0,13.197033109242712,0.6793377396656715,11.94175573435314,-0.2020305045644663,0.25,0.9999999999574146,-62.19822084549084,1.5349047340489064,309,2026-10-08 01:47:19.207244,25.0,0.900456831219325,0.2848315525075442,0.19520829395210626
0249,cdot_cos,P,T-P,310,62,63662,0.026997367477921256,-3.251053155663377e-05,0.06240762482492797,0.8263807040977058,999.0,13.290646812008458,0.680231251074591,11.976796193501277,-0.3890609736696026,0.539,0.9999999999571705,-209.32073976681616,1.5398736113904063,310,2026-10-08 01:47:19.746243,25.0,0.6183363150917208,0.1273641930027442,0.17368033908301583
0249,cdot_cos,Q,P-Q,311,62,63832,-0.016089001124328067,-0.029086721065389804,-0.04308636860224932,0.25404398518295684,999.0,13.33433170929967,0.6805056669498534,12.000940056353025,-0.18241397902645687,0.17,0.9999999999564813,753.0431482712006,1.5448411707724587,311,2026-10-08 01:47:19.916243,25.0,0.32211512573177536,0.39409881410058323,0.25696998406595717
0249,cdot_cos,R,Q-R,312,62,63862,0.035743610321863684,0.1224038960295026,0.05183261144619175,0.7851298601600076,999.0,13.424640408802656,0.6813529661042605,12.035185488771845,-0.3784623545376671,0.03,0.999999999956183,-231.3803507196673,1.5498082278285668,312,2026-10-08 01:47:19.946244,25.0,0.5957031042028794,2.2608669665205325,3.010289983432853
0249,cdot_cos,S,R-S,313,62,63892,-0.003763918742704017,-0.029054151123802437,-0.0395075290645677,0.2713689379290964,999.0,13.469983727290902,0.6816455446549664,12.059633283423292,-0.19089337417492466,0.03,0.9999999999555754,641.0893071628958,1.5547752863699489,313,2026-10-08 01:47:19.976243,25.0,0.3743421444971746,1.4885051950454495,1.511443949608212
0249,cdot_cos,T,S-T,314,62,64142,-0.04659467844122688,0.005952226151875294,-0.04283075969852287,0.25525687057862284,999.0,13.513950720505383,0.6819206211231933,12.083756708494859,-0.18562820959386483,0.25,0.9999999999549706,19.140730630280764,1.559743147240041,314,2026-10-08 01:47:20.226244,25.0,0.9720344501968133,0.2822894433584011,0.17586797285792244
0249,cdot_cos,P,T-P,315,63,64661,0.02547234945316588,2.2249089432576734e-05,0.07206702789439276,0.8583527942400362,1019.0,13.611128448970103,0.6828446899501811,12.1193846243476,-0.4117875474809912,0.519,0.9999999999547398,-244.7429577560129,1.5647119988889588,315,2026-10-08 01:47:20.745243,25.0,0.5774036790222299,0.13857061971139045,0.1872403245948361
0249,cdot_cos,Q,P-Q,316,63,64849,-0.011556056945113193,-0.026907837035982107,-0.037028406398279076,0.2837958399218242,1019.0,13.657787023765806,0.6831498969482551,12.14403456340054,-0.1986605325203249,0.188,0.9999999999540495,698.303172291553,1.5696796362352459,316,2026-10-08 01:47:20.933243,25.0,0.3420425573147407,0.3603519035111216,0.24818390848778374
0249,cdot_cos,R,Q-R,317,63,64879,0.034611623216537775,0.1324228827062392,0.046167680161650966,0.760275770425498,1019.0,13.746620764690284,0.6839667553008174,12.17777901205664,-0.37958375997661314,0.03,0.9999999999537221,-221.48665908694636,1.5746466906411039,317,2026-10-08 01:47:20.963244,25.0,0.6208685784502062,2.2721416312886156,2.961124697482613
0249,cdot_cos,S,R-S,318,63,64910,-0.0008910485806166116,-0.02553349344205779,-0.035502671797154384,0.2916122106446305,1019.0,13.794115521643123,0.6842797696270836,12.202553400210094,-0.20384481766375614,0.031,0.9999999999531058,561.4405717756578,1.5796137502794154,318,2026-10-08 01:47:20.994244,25.0,0.4222654150031316,1.4957641575682648,1.532088933962534
0249,cdot_cos,T,S-T,319,63,65161,-0.04155412810987259,0.0025722896350609103,-0.040663079529255984,0.2656946977954958,1019.0,13.839358142459517,0.6845648188506795,12.226815713745161,-0.19473785433279261,0.251,0.9999999999524845,31.948739295189952,1.5845816345116857,319,2026-10-08 01:47:21.245243,25.0,0.9543114013440037,0.28120666728680016,0.18024948532427829
0249,cdot_cos,P,T-P,320,64,65680,0.02346602899882037,3.935681110686852e-05,0.06502015710869297,0.8355527906600432,1020.0,13.935281268621097,0.6854603320030309,12.261985432707762,-0.414353363808715,0.519,0.999999999952229,-245.23984812425505,1.5895505328659072,320,2026-10-08 01:47:21.764243,25.0,0.5885932835096731,0.13529363365322702,0.18482297911672413
0249,cdot_cos,Q,P-Q,321,64,65850,-0.019303446592683654,-0.0334918538939125,-0.04276947559150403,0.25554823371974306,1020.0,13.979792934191567,0.6857339438415995,12.286034668334043,-0.1931559708240277,0.17,0.9999999999514949,808.435022921222,1.5945181150879137,321,2026-10-08 01:47:21.934243,25.0,0.3181682267298942,0.4051041761426004,0.26183332688511657
0249,cdot_cos,R,Q-R,322,64,65881,0.03658845231440903,0.11840638506626813,0.05589189890709268,0.8017546880376405,1020.0,14.07301668850958,0.6865915333816226,12.320546340161826,-0.40593209294478805,0.031,0.9999999999511885,-248.10951182429505,1.5994851708004354,322,2026-10-08 01:47:21.965244,25.0,0.592048459603674,2.2329198197655638,3.0072178812262687
0249,cdot_cos,S,R-S,323,64,65910,-0.00485068069675779,-0.031288173397731184,-0.04143913301116682,0.26192672382815085,1020.0,14.118233963017031,0.6868714250917699,12.344692880775346,-0.19776945088211625,0.029,0.99999999995053,743.7256428677942,1.6044522203718026,323,2026-10-08 01:47:21.994244,25.0,0.3490458271170234,1.6484120527619437,1.559216362325883
0249,cdot_cos,T,S-T,324,64,66160,-0.03511965523921966,0.006616449624067342,-0.030268974542461868,0.31935786442262337,1020.0,14.168624587569774,0.6872125029205163,12.369926743304852,-0.22101259133580783,0.25,0.9999999999499272,-68.14614875180096,1.6094201207605772,324,2026-10-08 01:47:22.244244,25.0,0.9001745505220536,0.28915083321493995,0.2015624982109685
0249,cdot_cos,P,T-P,325,65,66700,0.022298221016083922,-7.404689664832406e-05,0.057417876255303577,0.8077485884204169,1019.0,14.262809379624501,0.6880742831100434,12.404538416647071,-0.41457896277481465,0.54,0.9999999999496444,-224.61223150792907,1.6143891478235848,325,2026-10-08 01:47:22.784243,25.0,0.6269436076636289,0.1302901413053168,0.17441628158282935
0249,cdot_cos,Q,P-Q,326,65,66869,-0.016643760684660964,-0.02857098256944304,-0.038941981700744886,0.27417356872677523,1019.0,14.309337940179516,0.6883665013622486,12.428886672837098,-0.20571622053027158,0.169,0.9999999999488958,714.7491324321122,1.61935673770418,326,2026-10-08 01:47:22.953243,25.0,0.36229537464456224,0.41599887789972356,0.2753169263610314
0249,cdot_cos,R,Q-R,327,65,66900,0.03961604338651166,0.12517938388866995,0.05625980407117262,0.8032125405515907,1019.0,14.403417000354608,0.6892217138702911,12.463400252240259,-0.41736740092739866,0.031,0.9999999999485798,-247.48372878875733,1.6243237908030985,327,2026-10-08 01:47:22.984244,25.0,0.6022335244523215,2.2365171137321265,3.0348083927449117
0249,cdot_cos,S,R-S,328,65,66929,-0.004117217926786726,-0.02587922670374781,-0.04373326131329838,0.25099144831431114,1019.0,14.448002001230908,0.6894886900915059,12.487277849309553,-0.19865649919381162,0.029,0.9999999999478891,819.214912617912,1.6292908375619843,328,2026-10-08 01:47:23.013243,25.0,0.332554957872633,1.6165693784013242,1.5374138233206749
0249,cdot_cos,T,S-T,329,65,67179,-0.037712869115586835,0.0071922812619777,-0.03359565118880011,0.3015576822390789,1019.0,14.497178024301885,0.6898092861445422,12.512113725537056,-0.21969973279056204,0.25,0.9999999999472505,-65.637843627386,1.6342587576493794,329,2026-10-08 01:47:23.263244,25.0,0.9086622739314106,0.29121814767879073,0.19670409228390895
0249,cdot_cos,P,T-P,330,66,67719,0.02421901852255565,-5.347788881977637e-05,0.06193188763814249,0.8246676572234489,1019.0,14.593611075070303,0.6906850866350431,12.547025419461848,-0.43231802056914526,0.54,0.9999999999469699,-242.77023144502485,1.639227834108768,330,2026-10-08 01:47:23.803244,25.0,0.6115185969531869,0.13151558491078622,0.17857972364521874
0249,cdot_cos,Q,P-Q,331,66,67889,-0.0176222763707908,-0.03038054501311568,-0.04184129489334645,0.25998772176821167,1019.0,14.639214856005534,0.6909609114397048,12.571042831221348,-0.2053433516870219,0.17,0.9999999999461847,822.8943338163637,1.6441954394091842,331,2026-10-08 01:47:23.973243,25.0,0.33109756647162036,0.41291096442915903,0.26825753491312343
0249,cdot_cos,R,Q-R,332,66,67919,0.038610583979876975,0.12343931152839192,0.056232860350667775,0.8031060492422977,1019.0,14.734000802976217,0.6918120789608851,12.605527564838024,-0.42819350128826084,0.03,0.9999999999458569,-261.8170266790895,1.6491624857995077,332,2026-10-08 01:47:24.003244,25.0,0.5942574568437521,2.331821284888462,3.159531565689437
0249,cdot_cos,S,R-S,333,66,67949,-0.004653104230131586,-0.029591019333420097,-0.04326368821000856,0.253204824872559,1019.0,14.779124133098842,0.6920801670074892,12.629389465158837,-0.2047163422668093,0.03,0.9999999999451438,833.5961332565898,1.654129533725117,333,2026-10-08 01:47:24.033243,25.0,0.3356645484772863,1.5778828634703146,1.5041110040874865
0249,cdot_cos,T,S-T,334,66,68198,-0.03824596928338442,0.007247766106103577,-0.03359286505325283,0.3015723528836099,1019.0,14.828673774784436,0.6923992966192971,12.654170394011745,-0.22538886914312564,0.249,0.9999999999444817,-64.77783982252153,1.6590974695130687,334,2026-10-08 01:47:24.282243,25.0,0.9123611422721952,0.29573311239018946,0.1989945449220654
0249,cdot_cos,P,T-P,335,67,68738,0.02542689829675179,-3.9924212403628986e-05,0.06367286758013621,0.8308722476718478,1019.0,14.926399223069156,0.6932775895804782,12.68917606638679,-0.44602802074886505,0.54,0.9999999999441956,-251.21361704757555,1.664066595586522,335,2026-10-08 01:47:24.822243,25.0,0.6097687213275099,0.1328074751580378,0.18097305237911124
0249,cdot_cos,Q,P-Q,336,67,68907,-0.016967021522413337,-0.02914497392250508,-0.04239391981916513,0.25733850403031594,1019.0,14.972105847955117,0.6935493314985784,12.713085170963579,-0.2095118214454281,0.169,0.9999999999433821,870.3706846443422,1.6690342083712413,336,2026-10-08 01:47:24.991244,25.0,0.32339140624299334,0.4157129032508758,0.2704534016920756
0249,cdot_cos,R,Q-R,337,67,68938,0.03736950679308375,0.11431403731608365,0.05433652831549708,0.7955016813864594,1019.0,15.066910184367952,0.6943885073686668,12.747395176788494,-0.43594006346971015,0.031,0.9999999999430377,-269.8221553968842,1.6740012560783148,337,2026-10-08 01:47:25.022244,25.0,0.5948760395148417,2.2724115141893857,3.0582044004140405
0249,cdot_cos,S,R-S,338,67,68967,-0.004458272613721404,-0.028039710284571206,-0.041827779406805154,0.2600527345387956,1019.0,15.112995361834859,0.6946625581659618,12.77133237391591,-0.21280166897219088,0.029,0.9999999999423047,814.222752496853,1.6789682970640665,338,2026-10-08 01:47:25.051244,25.0,0.35043695614545906,1.652320875314903,1.5891440505829881
