record_id,input,event,transition,event_index,k,peak,value_cos,value_sin,value_return,x_input,rr,knowledge,decision,decision_norm,entropy,delta_t,cosine_similarity,delta_h_over_delta_d,frobenius_norm,matrix_size,timestamp,scale,P,zdot,zdot_back
0276,cdot_cos,Q,P-Q,1,0,1643,-0.005545136056359986,-0.003975348223781419,-0.01712212757450448,0.016990837128064817,1118.0,8.439589273018521e-05,0.50002109897317,0.50002109897317,,,1.0,,0.004967141530112327,1,2026-10-08 01:16:17.727243,237.0,,,
0276,cdot_cos,R,Q-R,2,0,1695,0.02806870375273623,0.03599845399434573,0.03361383980909622,0.9996532223884949,1118.0,0.007141516760584508,0.501262451049568,0.7088921565826788,-9.196065300213199e-06,,1.0,,0.009934283060224654,2,2026-10-08 01:16:17.779244,237.0,,,
0276,cdot_cos,S,R-S,3,0,1714,-0.021680658849071454,-0.03610365293145073,-0.049749362601807685,7.575384020781159e-06,1118.0,0.008746601200098665,0.5012624604565091,0.8682120494376591,-4.598880484465395e-06,0.019,0.9999999999999999,488.7013493089792,0.014901424592643209,3,2026-10-08 01:16:17.798244,237.0,0.36801510824922096,0.3337227248880569,0.08447812839548192
0276,cdot_cos,T,S-T,4,0,1992,-0.005518707923401802,0.0034135310404569594,0.016161950925669653,0.9787596279050911,1118.0,0.01982298030633067,0.5024778522534546,1.004955704506924,-5.7065756182397904e-05,0.278,1.0000000000000002,-0.0431686932804635,0.019868566197309277,4,2026-10-08 01:16:18.076244,237.0,0.39875389565472846,0.043696086721344375,0.03984309031018706
0276,cdot_cos,P,T-P,5,1,2651,0.010790164783906743,6.299533278796594e-05,0.016308872707308547,0.9794715775267503,1079.0,0.03304162541716614,0.5036940988089578,1.1262942448026272,-0.00012601225564755692,0.659,1.0000000000000002,-0.05668792988822746,0.024835708269492728,5,2026-10-08 01:16:18.735244,237.0,0.5786015419998337,0.012540981886228368,0.020058642049826207
0276,cdot_cos,Q,P-Q,6,1,2761,-0.007518438506487831,-0.005686002000430334,-0.018308603290394576,0.012879706461182566,1079.0,0.03635199443237966,0.5037100917633567,1.2338327032048186,-4.1424434692065196e-05,0.11,0.9999999999999999,5.28906785110564,0.029802849841576794,6,2026-10-08 01:16:18.845243,237.0,0.12977165346780387,0.08798136359350756,0.03009426377466835
0276,cdot_cos,R,Q-R,7,1,2812,0.023252108987483967,0.03142317708053281,0.030770547493971796,0.9993199199645072,1079.0,0.0523975254077378,0.5049509389080948,1.3359746087538757,-0.00025678051991205977,0.051,1.0,-0.17355569228104983,0.03476999137016405,7,2026-10-08 01:16:18.896243,237.0,0.4322817697249084,0.19277865660696497,0.31461825441878716
0276,cdot_cos,S,R-S,8,1,2826,-0.02649222110308428,-0.046621998756620146,-0.04974433009056825,7.584424542159879e-06,1079.0,0.05601541740629008,0.5049509483253989,1.4282169590314553,-7.072593536288e-05,0.014,0.9999999999999998,19756.671719107067,0.039737132852589466,8,2026-10-08 01:16:18.910244,237.0,0.07203223480450106,0.7803902696727929,0.2584208570394486
0276,cdot_cos,T,S-T,9,1,3090,-0.003662447814352205,0.0023699694645110438,0.022829773288732074,0.995551173925013,1079.0,0.074248452958576,0.5061870552262748,1.5185611657992883,-0.00042825358258044804,0.264,1.0,-0.2892368345846243,0.044704275147002044,9,2026-10-08 01:16:19.174243,237.0,0.43393942177702416,0.07082531879739878,0.06906452860714363
0276,cdot_cos,P,T-P,10,2,3730,0.010243605514954198,5.815595368139173e-05,0.013906053329306403,0.9642821935473321,1118.0,0.09341118573131664,0.5073842656424964,1.6044899285958456,-0.000579262997299623,0.64,1.0,-0.1261343976573191,0.04967141958801708,10,2026-10-08 01:16:19.814244,237.0,0.7705179560284737,0.018717732840990577,0.029941769957407244
0276,cdot_cos,Q,P-Q,11,2,3860,-0.0075977895654693135,-0.006855543876900522,-0.01784139508042351,0.014366143738170484,1118.0,0.09820715099504394,0.5074021014093867,1.6828623891953627,-0.00016569234890117732,0.13,0.9999999999999997,23.187713258546808,0.05463856147670196,11,2026-10-08 01:16:19.944243,237.0,0.08241273005358496,0.10137680671848953,0.036892040490210026
0276,cdot_cos,R,Q-R,12,2,3903,0.023227265382252442,0.032542762247466,0.030825054947721756,0.999328643056573,1118.0,0.11976915547812392,0.5086427330068177,1.7619901140749703,-0.000847331188593918,0.043,1.0,-0.549428888563052,0.05960570291192727,12,2026-10-08 01:16:19.987243,237.0,0.44733216884129956,0.30758995438803316,0.5014419647227901
0276,cdot_cos,S,R-S,13,2,3919,-0.024931512980097638,-0.048203894514948976,-0.04815877836235008,1.104379842851841e-05,1118.0,0.1246598870724148,0.5086427467167476,1.8339375053430476,-0.0002155169370878295,0.016,0.9999999999999996,46084.42625510609,0.06457284421984019,13,2026-10-08 01:16:20.003244,237.0,0.0533104841617622,0.8760377167776664,0.30567072464317974
0276,cdot_cos,T,S-T,14,2,4189,-0.004592056398761683,0.002844235752058482,0.020339456581335954,0.9920013461837833,1118.0,0.14780236241500924,0.5098741764910648,1.9077744799454408,-0.001136661873094972,0.27,0.9999999999999998,-0.748028799707946,0.06953998792106346,14,2026-10-08 01:16:20.273243,237.0,0.444682445614241,0.08746652796739324,0.08571287163923869
0276,cdot_cos,P,T-P,15,3,4848,0.012413938638820121,0.0001149653316092846,0.017005995037581805,0.9825432989537197,1119.0,0.17189181217480715,0.5110937473663163,1.97945757357529,-0.001388136921050721,0.659,0.9999999999999999,-0.2061996174710985,0.07450713682985632,15,2026-10-08 01:16:20.932243,237.0,0.8343017615486337,0.022818142969224055,0.036554551987553724
0276,cdot_cos,Q,P-Q,16,3,4978,-0.0045830805923806886,-0.004147126369931432,-0.01699701923120081,0.017493225317725673,1119.0,0.17787667484844655,0.5111154594830437,2.044461841986732,-0.00037731557512669245,0.13,0.9999999999999994,46.55563336428727,0.07947427923500121,16,2026-10-08 01:16:21.062243,237.0,0.06863303939986878,0.12282133093956099,0.04603740518184155
0276,cdot_cos,R,Q-R,17,3,5027,0.02990603082166992,0.043872101996429436,0.03448911141405061,0.9997181685262058,1119.0,0.203825358219093,0.512356210322209,2.1124987775963167,-0.0017850855955890024,0.049,0.9999999999999991,-1.1346113788722996,0.08444142063181094,17,2026-10-08 01:16:21.111244,237.0,0.4544675062869861,0.3250818419655027,0.5295649667478869
0276,cdot_cos,S,R-S,18,3,5041,-0.020639287088489677,-0.04071142302769249,-0.05054531791015959,6.273057906733383e-06,1119.0,0.20973469536106581,0.5123562181072433,2.173743341832282,-0.0004404499819293811,0.014,0.999999999999999,172720.577023264,0.08940856158379128,18,2026-10-08 01:16:21.125243,237.0,0.04722329806228625,1.1895651623417318,0.42209551014091495
0276,cdot_cos,T,S-T,19,3,5647,0.16735396124995983,-0.7272677633074838,0.1879932483384495,1.0,1119.0,0.2371331827646615,0.5135971664110994,2.2387181506165894,-0.0022063224471260694,0.606,0.999999999999999,-1.4230024407216733,0.09437571356175838,19,2026-10-08 01:16:21.731244,237.0,0.44916311607291076,0.02768880265448335,0.04521202541847473
0276,cdot_cos,P,T-P,20,4,5967,0.027548593911748867,-0.001417207149080217,-0.13980536733821097,4.0751368777258536e-15,1098.0,0.24329352417829964,0.5135971664110994,2.2968763619756714,-0.0005333289792790373,0.32,0.9999999999999982,,0.09934286038543211,20,2026-10-08 01:16:22.051244,237.0,0.04341768808667198,0.01904359714556582,0.01925106691761918
0276,cdot_cos,Q,P-Q,21,4,6076,-0.002268366137754219,-0.0016497809456544152,-0.029816960049503086,0.0008523849787493167,1098.0,0.24932108493782362,0.5135982241074664,2.3536027482136808,-0.0005350718367840649,0.109,0.9999999999999976,-1.6477862262852532,0.10431000272324416,21,2026-10-08 01:16:22.160243,237.0,0.9967480588362849,0.16143218211689886,0.055298722564440246
0276,cdot_cos,R,Q-R,22,4,6125,0.04320565833444658,0.05189432184188989,0.0454740244722008,0.9999791334814471,1098.0,0.2784857398797836,0.5148389787597478,2.414808869656535,-0.0027735353720530855,0.049,0.9999999999999976,-1.8041145613703744,0.10927714395758102,22,2026-10-08 01:16:22.209243,237.0,0.44615917419364026,0.361465160945677,0.595197039631836
0276,cdot_cos,S,R-S,23,4,6141,-0.012562606576092481,-0.019200388895043163,-0.055768264910539066,1.8192602363292134e-06,1098.0,0.28474467071049997,0.5148389810168889,2.469081024598793,-0.00063516727254105,0.016,0.9999999999999973,947379.0389850214,0.11424428456136106,23,2026-10-08 01:16:22.225244,237.0,0.03450600272299967,1.1474092494649073,0.3911831769197738
0276,cdot_cos,T,S-T,24,4,6765,0.0930227748861786,-0.7575102972407731,0.10558538146227109,0.9999999999864377,1098.0,0.3152028358626606,0.5160795786660491,2.5282632787154475,-0.003291941865041676,0.624,0.9999999999999969,-2.1415279920116617,0.11921144141909772,24,2026-10-08 01:16:22.849244,237.0,0.4461705853191154,0.029613696649446644,0.04881116210282156
0276,cdot_cos,P,T-P,25,5,7065,0.011525151591223857,6.985552104311725e-05,-0.08149762329495475,4.089117235643431e-09,1118.0,0.3217025641290094,0.5160795786711216,2.5803979076668053,-0.0007457706692602813,0.3,0.9999999999999968,501956079.0799789,0.12417858979810112,25,2026-10-08 01:16:23.149244,237.0,0.03290444006330213,0.02196911004474722,0.021665760887829198
0276,cdot_cos,Q,P-Q,26,5,7174,-0.0069907509827811035,-0.005025238657263125,-0.018515902574004962,0.012269796543854584,1118.0,0.32838430188950896,0.5160947993524813,2.6315774692474867,-0.0007825194379335837,0.109,0.9999999999999959,-2.414397082827115,0.1291457324917312,26,2026-10-08 01:16:23.258244,237.0,0.9541235428527329,0.17770359779039746,0.061300346426601586
0276,cdot_cos,R,Q-R,27,5,7230,0.027160519759981478,0.036919662893379855,0.034151270742762585,0.9996946819478353,1118.0,0.36044194844731603,0.5173348176361326,2.6881505830956454,-0.003977439190206728,0.056,0.9999999999999958,-2.576510196982985,0.13411287381498954,27,2026-10-08 01:16:23.314244,237.0,0.44786631735872073,0.34528787810921,0.5724579742465549
0276,cdot_cos,S,R-S,28,5,7253,-0.019330950972881643,-0.03448281105254458,-0.046491470732863124,1.6395642503164074e-05,1118.0,0.3670565442377405,0.5173348379715296,2.737478668902593,-0.0008667575431625021,0.023,0.9999999999999951,152968.8188033749,0.13908001424306562,28,2026-10-08 01:16:23.337244,237.0,0.027629486248843864,0.8476257397733457,0.2875911213228021
0276,cdot_cos,T,S-T,29,5,7524,-0.005014635733578572,0.0030956140012846647,0.01431631523930307,0.9674840031552978,1118.0,0.39943273247688993,0.5185346991256206,2.792394830180446,-0.004469090606747096,0.271,0.9999999999999958,-3.0022915995757176,0.1440471637533419,29,2026-10-08 01:16:23.608243,237.0,0.4466164740784306,0.1207787773524084,0.11946932929575442
0276,cdot_cos,P,T-P,30,6,8183,0.008996580367486193,6.984870695359283e-05,0.014011216101064764,0.9651307494467343,1099.0,0.43251864156274583,0.5197314288691849,2.8466862938424833,-0.0049561986578099595,0.659,0.9999999999999957,-0.40703262677508545,0.14901433033110043,30,2026-10-08 01:16:24.267244,237.0,0.9063927281325866,0.03076980786291145,0.05020623533513794
0276,cdot_cos,Q,P-Q,31,6,8313,-0.009781680840916818,-0.009123587080655419,-0.01877826120840301,0.011538642768614394,1099.0,0.4399873392402072,0.51974573505688,2.893821809579024,-0.0011733295290962827,0.13,0.9999999999999942,264.4218857826363,0.15398147482330443,31,2026-10-08 01:16:24.397243,237.0,0.03979370112523506,0.16377761832118015,0.057451520595856835
0276,cdot_cos,R,Q-R,32,6,8348,0.01982704596367671,0.026960874058055865,0.029608726804593526,0.9991045320452083,1099.0,0.47510082232625267,0.5209843496192225,2.947132561745214,-0.005784366091860912,0.035,0.9999999999999938,-3.722737244461593,0.15894861525232087,32,2026-10-08 01:16:24.432243,237.0,0.4506091087636446,0.6068560827760185,1.0032423738870127
0276,cdot_cos,S,R-S,33,6,8370,-0.03314409382213308,-0.06464924206292583,-0.05297113978580979,3.5301730716806523e-06,1099.0,0.4824672650345285,0.5209843539952185,2.992827289153465,-0.0012698323962092052,0.022,0.9999999999999932,1031658.5493536991,0.16391575525727275,33,2026-10-08 01:16:24.454243,237.0,0.028575084014901685,0.9902125249315847,0.3348383049216298
0276,cdot_cos,T,S-T,34,6,8643,-0.00144453979647505,0.0008052706699158225,0.031699554025658036,0.9994542448948288,1099.0,0.5186701734232424,0.5222231440185402,3.045058060823015,-0.006523233585747152,0.273,0.9999999999999933,-4.240751935869925,0.1688829086291066,34,2026-10-08 01:16:24.727243,237.0,0.44693729541993665,0.13066229185352846,0.13261138603924494
0276,cdot_cos,P,T-P,35,7,9282,0.010023870202343346,4.3744900024798857e-05,0.011468409998818397,0.9380812294225898,1078.0,0.5538088763865551,0.5233856158798064,3.096391094672742,-0.006781222822141465,0.639,0.999999999999993,-0.2219315967900595,0.17385008482280073,35,2026-10-08 01:16:25.366244,237.0,0.9626699584848757,0.03381624029935764,0.054990145482492446
0276,cdot_cos,Q,P-Q,36,7,9412,-0.010607603848220046,-0.010108855049387695,-0.02063147405056339,0.007467797487229684,1078.0,0.5618873285258215,0.5233948689875254,3.140369261442145,-0.0016218356023332025,0.13,0.9999999999999909,557.5842599552066,0.17881723072700004,36,2026-10-08 01:16:25.496243,237.0,0.04153568490283539,0.17690505223090364,0.06214193953281838
0276,cdot_cos,R,Q-R,37,7,9444,0.01661239032019013,0.022973841987455747,0.027219994168410176,0.9984237648575616,1078.0,0.59980418996659,0.5246318366428188,3.191210928079405,-0.007924146152852168,0.032,0.9999999999999905,-5.094967943219455,0.18378437067242334,37,2026-10-08 01:16:25.528243,237.0,0.4514322724082464,0.7183715556558518,1.1849019200240174
0276,cdot_cos,S,R-S,38,7,9465,-0.01847041466601206,-0.1869322532302351,-0.035082804986202185,0.0002448488049636935,1078.0,0.607863108087796,0.5246321399545757,3.2340497600017812,-0.001750867580186375,0.021,0.9999999999999897,20352.915545017666,0.18875151011362365,38,2026-10-08 01:16:25.549243,237.0,0.029427084562437037,1.107394304043454,0.3837580057717124
0276,cdot_cos,T,S-T,39,7,9761,-0.001244040804753943,0.00044731961123359423,0.017226373861258117,0.9834169255955149,1078.0,0.6463147507364151,0.5258502199360843,3.283933620899865,-0.008673535954085475,0.296,0.9999999999999893,-5.6832625763420275,0.19371866956262623,39,2026-10-08 01:16:25.845243,237.0,0.45016692684117643,0.128945766701163,0.12990419813722673
0276,cdot_cos,P,T-P,40,8,10360,0.010661799642123942,9.050058368816447e-05,0.011905840446877885,0.9438364106069136,1098.0,0.6841990019748845,0.527018985617303,3.3331607864454025,-0.009063430059912479,0.599,0.9999999999999893,-0.333594759062782,0.1986858546609327,40,2026-10-08 01:16:26.444243,237.0,0.9578937809209759,0.03914715492499205,0.06324582844485709
0276,cdot_cos,Q,P-Q,41,8,10490,-0.00667291611111135,-0.006217418777573332,-0.017334715753235294,0.016169487924980443,1098.0,0.6932130423365556,0.5270390059747617,3.374696309372682,-0.002232523305979959,0.13,0.9999999999999859,341.1980414441038,0.2036530022185837,41,2026-10-08 01:16:26.574244,237.0,0.04690060410175254,0.1907272027824792,0.06933877201285449
0276,cdot_cos,R,Q-R,42,8,10537,0.02478027307955969,0.03670367524365381,0.03145318919067104,0.9994214494049999,1098.0,0.7337880746983291,0.5282762748883624,3.423621634444742,-0.010408222230803043,0.047,0.999999999999985,-6.607859322215148,0.20862014306787538,42,2026-10-08 01:16:26.621243,237.0,0.45588993102009095,0.524036971136314,0.8632985608887981
0276,cdot_cos,S,R-S,43,8,10550,-0.024766005608098683,-0.050847002817429945,-0.049546278687658374,7.948907994503484e-06,1098.0,0.7424725176233691,0.5282762847276313,3.4641393414640755,-0.0023046148742622043,0.013,0.9999999999999836,823598.5207317087,0.21358728115202333,43,2026-10-08 01:16:26.634243,237.0,0.029710573041336404,1.9223936248489513,0.6680340711569234
0276,cdot_cos,T,S-T,44,8,10839,-0.003926079615371047,0.0016185130642631643,0.020839925992727635,0.9928896104604398,1098.0,0.7837703089444018,0.5295051234448335,3.5123397181386213,-0.011327134794220836,0.289,0.9999999999999833,-7.342314165117935,0.21855444557153034,44,2026-10-08 01:16:26.923244,237.0,0.4508861769632188,0.1426357869996659,0.14289893190668765
0276,cdot_cos,P,T-P,45,9,11458,0.010604852725800378,8.077386102610773e-05,0.014530932341171424,0.9690466333250207,1059.0,0.824916002509176,0.530704108485325,3.560071477725631,-0.01189157824376877,0.619,0.9999999999999828,-0.4707677164316692,0.22352164584216822,45,2026-10-08 01:16:27.542243,237.0,0.9536430731388316,0.04082376183370186,0.06647123354567715
0276,cdot_cos,Q,P-Q,46,9,11568,-0.009592106570512663,-0.007464533770586519,-0.02019695929631304,0.008271123946519047,1059.0,0.8343101260945247,0.530714340701754,3.5994799036844203,-0.0028002995894815205,0.11,0.999999999999979,888.4955392934327,0.22848879311791107,46,2026-10-08 01:16:27.652243,237.0,0.038908681972042676,0.23837537767328534,0.08540112350317042
0276,cdot_cos,R,Q-R,47,9,11620,0.02095974355611469,0.02981456628271475,0.030551850126627353,0.9992837669604075,1059.0,0.8773585855972987,0.5319503632035553,3.64686807709011,-0.013233809870928398,0.052,0.9999999999999777,-8.441197685513384,0.2334559344243252,47,2026-10-08 01:16:27.704243,237.0,0.4545724013722715,0.5032048999911966,0.8278549904379621
0276,cdot_cos,S,R-S,48,9,11634,-0.027271446135117634,-0.051415215679989586,-0.04823118969123232,1.0855889515372254e-05,1059.0,0.8866434356936091,0.5319503766291944,3.6854604414415415,-0.0029415859261526624,0.014,0.9999999999999749,766609.60608385,0.23842307169134397,48,2026-10-08 01:16:27.718244,237.0,0.03023155457670234,1.8975192407815675,0.6632035783078868
0276,cdot_cos,T,S-T,49,9,11918,-0.0030949693490177834,0.0013306853953849876,0.02417647678609985,0.9967628675314301,1059.0,0.9304891243391826,0.5331828905250784,3.732280356837545,-0.01430477454674482,0.284,0.9999999999999746,-9.219521709686193,0.2433902417456862,49,2026-10-08 01:16:28.002244,237.0,0.45186882594891653,0.15365008753975157,0.15438622762525875
0276,cdot_cos,P,T-P,50,10,12517,0.011220363015187742,4.7168974707766315e-05,0.014315332364205525,0.9674766743221039,1078.0,0.973916685416188,0.5343788044517019,3.7786289005105993,-0.014844017050762603,0.599,0.9999999999999735,-0.4509041094121537,0.24835745478799137,50,2026-10-08 01:16:28.601243,237.0,0.9643246545363745,0.04482488135280652,0.0725001019649506
0276,cdot_cos,Q,P-Q,51,10,12626,-0.006055086303190726,-0.004546156613492501,-0.017275449318378468,0.016394459699387912,1078.0,0.9841893321998448,0.5343990665488219,3.8163728598840296,-0.0036102945347710616,0.109,0.9999999999999678,554.4205246627467,0.25332460355092257,51,2026-10-08 01:16:28.710243,237.0,0.04453051375119759,0.25535546103318707,0.09424446590510828
0276,cdot_cos,R,Q-R,52,10,12679,0.024470667468854554,0.033526794164150026,0.03052575377204528,0.9992793266517853,1078.0,1.0295841759214228,0.5356338702800637,3.8625109477318955,-0.01640175257439119,0.053,0.9999999999999661,-10.359102192504443,0.2582917450546207,52,2026-10-08 01:16:28.763244,237.0,0.45845936740328924,0.5212126989081289,0.8565064853127922
0276,cdot_cos,S,R-S,53,10,12698,-0.01982762021150794,-0.03625619725192784,-0.044298287680362494,2.7571670258624482e-05,1078.0,1.0394378782841065,0.5356339043442622,3.899473865330948,-0.003657949164797579,0.019,0.9999999999999625,374111.35400180606,0.26325888205510367,53,2026-10-08 01:16:28.782243,237.0,0.030688550543796315,1.3861135156749693,0.5186159138254569
0276,cdot_cos,T,S-T,54,10,12976,-0.01028293791156751,0.005068284764312764,0.00954468229994043,0.9056882788188566,1078.0,1.0822564895170717,0.5367526812626056,3.9443107423733834,-0.016294726620654735,0.278,0.9999999999999615,-11.295171761827959,0.26822605795601523,54,2026-10-08 01:16:29.060243,237.0,0.46046735560077073,0.16094467494039513,0.1540237814135437
0276,cdot_cos,P,T-P,55,11,13595,0.013045975789466566,7.706394352978024e-05,0.023328913701034078,0.996045554272618,1118.0,1.1289231175509662,0.5379826470319149,3.9897862920396787,-0.01850126983813234,0.619,0.9999999999999604,-1.793987501551887,0.2731932902797615,55,2026-10-08 01:16:29.679244,237.0,0.8875730776108831,0.04637952613645634,0.07539035223569393
0276,cdot_cos,Q,P-Q,56,11,13705,-0.004792801398287692,-0.0034464979444880843,-0.017838777187754257,0.014374931673758827,1118.0,1.1396743428740046,0.538000394552998,4.026026549353446,-0.004373047023270521,0.11,0.9999999999999524,796.0673915374518,0.27816044084334496,56,2026-10-08 01:16:29.789243,237.0,0.0395278314426005,0.2653052678944173,0.09773841202762186
0276,cdot_cos,R,Q-R,57,11,13760,0.027993535484710938,0.03724182938951548,0.03278633688299863,0.99957811753967,1118.0,1.187290276487738,0.53923425104178,4.0711295730616905,-0.019858401263552466,0.055,0.99999999999995,-12.550369010554617,0.2831275826733628,57,2026-10-08 01:16:29.844243,237.0,0.45850294426302257,0.5271473442783488,0.8657442475224254
0276,cdot_cos,S,R-S,58,11,13782,-0.017819068153307086,-0.03129735832279961,-0.04581260363801802,1.9257570150452125e-05,1118.0,1.197660550744623,0.5392342748083047,4.106686146320363,-0.004432736027508987,0.022,0.9999999999999452,649050.1018351141,0.288094719172875,58,2026-10-08 01:16:29.866244,237.0,0.03080919124898425,1.320275247488567,0.4713761025856805
0276,cdot_cos,T,S-T,59,11,14414,-0.00110002939955173,-0.010510259409366845,0.016719038753755355,0.9813377181285082,1118.0,1.245382387377235,0.5404451483019802,4.15123821102015,-0.020887274159637176,0.632,0.999999999999944,-13.588982018411567,0.2930619663104298,59,2026-10-08 01:16:30.498244,237.0,0.45485429279132367,0.07558436366411168,0.07550923517818352
0276,cdot_cos,P,T-P,60,12,14713,0.013513805453758944,8.156972645987175e-05,0.014613834853310675,0.9696305766936613,1080.0,1.2931991864160601,0.5416411075598269,4.195534292513732,-0.021738693584016068,0.299,0.9999999999999394,-0.7119134023945648,0.29802915495539384,60,2026-10-08 01:16:30.797244,237.0,0.9615909943043773,0.0986803515732913,0.15992240481212439
0276,cdot_cos,Q,P-Q,61,12,14823,-0.005131311692191481,-0.0038710567740628627,-0.018645117145950425,0.0119041484097685,1080.0,1.3043932376180631,0.5416557873915292,4.230467281176907,-0.0052073645334216635,0.11,0.9999999999999314,1126.1252435178992,0.30299630735694627,61,2026-10-08 01:16:30.907244,237.0,0.04181058738528149,0.27704522455198305,0.10176410183639098
0276,cdot_cos,R,Q-R,62,12,14875,0.03393684709817779,0.04471924757642199,0.039068158790369276,0.9999047731734793,1080.0,1.3541491358174964,0.5428885787495976,4.274709296239084,-0.02367911534183708,0.052,0.9999999999999278,-14.98367966932994,0.3079634486065231,62,2026-10-08 01:16:30.959244,237.0,0.4583665041778146,0.5830082093065745,0.9568441961429475
0276,cdot_cos,S,R-S,63,12,14889,-0.02135279516468448,-0.03812684416232167,-0.055289642262862274,2.037784735551617e-06,1080.0,1.3650260913859469,0.5428885812614702,4.309044882339649,-0.005294462420234649,0.014,0.9999999999999212,7319102.461771682,0.3129305823780574,63,2026-10-08 01:16:30.973243,237.0,0.0310414917762036,2.12105701074836,0.7769253977464625
0276,cdot_cos,T,S-T,64,12,15173,-0.008992298206117542,0.004470257243269639,0.012360496958566936,0.9492826137089072,1080.0,1.4135387321184505,0.5440584744599779,4.352468149801169,-0.024119856200664744,0.284,0.9999999999999201,-16.09154904434329,0.3178977747035761,64,2026-10-08 01:16:31.257244,237.0,0.458179790658716,0.17491423337879616,0.17081915750881554
0276,cdot_cos,P,T-P,65,13,15793,0.013174582116369267,-8.122045499632995e-06,0.022166880322486808,0.9947982799669775,1117.0,1.464377375945103,0.5452839393298331,4.396220049187974,-0.02616854790310299,0.62,0.9999999999999175,-1.671766978257256,0.322865046295527,65,2026-10-08 01:16:31.877243,237.0,0.9246977774656324,0.050581284930827045,0.08199781262363322
0276,cdot_cos,Q,P-Q,66,13,15921,-0.00410848548695033,-0.0036535845049405114,-0.0172830676033196,0.0163653696492722,1117.0,1.476259525432676,0.5453040948381364,4.430071872031101,-0.006249435059690068,0.128,0.9999999999999045,988.2714215744471,0.32783220494473736,66,2026-10-08 01:16:32.005243,237.0,0.04128127958467328,0.24870385946270443,0.09282929287166355
0276,cdot_cos,R,Q-R,67,13,15968,0.02967329289417534,0.04144777989356187,0.03378177838112567,0.9996667490615333,1117.0,1.5280455639675554,0.5465349954990099,4.473582217562591,-0.027813971918269134,0.047,0.9999999999999006,-17.519315363171476,0.3327993448854611,67,2026-10-08 01:16:32.052243,237.0,0.4605595561099403,0.6717851794709314,1.1018306071250936
0276,cdot_cos,S,R-S,68,13,15982,-0.016761686291356104,-0.03029569322313897,-0.04643497918553144,1.6616627891514805e-05,1117.0,1.5394073323029436,0.5465350159545608,4.506843677973487,-0.006230603641897957,0.014,0.9999999999998923,1055135.027211405,0.3377664771925254,68,2026-10-08 01:16:32.066243,237.0,0.031301494364487585,1.9929446193368243,0.811554881099154
0276,cdot_cos,T,S-T,69,13,16271,-0.010812762379407112,0.005196142130200044,0.005948923911948992,0.8037493766650935,1117.0,1.5838480133089865,0.5475242696444328,4.548078642303818,-0.02480455258162195,0.289,0.9999999999998893,-18.77571863505203,0.3427336793012362,69,2026-10-08 01:16:32.355244,237.0,0.472928013593042,0.16831052424944976,0.15377398271987172
0276,cdot_cos,P,T-P,70,14,16910,0.012866278143809558,7.396472553011592e-05,0.02367904052321667,0.996359302319207,1118.0,1.6366908153191255,0.548750065527299,4.591172960427531,-0.03039839470510529,0.639,0.9999999999998854,-4.5634368671590115,0.3477009767592927,70,2026-10-08 01:16:32.994244,237.0,0.8319210938504141,0.05104589279929541,0.08269609078269018
0276,cdot_cos,Q,P-Q,71,14,17039,-0.004060246187719926,-0.0036495008128132837,-0.016926524331529483,0.017782703944339513,1118.0,1.649084664306486,0.5487719378144754,4.624035154160667,-0.007274055711920652,0.129,0.9999999999998695,1057.243753552503,0.3526681382292215,71,2026-10-08 01:16:33.123244,237.0,0.04162659840594561,0.25622415922908853,0.09607634873922877
0276,cdot_cos,R,Q-R,72,14,17086,0.031928288013942895,0.04509493497142802,0.03598853420166282,0.9998024423629331,1118.0,1.7027966484002304,0.550001364552654,4.666916965952936,-0.03214247570810837,0.047,0.999999999999864,-20.22765507201366,0.3576352777121912,72,2026-10-08 01:16:33.170244,237.0,0.4613061489159448,0.6967724026622644,1.1428081722073262
0276,cdot_cos,S,R-S,73,14,17100,-0.016644514277024076,-0.03028572043629855,-0.04857280229096697,1.001161984923053e-05,1118.0,1.714581270156739,0.5500013768606076,4.699214458817717,-0.007189987935739495,0.014,0.9999999999998525,2027346.599958151,0.3626024083401709,73,2026-10-08 01:16:33.184243,237.0,0.03110305649368061,2.139669987756078,0.8417586968934655
0276,cdot_cos,T,S-T,74,14,17389,-0.00924538923913306,0.004401046023595713,0.007399125037891016,0.8524053653836416,1118.0,1.7627074080574006,0.5510490723857695,4.740303991584853,-0.029864513187405156,0.289,0.999999999999849,-21.64228509820269,0.3675696195603486,74,2026-10-08 01:16:33.473243,237.0,0.4680189756076864,0.1776887218731481,0.1665264287220127
0276,cdot_cos,P,T-P,75,15,18028,0.011549151237365978,3.908306203225978e-05,0.02079454047649904,0.992813268307859,1098.0,1.8172853513994185,0.5522687724823818,4.782788545092324,-0.03485071715272153,0.639,0.999999999999844,-4.088057366860435,0.3725369405263013,75,2026-10-08 01:16:34.112243,237.0,0.8666906163648402,0.05252925946072746,0.08541149192804058
0276,cdot_cos,Q,P-Q,76,15,18137,-0.007410367117736647,-0.00543603921518958,-0.018959518355102626,0.011058827719586464,1098.0,1.8298398016482103,0.5522823550617978,4.814686743612103,-0.008166919747765723,0.109,0.9999999999998248,1964.5603819241123,0.3775040986243487,76,2026-10-08 01:16:34.221244,237.0,0.0381090873666869,0.3124159596848424,0.11517844264946568
0276,cdot_cos,R,Q-R,77,15,18192,0.02285826416407656,0.03118318858874567,0.03026863128181321,0.9992340792307908,1098.0,1.8853920306107141,0.5535093014227069,4.85702521948541,-0.036793345380528614,0.055,0.9999999999998185,-23.331440187451463,0.38247124029723467,77,2026-10-08 01:16:34.276243,237.0,0.4593087238030845,0.6159769681824301,1.0100405265909798
0276,cdot_cos,S,R-S,78,15,18215,-0.019481975398123488,-0.035541095517924746,-0.04234023956220005,4.385242100437562e-05,1098.0,1.8975972681482776,0.5535093552543263,4.888463079972052,-0.008231201271714814,0.023,0.9999999999998035,530583.0371718348,0.38743837213708243,78,2026-10-08 01:16:34.299244,237.0,0.031117500580529124,1.4775250079306455,0.5306625016331921
0276,cdot_cos,T,S-T,79,15,18826,-0.0007363592194550992,-0.005359587679403379,0.01874561617866839,0.9883727800120692,1098.0,1.9533581809755238,0.5547223242349508,4.930480681588197,-0.038260396340682276,0.611,0.9999999999998008,-24.75677082319672,0.39240570119270013,79,2026-10-08 01:16:34.910244,237.0,0.45618188904565343,0.08948139196572057,0.09126172312151598
0276,cdot_cos,P,T-P,80,16,19126,0.01009575622116051,3.86821290044415e-05,0.010832115440615608,0.9287213139467622,1098.0,2.006943529130388,0.5558614931463897,4.971777275024886,-0.03779234802679475,0.3,0.9999999999997891,0.4108682296257131,0.39737292848692335,80,2026-10-08 01:16:35.210243,237.0,0.987691637634277,0.11174339399353787,0.17861782718288088
0276,cdot_cos,Q,P-Q,81,16,19235,-0.006036862078437666,-0.004429679335966337,-0.016132618299598174,0.0213853772890413,1098.0,2.0204042173716465,0.5558877175663866,5.002990456342207,-0.009654077948879241,0.109,0.9999999999997687,1072.9796914956653,0.40234008905836677,81,2026-10-08 01:16:35.319244,237.0,0.05422293957714775,0.3250833022288665,0.12349255267209593
0276,cdot_cos,R,Q-R,82,16,19287,0.03210440290833513,0.04044299488664096,0.038141264986772797,0.9998813815391803,1098.0,2.077811689016281,0.5571135001777918,5.044878326756882,-0.04187394756831467,0.052,0.9999999999997617,-26.28514168796843,0.4073072297352572,82,2026-10-08 01:16:35.371244,237.0,0.4632682307431747,0.6734495038455562,1.1039898393198933
0276,cdot_cos,S,R-S,83,16,19303,-0.02344380451316283,-0.03948883126347088,-0.055548207421497964,1.9166588395285563e-06,1098.0,2.0904429657715844,0.5571135025268159,5.07554658388522,-0.009370918530648396,0.016,0.9999999999997446,13836822.375065152,0.41227435765807335,83,2026-10-08 01:16:35.387244,237.0,0.03116374750289324,2.168825439480146,0.7894547972064625
0276,cdot_cos,T,S-T,84,16,19605,-0.008591466581739867,0.0035763963871668684,0.014852337931422963,0.9712516182672438,1098.0,2.1472141030796457,0.5583035216087265,5.11693731732536,-0.042794921358417004,0.302,0.9999999999997409,-28.086946953913383,0.41724159493195634,84,2026-10-08 01:16:35.689243,237.0,0.45793532249789454,0.19013721634697647,0.1879838983710638
0276,cdot_cos,P,T-P,85,17,20224,0.010718250760498732,7.310152532273729e-05,0.0193097173422386,0.9898129936608809,1098.0,2.205285844445158,0.5595155942297944,5.158479982555491,-0.04493563475153692,0.619,0.9999999999997338,-1.7661593504471536,0.4222089618304144,85,2026-10-08 01:16:36.308243,237.0,0.9534774066151891,0.05803782856974478,0.09381541416076336
0276,cdot_cos,Q,P-Q,86,17,20353,-0.006079087403032105,-0.0056351933569319754,-0.016797338163530837,0.018325448004967385,1098.0,2.2190649348489897,0.5595380279611798,5.188943451124761,-0.010838087927078494,0.129,0.9999999999997065,1519.923112148326,0.42717613311908464,86,2026-10-08 01:16:36.437243,237.0,0.043020217930897914,0.2827897912388379,0.10681465429326757
0276,cdot_cos,R,Q-R,87,17,20402,0.0280936394105114,0.042450847018317056,0.034172726813543504,0.9996962301060143,1098.0,2.2782456105847784,0.5607614698502248,5.230436061246223,-0.04728854071615464,0.049,0.9999999999996974,-29.793366661271445,0.432143272360835,87,2026-10-08 01:16:36.486243,237.0,0.4626384464683023,0.7371129474194049,1.2077688925671157
0276,cdot_cos,S,R-S,88,17,20416,-0.020711456703227493,-0.042497986869770216,-0.04880509611373889,9.475346342673726e-06,1098.0,2.2913020036960914,0.560761481442808,5.260410260007537,-0.010600334269460205,0.014,0.9999999999996768,3164799.91812469,0.4371103975322646,88,2026-10-08 01:16:36.500243,237.0,0.03139701644977811,2.4851084015156912,0.9325995079509295
0276,cdot_cos,T,S-T,89,17,20703,-0.009845363464697244,0.00409229949907434,0.01086609323853025,0.9292525524772035,1098.0,2.3478286458272177,0.5618980518247286,5.300936894980149,-0.04656579505945019,0.287,0.999999999999671,-31.64384833714785,0.4420776405958485,89,2026-10-08 01:16:36.787244,237.0,0.4619226049198483,0.20311257672989833,0.19695694122343677
0276,cdot_cos,P,T-P,90,18,21322,0.01285881251691558,7.136179297366587e-05,0.022704175981612826,0.9954173730116892,898.0,2.407888622739053,0.5631148279585501,5.34217767158205,-0.05068856251679758,0.619,0.9999999999996628,-3.388271139407837,0.4470450357743512,90,2026-10-08 01:16:37.406244,237.0,0.9218845677718416,0.05948858270031451,0.09702742635191484
0276,cdot_cos,Q,P-Q,91,18,21431,-0.009316924796299276,-0.009143728761869052,-0.022175737313214858,0.005190869138616744,898.0,2.421475511210207,0.5631211711844285,5.371835138302726,-0.011644406560308261,0.109,0.9999999999996307,6155.252343946093,0.45201220166357076,91,2026-10-08 01:16:37.515244,237.0,0.0349778746867018,0.34137246940928906,0.1246503529463677
0276,cdot_cos,R,Q-R,92,18,21486,0.017669212399034448,0.038727900712235405,0.026986137195333722,0.9983340867671289,898.0,2.482307821070278,0.564340746098011,5.412967840347452,-0.05290521043706462,0.055,0.9999999999996205,-33.832119222224065,0.45697934347868213,92,2026-10-08 01:16:37.570244,237.0,0.4584515920064555,0.6755677870972754,1.106041997455835
0276,cdot_cos,S,R-S,93,18,21508,-0.014085653089725215,-0.05129432698743518,-0.031754865488759665,0.0005386514173224786,898.0,2.4957879677909074,0.5643414039112628,5.4423129788006435,-0.011901196156338879,0.022,0.9999999999995958,62333.82220728641,0.4619464704392466,93,2026-10-08 01:16:37.592243,237.0,0.03189298604918052,1.5030699973940647,0.6127339418467891
0276,cdot_cos,T,S-T,94,18,21781,-0.00781520064839829,-0.0006219438143030411,0.006270452441326926,0.8154917651977973,898.0,2.548442900955617,0.5653370398149516,5.481147528667752,-0.04708023377416001,0.273,0.999999999999587,-35.33323525947638,0.46691371857807124,94,2026-10-08 01:16:37.865243,237.0,0.47368412097917156,0.20985156874177488,0.19287521305754388
0276,cdot_cos,P,T-P,95,19,22220,0.028127610901555262,-0.0011438098841282795,0.03594281154995355,0.999800290364118,1278.0,2.6103669243239165,0.5665569787171992,5.522116004479135,-0.05658858110498684,0.439,0.9999999999995776,-7.7941176507355205,0.47188105286806636,95,2026-10-08 01:16:38.304243,237.0,0.8453319393935632,0.08615156640821091,0.14105700083895126
0276,cdot_cos,Q,P-Q,96,19,22310,-0.006372431032788151,-0.0030597891472092056,-0.03450004193434341,0.0002811025297893549,1278.0,2.624083976262026,0.5665573216009123,5.551107187206922,-0.012718971213651403,0.09,0.9999999999995447,127943.11370491082,0.47684821278633477,96,2026-10-08 01:16:38.394243,237.0,0.03177270575816876,0.423691698021426,0.15241168820121745
0276,cdot_cos,R,Q-R,97,19,22361,0.03242180969044357,0.025919844543950268,0.038794240723231725,0.9998983867552714,1278.0,2.686631429967773,0.5677765736615161,5.591952554730007,-0.05880211446873111,0.051,0.9999999999995355,-37.79623979659973,0.4818153535387193,97,2026-10-08 01:16:38.445244,237.0,0.4567136166073178,0.7486332988789038,1.226420660897002
0276,cdot_cos,S,R-S,98,19,22375,-0.027090874230660752,-0.027175974221823957,-0.05951268392110433,7.490149914690607e-07,1278.0,2.7004445727476742,0.5677765745745413,5.620703151978392,-0.013172733881664723,0.014,0.9999999999995092,49976035.7520997,0.48678247562953286,98,2026-10-08 01:16:38.459244,237.0,0.03130659831070467,2.7404279371264932,0.9866530557072206
0276,cdot_cos,T,S-T,99,19,22679,-0.00474314988843698,0.005709529758114242,0.022347724342223773,0.9950154278447414,1278.0,2.763363412207315,0.5689890579204994,5.661371466414625,-0.06081529960078403,0.304,0.9999999999995046,-39.2933774125163,0.49174975329343107,99,2026-10-08 01:16:38.763244,237.0,0.45685112905806463,0.206360264340043,0.206969866643555
0276,cdot_cos,P,T-P,100,20,23498,0.011460350907558038,8.050984963276955e-05,0.01620350079599502,0.9789633837257243,1078.0,2.8259116134664204,0.5701811743395238,5.7018136685306775,-0.06180350681977359,0.819,0.9999999999994946,-0.8289519406152404,0.49671732054223616,100,2026-10-08 01:16:39.582243,237.0,0.9841376527028443,0.047318281750410786,0.07637143010879784
0276,cdot_cos,Q,P-Q,101,20,23627,-0.0055850916627764825,-0.005325151853756722,-0.01704544257033452,0.01729706753153144,1078.0,2.840870757714488,0.5702022302829023,5.73046374152774,-0.014985833169339638,0.129,0.9999999999994483,2223.4897201596473,0.5016845033139148,101,2026-10-08 01:16:39.711244,237.0,0.04397522623921788,0.30671325196288357,0.11596235851215066
0276,cdot_cos,R,Q-R,102,20,23676,0.027037567028540592,0.04189350444662268,0.03262265869131707,0.9995614377382922,1078.0,2.9050436324728444,0.5714185755160136,5.771047014554163,-0.06513926327716825,0.049,0.9999999999994331,-41.232890747259376,0.5066516414590594,102,2026-10-08 01:16:39.760243,237.0,0.46304009827772713,0.7997879319442516,1.3096505052725822
0276,cdot_cos,S,R-S,103,20,23689,-0.02032037980387483,-0.04385985638998109,-0.047357946832415426,1.3351968225815007e-05,1078.0,2.9192499750450245,0.5714185917580141,5.799267624630431,-0.014616984297479471,0.013,0.9999999999993988,3110594.59149197,0.5116187594433609,103,2026-10-08 01:16:39.773243,237.0,0.031542822924088165,2.94289296980036,1.0927955824753939
0276,cdot_cos,T,S-T,104,20,23977,-0.007808596312135829,0.0027833693415188127,0.012511783491739002,0.9509813068368058,1078.0,2.9815588496876537,0.5725750205983785,5.83914469757113,-0.0649080029670489,0.288,0.9999999999993888,-43.488208624858714,0.5165860409506084,104,2026-10-08 01:16:40.061243,237.0,0.4607938156163606,0.2206451184410132,0.216350259175796
0276,cdot_cos,P,T-P,105,21,24576,0.012440250400617891,6.423275095175539e-05,0.020248846712753718,0.9918291398611416,1078.0,3.046341563267048,0.5737802773279289,5.879500654664042,-0.06888883776676617,0.599,0.9999999999993752,-3.3028936508840085,0.5215535172983005,105,2026-10-08 01:16:40.660243,237.0,0.9438515755471009,0.06669176233394353,0.10815144170182697
0276,cdot_cos,Q,P-Q,106,21,24685,-0.005984763505687685,-0.0045110173407231675,-0.018425013906305576,0.01253361407195463,1078.0,3.061455580963718,0.573795502423095,5.907588937068905,-0.016284867881902053,0.109,0.9999999999993257,3455.08315784893,0.5265206921108104,106,2026-10-08 01:16:40.769243,237.0,0.03954815606929081,0.3709538456915179,0.13866071281348605
0276,cdot_cos,R,Q-R,107,21,24739,0.024947723167067105,0.03495419888781615,0.03093248667275479,0.9993455098653583,1078.0,3.127209501627799,0.5750089958223524,5.9479420068464615,-0.07173275300947415,0.054,0.9999999999993103,-45.69277851985049,0.5314878333049757,107,2026-10-08 01:16:40.823244,237.0,0.46163597576604465,0.7438463938376298,1.21766519748298
0276,cdot_cos,S,R-S,108,21,24763,-0.017245803759405518,-0.03251022553915151,-0.04219352692647262,4.540395752497985e-05,1078.0,3.141790991498182,0.5750090509354235,5.97567206372561,-0.016113842320369286,0.024,0.9999999999992709,1009178.2143892166,0.5364549560931959,108,2026-10-08 01:16:40.847244,237.0,0.0316941512266735,1.5264124659705631,0.6075620779326293
0276,cdot_cos,T,S-T,109,21,25035,-0.009865982567157185,0.004872464147021954,0.0073798211922483335,0.851828852617742,1078.0,3.200477299994386,0.5760427039667884,6.014065106552156,-0.06556962291044646,0.272,0.9999999999992573,-47.84563009966348,0.5414222411757906,109,2026-10-08 01:16:41.119244,237.0,0.4703640259954705,0.23011772282895707,0.2157584871183968
0276,cdot_cos,P,T-P,110,22,25654,0.012709461520791103,5.8148184078259715e-05,0.022575444087948288,0.9952760755157302,1078.0,3.2669750327171347,0.5772495803116924,6.054247506907348,-0.07570633689774413,0.619,0.9999999999992424,-8.399132214414092,0.546389763369346,110,2026-10-08 01:16:41.738244,237.0,0.8746817395341104,0.06617741706127195,0.10742767806582992
0276,cdot_cos,Q,P-Q,111,22,25763,-0.006008627082997753,-0.004532203746557034,-0.018718088603788856,0.011702433758403663,1078.0,3.2824049423162407,0.5772637652825905,6.081854295157716,-0.01778901420390802,0.109,0.9999999999991867,4083.0060991907635,0.5513569413869757,111,2026-10-08 01:16:41.847244,237.0,0.03855029287162167,0.37946863908225914,0.1415588036615225
0276,cdot_cos,R,Q-R,112,22,25816,0.02617055772571332,0.036299456866970704,0.03217918480871107,0.9995128575929876,1078.0,3.3496991960370672,0.5784748408435936,6.122005455453676,-0.0785021899087127,0.053,0.999999999999169,-50.13161660575373,0.5563240818390071,112,2026-10-08 01:16:41.900243,237.0,0.4614439539316754,0.7756208809849391,1.2697029003929536
0276,cdot_cos,S,R-S,113,22,25836,-0.020775298095475347,-0.03832223367533341,-0.04694585582118867,1.4721779654795936e-05,1078.0,3.3646207557006442,0.5784748586745576,6.149275291862577,-0.017622550624900885,0.02,0.9999999999991245,3414265.1598613565,0.5612911999928992,113,2026-10-08 01:16:41.920243,237.0,0.031598550536742306,2.019084783488301,0.74607798317885
0276,cdot_cos,T,S-T,114,22,26113,-0.007210240071808291,0.0035528230641505695,0.013565058023667056,0.9613918525049213,1078.0,3.4304625873765993,0.5796388544348146,6.188852596238193,-0.07863596592426647,0.277,0.999999999999112,-52.41721437705015,0.5662585023218963,114,2026-10-08 01:16:42.197243,237.0,0.46029068428441805,0.24132713087748628,0.23769614323449467
0276,cdot_cos,P,T-P,115,23,26732,0.013121849961672547,0.00010811950092838463,0.020332090033480837,0.99198748135154,1078.0,3.4983159862067716,0.5808389657127897,6.228807299370343,-0.0825675521748824,0.619,0.9999999999990953,-3.2760180849640776,0.5712260609052856,115,2026-10-08 01:16:42.816243,237.0,0.9534992869507879,0.06762413497243489,0.10961776870787138
0276,cdot_cos,Q,P-Q,116,23,26861,-0.005200799517963948,-0.004971846311135723,-0.018322649479636494,0.012837451391134942,1078.0,3.5141812664724736,0.5808544902890382,6.255997986889043,-0.019538767297011293,0.129,0.9999999999990328,4059.935927965008,0.5761932574200844,116,2026-10-08 01:16:42.945244,237.0,0.03972271020577626,0.3282335224636945,0.12298666872637207
0276,cdot_cos,R,Q-R,117,23,26910,0.027362934374052062,0.04220958053147457,0.03256373389201601,0.9995552729160401,1078.0,3.583000235002405,0.5820627778913683,6.2959752998929615,-0.0857076159172562,0.049,0.9999999999990126,-54.76249900491042,0.5811603947035971,117,2026-10-08 01:16:42.994244,237.0,0.46207411645465224,0.8581676381978838,1.4044687455087999
0276,cdot_cos,S,R-S,118,23,26923,-0.015516014937593912,-0.03157443298853448,-0.04287894931164597,3.8596475881011295e-05,1078.0,3.5982816950158663,0.5820628245288466,6.3228244344819675,-0.01925715985056149,0.013,0.9999999999989622,1424829.5245620646,0.5861275052443629,118,2026-10-08 01:16:43.007244,237.0,0.03172379357379529,2.944520464476737,1.1754969241124171
0276,cdot_cos,T,S-T,119,23,27211,-0.008194561116296309,0.002907626441180877,0.007321453821297603,0.8500743810904814,1078.0,3.6595577670788,0.5830896419396812,6.360760770014501,-0.07798673790001048,0.288,0.9999999999989442,-57.19573648611636,0.591094830569054,119,2026-10-08 01:16:43.295244,237.0,0.47091797506782657,0.22639130291224255,0.2127641391074088
0276,cdot_cos,P,T-P,120,24,27810,0.010557509587894554,7.661087707574016e-05,0.01875207070419086,0.9883903464991335,1098.0,3.728683085493318,0.5842826271110645,6.40049938201435,-0.0894836719410731,0.599,0.9999999999989251,-9.637113953169498,0.5960624093259937,120,2026-10-08 01:16:43.894243,237.0,0.8794304445382961,0.07154465069065206,0.11540119935645737
0276,cdot_cos,Q,P-Q,121,24,27920,-0.005915190892395426,-0.004369392506457927,-0.01647270048028998,0.019762086856423222,1098.0,3.745268258606201,0.5843064698911149,6.427375423667292,-0.02171844719309818,0.11,0.9999999999988551,2842.1696045806384,0.6010295951873719,121,2026-10-08 01:16:44.004243,237.0,0.04414970834284956,0.3949283578298157,0.150774301026211
0276,cdot_cos,R,Q-R,122,24,27972,0.030661204085816,0.03911361521930312,0.03657639497821143,0.9998281309131116,1098.0,3.8155673242158774,0.5855122362359566,6.467198335117063,-0.09304895203956165,0.052,0.9999999999988339,-59.15781706100587,0.6059967346648213,122,2026-10-08 01:16:44.056243,237.0,0.46459409516532374,0.826009070961185,1.3519051078783895
0276,cdot_cos,S,R-S,123,24,27988,-0.021714221567155436,-0.037107575850262774,-0.05237542565297144,4.065475103201912e-06,1098.0,3.8311732019861644,0.5855122411367403,6.493649207912791,-0.02089088249100097,0.016,0.9999999999987772,14723781.835767059,0.6109638450858811,123,2026-10-08 01:16:44.072243,237.0,0.03161745235102537,2.6539512109577665,0.9753673606429369
0276,cdot_cos,T,S-T,124,24,28270,-0.0067042634820379775,0.003700743750092189,0.015009958085117459,0.9722765071732886,1098.0,3.900493762966526,0.5866837993016761,6.533038612319172,-0.09374890022226744,0.282,0.9999999999987627,-62.188988913969354,0.6159311812946638,124,2026-10-08 01:16:44.354244,237.0,0.45970913441540406,0.24802436344582268,0.24581759212894166
0276,cdot_cos,P,T-P,125,25,28908,0.011909209546894665,8.531910200939594e-05,0.018613473028932643,0.9880073136595813,1079.0,3.9710589429696084,0.5878733080338759,6.572627875591589,-0.0970755346830655,0.638,0.9999999999987413,-2.7966456830005626,0.6208988321999186,125,2026-10-08 01:16:44.992243,237.0,0.9663120000901178,0.06829755153888857,0.1106037304123549
0276,cdot_cos,Q,P-Q,126,25,29018,-0.006340019269688495,-0.004801644193076384,-0.01824922881658316,0.013059843960547286,1079.0,3.9876414387301478,0.5878890245590246,6.599042853694048,-0.023064610273136832,0.11,0.9999999999986626,4709.115005380564,0.6258660218640553,126,2026-10-08 01:16:45.102243,237.0,0.04040296295101253,0.4015695626541703,0.15074996145944894
0276,cdot_cos,R,Q-R,127,25,29070,0.03163571177455352,0.041819257015411414,0.03797573104424202,0.99987663605006,1079.0,4.059404246753526,0.5890917654220165,6.638732017171133,-0.10083426117681792,0.052,0.9999999999986376,-64.6603547751966,0.6308331611066988,127,2026-10-08 01:16:45.154243,237.0,0.4624290365927061,0.8433993895703643,1.3800540004495787
0276,cdot_cos,S,R-S,128,25,29084,-0.02215553999267968,-0.03936611153458262,-0.053791251767233206,2.906591191052394e-06,1079.0,4.075354975245466,0.5890917689167839,6.664817547225382,-0.02265674748601031,0.014,0.9999999999985746,22369875.604284912,0.6358002669718997,128,2026-10-08 01:16:45.168243,237.0,0.03172919826089575,3.0825045143213017,1.139337749424271
0276,cdot_cos,T,S-T,129,25,29368,-0.008094203354347783,0.003985125254774541,0.014061336638331897,0.9655283022688755,1079.0,4.145714373154522,0.5902521829774391,6.703981077355033,-0.10091346291272628,0.284,0.9999999999985575,-67.43861357775502,0.6407676212546046,129,2026-10-08 01:16:45.452243,237.0,0.46048113014755054,0.2508092224815064,0.24774435883470655
0276,cdot_cos,P,T-P,130,26,29987,0.011250298948590145,6.252569198279394e-05,0.019344502302937928,0.9898957853941711,1098.0,4.217814613614961,0.5914408403912131,6.743468285507158,-0.10510828950186864,0.619,0.999999999998534,-3.5290459139303683,0.6457352963127694,130,2026-10-08 01:16:46.071244,237.0,0.960876327711557,0.07220575858139033,0.11647857909602415
0276,cdot_cos,Q,P-Q,131,26,30117,-0.005323808312829011,-0.004922311278827226,-0.016574107261419155,0.01930185660240744,1098.0,4.2351051022782835,0.5914640072991888,6.769620622413717,-0.025475175854237076,0.13,0.9999999999984477,3437.364784774207,0.6507025090985231,131,2026-10-08 01:16:46.201244,237.0,0.043896957667296135,0.34792501465770004,0.13300375894863292
0276,cdot_cos,R,Q-R,132,26,30166,0.026242510111678625,0.04078477411472646,0.03156631842450763,0.999436746564209,1098.0,4.308275117425963,0.5926630163237315,6.8091853681457355,-0.10886015884678034,0.049,0.9999999999984197,-69.5449169153202,0.6556696451807054,132,2026-10-08 01:16:46.250243,237.0,0.4648769377115884,0.9128546316745418,1.49326561525877
0276,cdot_cos,S,R-S,133,26,30181,-0.018810696387679383,-0.03985954641005,-0.04505320649935801,2.305488234624653e-05,1098.0,4.324564856182389,0.5926630439696554,6.834929387212172,-0.024489167073698484,0.015,0.9999999999983485,3051842.0049426113,0.6606367490314761,133,2026-10-08 01:16:46.265243,237.0,0.03189719203869423,2.9769395341796567,1.085982583761691
0276,cdot_cos,T,S-T,134,26,30805,-0.00030727620146592266,-0.013037474443738921,0.01850342018621346,0.9876942989898266,1098.0,4.397583303451353,0.5938468825349377,6.874280378179595,-0.11080637268105267,0.624,0.9999999999983299,-72.91298673546245,0.6656044573848395,134,2026-10-08 01:16:46.889244,237.0,0.4588686167698891,0.11563268622099825,0.11701674241821208
0276,cdot_cos,P,T-P,135,27,31085,0.012246797092411346,7.283430894284867e-05,0.012554073293877269,0.9514464166285505,1118.0,4.468874448586194,0.5949862446089463,6.91312165763249,-0.1098770119989927,0.28,0.9999999999982857,0.8156851129774397,0.6705718278364627,135,2026-10-08 01:16:47.169244,237.0,0.9915774795083461,0.15873975355770173,0.2546112326244338
0276,cdot_cos,Q,P-Q,136,27,31214,-0.004470614932463479,-0.004026864682100114,-0.016717412024874825,0.018669343865656475,1118.0,4.486477565443666,0.59500859105496,6.938939371507306,-0.027402224010404305,0.129,0.999999999998199,3690.7339958361,0.6755390451805315,136,2026-10-08 01:16:47.298244,237.0,0.04930230424722014,0.3573162192511881,0.13645827021295745
0276,cdot_cos,R,Q-R,137,27,31262,0.029414890443518433,0.041993228124974136,0.03388550537598191,0.9996748389591412,1118.0,4.561062033153001,0.5962045839876123,6.978402253951968,-0.11718714531610908,0.048,0.9999999999981687,-75.07144804492017,0.6805061797838815,137,2026-10-08 01:16:47.346244,237.0,0.464791211982723,0.9500100472063233,1.553843077277813
0276,cdot_cos,S,R-S,138,27,31276,-0.01925637941192798,-0.037037063190232936,-0.04867126985544641,9.780687924366055e-06,1118.0,4.577678529975473,0.5962045956834849,7.003824701220453,-0.026371027508046454,0.014,0.9999999999980894,7764800.531341401,0.6854732796182977,138,2026-10-08 01:16:47.360243,237.0,0.03194358763031508,3.1490855553147425,1.1868926301765725
0276,cdot_cos,T,S-T,139,27,31564,-0.007704734200903275,0.0036618046283608922,0.011551645211024704,0.939217200391709,1118.0,4.649236428701814,0.5973272178192328,7.042390551510759,-0.11455737945875238,0.288,0.9999999999980667,-78.55390441945761,0.6904406725679885,139,2026-10-08 01:16:47.648243,237.0,0.4631053517543091,0.25429901168725716,0.2484649261331277
0276,cdot_cos,P,T-P,140,28,32203,0.011978451929046079,7.30161092614751e-05,0.019683186129949355,0.9906678613612686,1098.0,4.724154760707333,0.5985102331347232,7.0816753262149215,-0.12172374003067907,0.639,0.999999999998038,-6.057707350099853,0.6954084546485445,140,2026-10-08 01:16:48.287244,237.0,0.9428255801452881,0.07237735209673875,0.11724308608062495
0276,cdot_cos,Q,P-Q,141,28,32332,-0.006467541993379248,-0.005996055611941106,-0.018445993922425328,0.012472223661719373,1098.0,4.741734684681446,0.5985251196770015,7.107099349101716,-0.02884454641740889,0.129,0.9999999999979314,6239.13813407852,0.7003756773980053,141,2026-10-08 01:16:48.416243,237.0,0.03995539881114189,0.36253387864622977,0.13627848041947896
0276,cdot_cos,R,Q-R,142,28,32380,0.02689913831257633,0.03995189295004765,0.033366680305955576,0.9996323102293597,1098.0,4.81768850139806,0.5997176633120082,7.146468164764201,-0.12573000259738376,0.048,0.9999999999978979,-81.24269279206267,0.7053428112012283,142,2026-10-08 01:16:48.464243,237.0,0.4627430131338819,0.9675855375825548,1.5823711815961354
0276,cdot_cos,S,R-S,143,28,32394,-0.022517998963528067,-0.045897573628169076,-0.049417137276104396,8.195955718455873e-06,1098.0,4.834622896289371,0.599717673084817,7.171587749595976,-0.028304716773600636,0.014,0.9999999999978091,9969015.752364365,0.7103099076357539,143,2026-10-08 01:16:48.478244,237.0,0.03200011050989146,3.3079285400751273,1.2095996350936262
0276,cdot_cos,T,S-T,144,28,32662,-0.004346712484582678,0.002421625329882265,0.01817128647894539,0.9866999066795967,1098.0,4.910310500520164,0.6008936311026681,7.210730996437742,-0.12759517747342325,0.268,0.9999999999977861,-84.43367806723516,0.7152772958849516,144,2026-10-08 01:16:48.746243,237.0,0.45924666493849436,0.2816011362800116,0.28241643369698805
0276,cdot_cos,P,T-P,145,29,33301,0.010865140762185279,6.501644580158022e-05,0.015211853246767958,0.9735375389286021,1098.0,4.985561105335457,0.6020527628836493,7.249682940464503,-0.1286970094615349,0.639,0.9999999999977536,-0.9505666277038824,0.7202451246498189,145,2026-10-08 01:16:49.385243,237.0,0.9914751027317151,0.07322414778292767,0.11776307482831525
0276,cdot_cos,Q,P-Q,146,29,33430,-0.0056838299368023575,-0.005271298270702291,-0.016548970698987635,0.019414948854311425,1098.0,5.0038909613867455,0.6020758674892014,7.274918679487527,-0.03164439136180592,0.129,0.999999999997637,4200.574551288498,0.7252123532376487,146,2026-10-08 01:16:49.514244,237.0,0.04656170184366444,0.3706430564160858,0.1420919073743265
0276,cdot_cos,R,Q-R,147,29,33466,0.025745509250341605,0.03648614055337411,0.03142933918714396,0.9994181718244618,1098.0,5.0811870138908075,0.6032646006248769,7.314202963247384,-0.13458284697510148,0.036,0.9999999999975995,-86.59509230791596,0.7301794720240039,147,2026-10-08 01:16:49.550244,237.0,0.46539417433258107,1.313225892434322,2.1471125695572786
0276,cdot_cos,S,R-S,148,29,33489,-0.01661964692598123,-0.03123427019795527,-0.04236515617632283,4.359423640143364e-05,1098.0,5.098443225642017,0.6032646524504834,7.33903964971663,-0.03032709299606503,0.023,0.9999999999975027,2011664.9056492045,0.7351465761227876,148,2026-10-08 01:16:49.573244,237.0,0.03213819429509369,1.7321923035254603,0.7502700761395292
0276,cdot_cos,T,S-T,149,29,33760,-0.012074406517024053,0.006734171162842763,0.004545240408957178,0.745967908361067,1098.0,5.160867859852979,0.6041511321927019,7.374612787603184,-0.11048251716337575,0.271,0.9999999999974603,-90.4199163837842,0.7401139845163268,149,2026-10-08 01:16:49.844243,237.0,0.48408089876827537,0.2588204977204867,0.2303492037304871
0276,cdot_cos,P,T-P,150,30,34399,0.010779448008292386,6.992803255631956e-05,0.02285385452531644,0.9955763801853603,1098.0,5.2387239354065205,0.6053331706646636,7.413795609805708,-0.13953341820167592,0.639,0.9999999999974252,-24.576950520135348,0.7450818572637165,150,2026-10-08 01:16:50.483244,237.0,0.8120443591541902,0.07537334372330337,0.12184049382400906
0276,cdot_cos,Q,P-Q,151,30,34528,-0.006351704268331885,-0.005890536490629772,-0.017131152276624272,0.016955150544965138,1098.0,5.25719499313136,0.6053532907320733,7.438715108623975,-0.03340982135233469,0.129,0.9999999999972975,5274.514974943454,0.7500490911012728,151,2026-10-08 01:16:50.612243,237.0,0.04173483341437525,0.3762391094098111,0.14318649399100716
0276,cdot_cos,R,Q-R,152,30,34576,0.027523444168843978,0.04080834735091677,0.033875148437175866,0.9996740401007654,1098.0,5.335793625634252,0.6065389347533429,7.477923645760177,-0.14333038088635958,0.048,0.9999999999972565,-92.70958024679915,0.7550162233575289,152,2026-10-08 01:16:50.660243,237.0,0.4644490466976594,1.0012736451278093,1.6374715104769029
0276,cdot_cos,S,R-S,153,30,34589,-0.022021786865911042,-0.0447737634938134,-0.04954523103475502,7.950881887933387e-06,1098.0,5.35331726306363,0.606538944178363,7.502481862813639,-0.03224562719157179,0.013,0.9999999999971488,11786155.630776245,0.7599833116481792,153,2026-10-08 01:16:50.673243,237.0,0.031906178916932884,3.646688739083325,1.3479721099521806
0276,cdot_cos,T,S-T,154,30,34878,-0.007276231517860933,0.0030230651507649775,0.01474555534805011,0.9705364947168168,1098.0,5.430607532850418,0.6076888307737462,7.5412295068368564,-0.14333686867865233,0.289,0.9999999999971186,-96.61060658773134,0.7649507608339353,154,2026-10-08 01:16:50.962244,237.0,0.46068716981903907,0.2701068691139245,0.26744037988507996
0276,cdot_cos,P,T-P,155,31,35497,0.012147271211186236,3.560234251222607e-05,0.01942350272904717,0.9900813486118111,1038.0,5.5094390334114784,0.6088606443478233,7.580263623983965,-0.14815376233933797,0.619,0.9999999999970799,-4.110631389877545,0.7699186561535054,155,2026-10-08 01:16:51.581243,237.0,0.9680100591154455,0.0786054830381751,0.12735298959783561
0276,cdot_cos,Q,P-Q,156,31,35606,-0.006516091910802572,-0.005162481753890789,-0.01866336312198881,0.011853391345780173,1038.0,5.527921120851679,0.6088746658903323,7.604852593362294,-0.03504326929048696,0.109,0.9999999999969408,8066.907972193294,0.7748858692563209,156,2026-10-08 01:16:51.690243,237.0,0.03964707786553607,0.4512475019862774,0.16956043523119746
0276,cdot_cos,R,Q-R,157,31,35658,0.024719380122764357,0.03633734794726669,0.031235472033566927,0.99939083185349,1038.0,5.607810988844487,0.6100562107021383,7.643992954011552,-0.15266047814250208,0.052,0.9999999999968975,-99.54527976999648,0.7798530064670995,157,2026-10-08 01:16:51.742244,237.0,0.46280493068835105,0.9396430831044066,1.5363436152463068
0276,cdot_cos,S,R-S,158,31,35674,-0.01873754364322993,-0.036993790304758745,-0.04345692376599429,3.365581902376106e-05,1038.0,5.625644001494537,0.610056250470578,7.668298736575512,-0.03437592988996268,0.016,0.9999999999967796,2974332.1409185072,0.7848200954011652,158,2026-10-08 01:16:51.758244,237.0,0.032035456986110177,2.9469534393130603,1.1145632906281455
0276,cdot_cos,T,S-T,159,31,35956,-0.007338216860794619,0.002729049464053429,0.011399326782435312,0.9371233736246591,1038.0,5.702113498902505,0.6111630066020627,7.706482835241447,-0.14849132966035325,0.282,0.9999999999967444,-103.10798966824451,0.7897875549226466,159,2026-10-08 01:16:52.040244,237.0,0.463708693256942,0.27757446690116383,0.27116843052470785
0276,cdot_cos,P,T-P,160,32,36535,0.011894584037616458,8.634357559610497e-05,0.019232800898411076,0.9896275336324193,1058.0,5.782196000826794,0.6123305279131864,7.745447455369679,-0.15748322670431386,0.579,0.9999999999967032,-7.701698425792233,0.7947554419347791,160,2026-10-08 01:16:52.619244,237.0,0.9445019848873548,0.08558526455712856,0.13831174771034332
0276,cdot_cos,Q,P-Q,161,32,36665,-0.005603041646524937,-0.005495740832945434,-0.017497625684141396,0.015566620944544033,1058.0,5.80122123525966,0.6123488825006291,7.7698478624802645,-0.037735595735783674,0.13,0.9999999999965561,6524.125445060415,0.7997226901095427,161,2026-10-08 01:16:52.749243,237.0,0.04186381105365672,0.38540755498144624,0.1463479571758929
0276,cdot_cos,R,Q-R,162,32,36711,0.026770395287397292,0.0427020119868656,0.03237343693392223,0.9995347659267358,1058.0,5.88240196512197,0.6135267632890309,7.808932534735081,-0.16222869538620338,0.046,0.9999999999965097,-105.6924443256625,0.8046898185769901,162,2026-10-08 01:16:52.795244,237.0,0.464221905852948,1.0794495248600835,1.7647984752676078
0276,cdot_cos,S,R-S,163,32,36725,-0.01971344103290634,-0.04445722075524491,-0.04648383632030363,1.642533441989182e-05,1058.0,5.900530591546787,0.6135267826342515,7.832997335103458,-0.03653555957505205,0.014,0.9999999999963832,6497374.111194024,0.8096569014884052,163,2026-10-08 01:16:52.809243,237.0,0.032055198790290215,3.4629784127129883,1.2949018874869798
0276,cdot_cos,T,S-T,164,32,36994,-0.006799880902453969,0.0029368135790482077,0.01291356013045237,0.9552342709816142,1058.0,5.979365360677933,0.6146512184492614,7.871387933662182,-0.16001379329295068,0.269,0.9999999999963475,-109.81350119732225,0.8146243620307603,164,2026-10-08 01:16:53.078244,237.0,0.46223935560423707,0.2977654403794359,0.2930660562496132
0276,cdot_cos,P,T-P,165,33,37593,0.012546837957108562,0.00010502892276384443,0.01934671885956253,0.9899010383947695,1038.0,6.060728398470924,0.61581517137908,7.910301121664959,-0.16718289938743341,0.599,0.9999999999963046,-6.159274924974685,0.8195923260044857,165,2026-10-08 01:16:53.677243,237.0,0.9580246079057225,0.08424598778524643,0.13583144873621134
0276,cdot_cos,Q,P-Q,166,33,37723,-0.004072722123287071,-0.004112203517960514,-0.016619560080395633,0.019098996633963087,1038.0,6.080292054044659,0.6158376155160104,7.934525468387085,-0.04053505496736497,0.13,0.9999999999961464,5642.8030542368815,0.8245595810342753,166,2026-10-08 01:16:53.807244,237.0,0.043963174976613145,0.39238791526260164,0.15048965825949714
0276,cdot_cos,R,Q-R,167,33,37772,0.030098015689407658,0.0531896025111228,0.03417073781269473,0.9996960869207248,1038.0,6.1627492564392,0.6170117151376894,7.973561561900656,-0.17208420807375122,0.049,0.9999999999960965,-112.0425819729538,0.8295267135214035,167,2026-10-08 01:16:53.856243,237.0,0.46559161184080733,1.029408373373268,1.6828000488681998
0276,cdot_cos,S,R-S,168,33,37787,-0.016447736391208428,-0.04139342975803265,-0.046545752080616086,1.6186072150576655e-05,1038.0,6.181174074635239,0.6170117341365214,7.99739910863883,-0.038768577095481746,0.015,0.9999999999959597,7017043.496950924,0.8344937945256502,168,2026-10-08 01:16:53.871244,237.0,0.03210463680995915,2.9164084016684617,1.2283212130692316
0276,cdot_cos,T,S-T,169,33,38072,-0.010979949832421124,0.0026310852327237643,0.005467786558787303,0.7851383167278657,1038.0,6.250241508489254,0.617932889554134,8.033140530644433,-0.14622414674920076,0.285,0.9999999999959052,-116.65302901026985,0.8394612988814818,169,2026-10-08 01:16:54.156243,237.0,0.47956835322467106,0.266374829034238,0.24234187317198377
0276,cdot_cos,P,T-P,170,34,38631,0.00983339665902579,5.99651462440822e-05,0.020813346491446914,0.9928449998030003,1018.0,6.3330077271847545,0.6190965213014132,8.07204438954036,-0.17715907745807252,0.559,0.9999999999958584,-26.584811544718736,0.8444292455630601,170,2026-10-08 01:16:54.715244,237.0,0.8397788594587079,0.0916220501899491,0.14806121412432963
0276,cdot_cos,Q,P-Q,171,34,38760,-0.007442368506677322,-0.007759082275743714,-0.017275765165703113,0.01639325264204668,1018.0,6.352674960601617,0.619115723049044,8.096002746190056,-0.04243913391150401,0.129,0.9999999999956898,7016.025110671221,0.8493965055214028,171,2026-10-08 01:16:54.844243,237.0,0.04181804812870425,0.4001845085919268,0.15245917377413046
0276,cdot_cos,R,Q-R,172,34,38793,0.019427008451717465,0.030828156263788414,0.026869376958394788,0.9982874236136611,1018.0,6.436255330401472,0.6202843332768468,8.134967038040717,-0.18160675731462128,0.033,0.9999999999956379,-119.08814426926489,0.854363611640524,172,2026-10-08 01:16:54.877243,237.0,0.46472333723687204,1.5495687553773696,2.532738478783463
0276,cdot_cos,S,R-S,173,34,38818,-0.01838622745599205,-0.040932833269208165,-0.03781323590770952,0.00012820690865629402,1018.0,6.454946498456524,0.6202844832685575,8.158582865940646,-0.04093772035839548,0.025,0.9999999999954924,937845.4075002526,0.859330705860545,173,2026-10-08 01:16:54.902244,237.0,0.032187673203348706,1.9653025946278468,0.7476467222020844
0276,cdot_cos,T,S-T,174,34,39110,-0.007461535099093898,0.0013362736993970204,0.010924692356898153,0.9301601549842061,1018.0,6.534520460132864,0.6213720889487303,8.196475053372202,-0.17541666442148246,0.292,0.9999999999954491,-123.64678349391677,0.8642982426758098,174,2026-10-08 01:16:55.194243,237.0,0.46457799680854034,0.2800197478672199,0.2725135673847268
0276,cdot_cos,P,T-P,175,35,39649,0.013059868742780398,0.00012060449119139131,0.020521403841874297,0.9923363421652214,998.0,6.61847803121098,0.6225310509035324,8.235326378780455,-0.1871849980855339,0.539,0.9999999999953999,-10.154201883236585,0.8692662024533006,175,2026-10-08 01:16:55.733243,237.0,0.9390654798877283,0.09604028531661508,0.1557654379927944
0276,cdot_cos,Q,P-Q,176,35,39778,-0.006148100678233409,-0.006621781761524442,-0.019207969421013805,0.010433050190464135,998.0,6.638051887704175,0.622543228380695,8.258984705330693,-0.04398327009708416,0.129,0.9999999999952213,11759.55627566566,0.8742334697234878,176,2026-10-08 01:16:55.862243,237.0,0.038549094338958444,0.4047342440481099,0.15173532165267345
0276,cdot_cos,R,Q-R,177,35,39826,0.022882451373904343,0.04178386138946191,0.029030552052137754,0.9989731590256793,998.0,6.7228994661753925,0.623708513496848,8.297917710655213,-0.1919230000630997,0.048,0.9999999999951679,-126.9558221548522,0.8792006000444798,177,2026-10-08 01:16:55.910244,237.0,0.4626295926177466,1.0814225738112933,1.767657884817031
0276,cdot_cos,S,R-S,178,35,39839,-0.0175796369173871,-0.048491090349481014,-0.04046208829129144,6.843792928556485e-05,998.0,6.741868454790059,0.6237085932796789,8.321326196454978,-0.0432407899730275,0.013,0.9999999999950115,1863586.5438431867,0.8841676711009738,178,2026-10-08 01:16:55.923244,237.0,0.03211374397565367,3.7288986350628806,1.4591529703589747
0276,cdot_cos,T,S-T,179,35,40128,-0.008805940167965945,0.001038136306724916,0.008773696749421155,0.8888814405650712,998.0,6.819850830687027,0.6247442564922007,8.358524116809928,-0.17884836216089764,0.289,0.9999999999949628,-130.93790582526458,0.8891352251022371,179,2026-10-08 01:16:56.212243,237.0,0.46849655749989444,0.2824079909966497,0.269835210716153
0276,cdot_cos,P,T-P,180,36,40647,0.012579248533684263,0.00013140553418683796,0.02138518870165021,0.993746182345411,978.0,6.905100273586123,0.6259007505709697,8.397355801221526,-0.19762358501728503,0.519,0.9999999999949114,-16.234603532403117,0.8941031946379684,180,2026-10-08 01:16:56.731244,237.0,0.9093684144794131,0.10136515606050857,0.16425711541251503
0276,cdot_cos,Q,P-Q,181,36,40777,-0.005989407768660653,-0.006695621716588094,-0.018568656302344916,0.012119194339226712,978.0,6.925067862677835,0.6259148457079873,8.420839918708538,-0.04664266279449419,0.13,0.9999999999947234,10711.561160047024,0.899070471161098,181,2026-10-08 01:16:56.861243,237.0,0.03928272310314682,0.40779858505990074,0.1535968391670199
0276,cdot_cos,R,Q-R,182,36,40826,0.024017784682058105,0.050848895409236296,0.030007192450718756,0.9991851608141497,978.0,7.011127905701697,0.6270762034715204,8.459737551165654,-0.20231602928670944,0.049,0.9999999999946689,-134.04428108236297,0.9040376032319709,182,2026-10-08 01:16:56.910244,237.0,0.4632648239174473,1.0744979791890514,1.756327408650237
0276,cdot_cos,S,R-S,183,36,40842,-0.015437844053421013,-0.05072753258525335,-0.039455628735479115,8.687233885607275e-05,978.0,7.030368664638362,0.627076304380181,8.482948108565855,-0.0455743527331512,0.016,0.9999999999945026,1553302.5167961898,0.9090046764383112,183,2026-10-08 01:16:56.926244,237.0,0.03208868377734789,2.8788983856386783,1.2025474335415898
0276,cdot_cos,T,S-T,184,36,41106,-0.009666460940623808,0.0017860319982945135,0.005771383112797205,0.7970273571580128,978.0,7.103252654042135,0.6280016439456579,8.518645819879794,-0.17359271288135258,0.264,0.9999999999944403,-138.34744014455035,0.9139722066225585,184,2026-10-08 01:16:57.190243,237.0,0.47832545675390953,0.30193377713649994,0.2760757174385313
0276,cdot_cos,P,T-P,185,37,41625,0.013155040724464344,8.253420865463604e-05,0.022821501665088152,0.9955424829180782,978.0,7.189789698966434,0.6291561399689406,8.557466143864731,-0.2081710517642037,0.519,0.9999999999943894,-29.95102467701199,0.9189402193439664,185,2026-10-08 01:16:57.709243,237.0,0.8469569477667079,0.1026651342066112,0.1667380441701343
0276,cdot_cos,Q,P-Q,186,37,41735,-0.00661087633594656,-0.005724309487166549,-0.019765917060410906,0.009152601826042009,978.0,7.209819063348597,0.6291667471036883,8.580708777690754,-0.04854078717070941,0.11,0.9999999999941919,15049.329379813023,0.9239074656872712,186,2026-10-08 01:16:57.819244,237.0,0.03730678534924954,0.4877139283791228,0.182085130746934
0276,cdot_cos,R,Q-R,187,37,41787,0.02962906962565217,0.04803245940268928,0.03623994596159873,0.9998138677922576,978.0,7.297086763209841,0.6303246995728465,8.619579121995637,-0.21279288975965935,0.052,0.9999999999941376,-141.84701614596034,0.9288746037196691,187,2026-10-08 01:16:57.871244,237.0,0.46214010548628215,1.026474181682771,1.6782249973316208
0276,cdot_cos,S,R-S,188,37,41802,-0.018760144608146293,-0.04445650291483193,-0.04838921423379847,1.0456840187336988e-05,978.0,7.316572378243605,0.6303247116758112,8.642595559290573,-0.047863272510858756,0.015,0.9999999999939626,13627208.067118116,0.9338416722048279,188,2026-10-08 01:16:57.886244,237.0,0.03187768137942221,3.5168954975383158,1.2990410022509262
0276,cdot_cos,T,S-T,189,37,42324,-0.003280080341431354,-0.014985368895009664,0.01548006426671494,0.9751267669169255,978.0,7.402593628135991,0.6314526295021703,8.681056913534306,-0.2125529205352309,0.522,0.9999999999939215,-146.0120978458012,0.9388097224307388,189,2026-10-08 01:16:58.408243,237.0,0.46078802858015416,0.16548902481526515,0.16479166646050877
0276,cdot_cos,P,T-P,190,38,42603,0.013432884352824914,0.0001123619814953062,0.016712964694256267,0.9813113358937546,979.0,7.489342920150742,0.632586251860498,8.719619137237133,-0.21658893740205826,0.279,0.9999999999938481,-3.56028340229741,0.9437773075824111,190,2026-10-08 01:16:58.687244,237.0,0.9815380927461174,0.19181977935542832,0.31092936206004024
0276,cdot_cos,Q,P-Q,191,38,42733,-0.006519963627167381,-0.0073127764392108465,-0.019952847979992295,0.00875944262523718,979.0,7.50962906501632,0.6325963642934148,8.742675588098075,-0.05101239098736674,0.13,0.9999999999936504,16373.56190905228,0.9487445999170196,191,2026-10-08 01:16:58.817244,237.0,0.038936999148213344,0.4179398332963999,0.15604726819675216
0276,cdot_cos,R,Q-R,192,38,42768,0.02187112988642098,0.03875608486980883,0.028391093513588362,0.9988053291224229,979.0,7.598007276807806,0.6337486788151163,8.78149935925066,-0.22355375953636436,0.035,0.9999999999935936,-149.73461264223567,0.953711704346362,192,2026-10-08 01:16:58.852243,237.0,0.4621750668252651,1.5449831036938833,2.525091765471034
0276,cdot_cos,S,R-S,193,38,42790,-0.015434957416607867,-0.04022486588595781,-0.03730608730302885,0.0001445785962110037,979.0,7.617777882274892,0.6337488455040481,8.804340428257845,-0.05036804143773628,0.022,0.9999999999934105,1038975.5112175841,0.9586787838599166,193,2026-10-08 01:16:58.874244,237.0,0.03211587404119882,2.3740365861753796,0.8986638848675294
0276,cdot_cos,T,S-T,194,38,43282,-0.0038848902282196136,-0.01078439142007049,0.011550067188388254,0.9391958463714101,979.0,7.702464886599523,0.6348309948439727,8.84219264215251,-0.21695938104537194,0.492,0.9999999999933635,-153.94487014079635,0.9636468203405387,194,2026-10-08 01:16:59.366244,237.0,0.4640115873291557,0.17648343904529615,0.17212805757038832
0276,cdot_cos,P,T-P,195,39,43582,0.020384792511663086,0.00020237121991065546,0.024269682739882698,0.9968333672085412,638.0,7.791437586295463,0.6359780661225791,8.880971335793216,-0.23021373148088325,0.3,0.9999999999932917,-11.554949271865198,0.9686144722897227,195,2026-10-08 01:16:59.666244,237.0,0.9440519251895059,0.18194834357067702,0.29657566565313453
0276,cdot_cos,Q,P-Q,196,39,43711,-0.003492542290026048,-0.01182781182470764,-0.023877334801689132,0.0034741392237002807,638.0,7.811633892741929,0.6359820611744675,8.90377038119672,-0.052625257725859916,0.129,0.9999999999930824,44452.106935060845,0.9735817708512233,196,2026-10-08 01:16:59.795244,237.0,0.03423227727620292,0.2204875604692645,0.15656051508888263
0276,cdot_cos,R,Q-R,197,39,43755,-0.008338141278206937,0.08477512045691732,-0.004845598988180889,0.24078017855710157,638.0,7.848323376896533,0.636258898243319,8.930340929638533,-0.09591855023147552,0.044,0.9999999999929147,-156.38546053540725,0.9785488923787841,197,2026-10-08 01:16:59.839243,237.0,0.6367649147625074,1.4369706264704332,0.8338519126046451
0276,cdot_cos,S,R-S,198,39,43771,0.025272455108855833,-0.07262236556058575,0.03361059638706277,0.9996529558137243,638.0,7.938087307871327,0.6374072829699798,8.969137236597343,-0.23624644361371921,0.016,0.9999999999928666,-122.19588969132452,0.9835159564953254,198,2026-10-08 01:16:59.855244,237.0,0.5521202331744602,3.433917064711134,5.610245685924609
0276,cdot_cos,T,S-T,199,39,44041,-0.002312273786311137,-0.012572630788836437,-0.02758472889516697,0.0014458936753397305,638.0,7.9582087229672895,0.6374089428571271,8.99178138726557,-0.05332541481868878,0.27,0.9999999999926787,110200.88268890827,0.9884835616454665,199,2026-10-08 01:17:00.125243,237.0,0.03237791932772189,0.19763851931230217,0.0745237596146761
0276,cdot_cos,P,T-P,200,40,44220,0.009983325875419226,7.806508235342748e-05,0.012295599661730362,0.9485369719372662,1378.0,8.04481210829997,0.6384971564911931,9.029735595439663,-0.23075516858804207,0.179,0.9999999999926168,-163.04680277383562,0.9934509748161455,200,2026-10-08 01:17:00.304243,237.0,0.4635184352935193,0.3042824846480097,0.48381779515464046
0276,cdot_cos,Q,P-Q,201,40,44350,-0.004425757144675977,-0.0030156478567115105,-0.014409083020095203,0.031831410660352846,1378.0,8.067141852471277,0.638533650669901,9.05279945231474,-0.05990017373245439,0.13,0.9999999999924191,4681.705436453528,0.998418284225243,201,2026-10-08 01:17:00.434243,237.0,0.0577097657123632,0.43412380329565725,0.17176726285620647
0276,cdot_cos,R,Q-R,202,40,44405,0.023363435218362674,0.026092159110222602,0.027789192363038652,0.998622406487126,1378.0,8.157684297156841,0.6396777409146409,9.091551629536749,-0.24424657686124943,0.055,0.9999999999923732,-161.12925005378293,1.0033854325106406,202,2026-10-08 01:17:00.489243,237.0,0.4701256312851038,1.0064999172848068,1.6462262670102554
0276,cdot_cos,S,R-S,203,40,44427,-0.016833792757679565,-0.02311447624712297,-0.040197227976042235,7.28712841279632e-05,1378.0,8.177856843372606,0.6396778243433004,9.114028883223861,-0.054788709911331494,0.022,0.9999999999921807,2270896.6918895952,1.008352509788629,203,2026-10-08 01:17:00.511244,237.0,0.031493542016788806,2.450918981771148,0.9169339188983954
0276,cdot_cos,T,S-T,204,40,44719,-0.004214811567036214,0.004883061892999301,0.012618981190643351,0.9521521446943872,1378.0,8.265524732354772,0.6407671997352995,9.152008951061065,-0.2393601401217068,0.292,0.9999999999921441,-169.42867588708725,1.013320185689771,204,2026-10-08 01:17:00.803244,237.0,0.46250243760512866,0.3037337589935135,0.30023249651426653
0276,cdot_cos,P,T-P,205,41,45598,0.011586706504934636,6.010246746574877e-05,0.01580151807197085,0.9769092077304212,1058.0,8.355237358624818,0.6418833934998436,9.19039488225653,-0.24724582708879325,0.879,0.9999999999920951,-7.064801128240857,1.0182891881244327,205,2026-10-08 01:17:01.682244,237.0,0.9686091373397889,0.06329593052732269,0.10206214592724239
0276,cdot_cos,Q,P-Q,206,41,45727,-0.005577077172243409,-0.005460315233810177,-0.017163783677178045,0.01682672911043848,1058.0,8.376798978221805,0.6419026059028452,9.213060838130485,-0.05981980163000391,0.129,0.9999999999918335,9755.470226340696,1.023256499321523,206,2026-10-08 01:17:01.811244,237.0,0.04357912704637006,0.4391990290613893,0.1671443379611412
0276,cdot_cos,R,Q-R,207,41,45757,0.028702533516082304,0.03797696463238257,0.03427961068832571,0.9997038261517411,1058.0,8.468550708122656,0.6430432269534004,9.25180638003702,-0.2559139052058636,0.03,0.9999999999917667,-171.91871347666643,1.0282235868834784,207,2026-10-08 01:17:01.841243,237.0,0.4647524930868326,1.8697098285689033,3.0583909966950413
0276,cdot_cos,S,R-S,208,41,45772,-0.023505938369073224,-0.04191426512718228,-0.052208471885155525,4.229562211535752e-06,1058.0,8.488981567935939,0.6430432317757394,9.274126829589198,-0.05736534793076437,0.015,0.9999999999915474,41172667.1235138,1.0331906413046392,208,2026-10-08 01:17:01.856243,237.0,0.031394468612472255,3.715881650303743,1.362057320885531
0276,cdot_cos,T,S-T,209,41,46317,-0.006110906473735903,-0.013032515783684188,0.01739503189533732,0.9840563504449578,1058.0,8.580027157631768,0.6441644183383769,9.312602355846428,-0.2569550257462023,0.545,0.9999999999914987,-178.0164733208375,1.0381589252859622,209,2026-10-08 01:17:02.401243,237.0,0.459898502190944,0.16756582931141759,0.16705612788225563
0276,cdot_cos,P,T-P,210,42,46656,0.012389385855230039,0.00010911439516758587,0.018500292328965943,0.9876852857444506,1098.0,8.671628321885384,0.6452881517651818,9.351140271330564,-0.260918524910533,0.339,0.9999999999914094,-3.5270813075303207,1.0431267389680476,210,2026-10-08 01:17:02.740243,237.0,0.9849242320785297,0.1670095131506593,0.2702099240519642
0276,cdot_cos,Q,P-Q,211,42,46785,-0.005579720653088889,-0.005184282070203876,-0.017969106508318927,0.01394380197234877,1098.0,8.693259607547915,0.6453040048125356,9.37360941358264,-0.06201824289487948,0.129,0.9999999999911577,12546.501475547702,1.0480940580858251,211,2026-10-08 01:17:02.869244,237.0,0.04047278931575459,0.44381595483908576,0.16768438498086155
0276,cdot_cos,R,Q-R,212,42,46835,0.02787660449620857,0.0424418133985889,0.03345632514929746,0.9996400369203371,1098.0,8.786132838233868,0.6464396867169068,9.412331423904318,-0.26764068409945113,0.05,0.9999999999910856,-181.0563683485139,1.05306119079823,212,2026-10-08 01:17:02.919244,237.0,0.4638110780648537,1.1357158294626934,1.8574646137190598
0276,cdot_cos,S,R-S,213,42,46848,-0.020525630091160665,-0.042660089171463605,-0.04840223458736924,1.042462229237364e-05,1098.0,8.806831190494185,0.6464396985516374,9.434504366883756,-0.06003587522997445,0.013,0.9999999999908515,17541996.956745133,1.0580282359681061,213,2026-10-08 01:17:02.932243,237.0,0.03149228980380301,4.312380340317249,1.5921809431012581
0276,cdot_cos,T,S-T,214,42,47115,-0.0052349059895660235,0.0028996200481614547,0.015290724101594641,0.9740148571665005,1098.0,8.898254727082117,0.6475446805472915,9.472789514368845,-0.2664855047033376,0.267,0.9999999999907956,-186.8352880728618,1.062995898360701,214,2026-10-08 01:17:03.199244,237.0,0.4608362905768081,0.3451563839203308,0.3424102493930042
0276,cdot_cos,P,T-P,215,43,47754,0.01425634495544834,8.85729175089535e-05,0.019491250945014364,0.9902377917108579,1058.0,8.991144699507641,0.6486664507608011,9.51134526951236,-0.2731802860161896,0.639,0.9999999999907272,-5.968050526058043,1.0679644838347455,215,2026-10-08 01:17:03.838243,237.0,0.9757910296576904,0.08950637639260385,0.14536771897578177
0276,cdot_cos,Q,P-Q,216,43,47864,-0.00591630482380335,-0.004578450939440309,-0.02017264977925169,0.008318516823501248,1058.0,9.012643876111865,0.6486758672893145,9.533578898108182,-0.06363059233177625,0.11,0.9999999999904428,22253.39129877567,1.0729317633441062,216,2026-10-08 01:17:03.948243,237.0,0.037133994816230656,0.5248694928867663,0.19544706003839254
0276,cdot_cos,R,Q-R,217,43,47919,0.026037829687601446,0.03912083250463191,0.031954134511404796,0.9994861832265901,1058.0,9.10661598794273,0.6498064379768886,9.572276330949679,-0.2794957774246205,0.055,0.9999999999903643,-190.9347088734637,1.0778989077068024,217,2026-10-08 01:17:04.003244,237.0,0.46193184898579764,1.0448645628777988,1.70858385147028
0276,cdot_cos,S,R-S,218,43,47941,-0.015272185302935542,-0.03132872084479183,-0.04131001499053699,5.5979246531415874e-05,1058.0,9.127578978028422,0.6498065012509532,9.594307853581135,-0.06274462057913321,0.022,0.999999999990114,3425592.4352183817,1.0828659706226793,218,2026-10-08 01:17:04.025243,237.0,0.03160316992634197,2.3039002296909383,0.9528631857132941
0276,cdot_cos,T,S-T,219,43,48233,-0.009169849236607814,0.002724415103754033,0.006102336066327728,0.8094211970245998,1058.0,9.207987598049131,0.6507208484916789,9.62981895681267,-0.2417174545239331,0.292,0.999999999990021,-195.73836500316085,1.0878337180706692,219,2026-10-08 01:17:04.317244,237.0,0.4769127879112721,0.2990222403311998,0.2753719863722905
0276,cdot_cos,P,T-P,220,44,48812,0.012260917847188762,7.846525945181355e-05,0.021430767083796577,0.9938129572983581,1078.0,9.302207966381843,0.6518419751754726,9.668409373273793,-0.2855079157240903,0.579,0.9999999999899434,-39.05933364459507,1.0928022090517024,220,2026-10-08 01:17:04.896243,237.0,0.8578059265404611,0.10072983216633578,0.16272947898568543
0276,cdot_cos,Q,P-Q,221,44,48922,-0.004704735165688815,-0.0035583265453099804,-0.016965653012877578,0.017621450845603428,1078.0,9.324632743697748,0.6518618389217076,9.69065481144466,-0.0683784101062096,0.11,0.9999999999896467,10930.944397366924,1.097769493884772,221,2026-10-08 01:17:05.006243,237.0,0.041776960783441536,0.533875606681197,0.2038616119627725
0276,cdot_cos,R,Q-R,222,44,48974,0.02575372410513201,0.03562919605739306,0.030458459270820824,0.9992677491169336,1078.0,9.419660599851706,0.6529873958604833,9.729325147036999,-0.29114786616303345,0.052,0.9999999999895642,-197.9193129928525,1.1027366300941424,222,2026-10-08 01:17:05.058244,237.0,0.46526786552631927,1.1175170945954678,1.8274587721915072
0276,cdot_cos,S,R-S,223,44,48994,-0.017997821534645197,-0.03317800512172054,-0.043751545639777206,3.138602891276774e-05,1078.0,9.440854521535677,0.6529874311863596,9.751213943116417,-0.06533703851273229,0.02,0.9999999999892977,6392221.540585821,1.107703684038074,223,2026-10-08 01:17:05.078244,237.0,0.03155282427196805,2.8888561330943308,1.0596960841985137
0276,cdot_cos,T,S-T,224,44,49611,-0.00037836276932467843,-0.007723606641036928,0.01761945876532052,0.9848697258536065,1078.0,9.53521484517548,0.6540950990969968,9.78963111279113,-0.29223810958910706,0.617,0.9999999999892333,-204.845756473928,1.1126723146850936,224,2026-10-08 01:17:05.695244,237.0,0.46004759320170424,0.15108673334427725,0.15293407397050723
0276,cdot_cos,P,T-P,225,45,49890,0.012083648000742648,0.00010981486690612435,0.012462010770067327,0.9504284853374166,1098.0,9.627295550482515,0.6551624493614177,9.827470366767523,-0.2875597542500087,0.279,0.999999999989109,4.383149088960899,1.1176400575520538,225,2026-10-08 01:17:05.974244,237.0,0.9838624690599086,0.2054628961547264,0.33003837027611166
0276,cdot_cos,Q,P-Q,226,45,50020,-0.005297079872217094,-0.004939053585782177,-0.01738072787295974,0.015996924998213626,1098.0,9.649863141229817,0.6551804008818679,9.849555477888693,-0.07089662004786333,0.13,0.999999999988811,12069.347262397136,1.122607401967752,226,2026-10-08 01:17:06.104243,237.0,0.04707358758050024,0.4565105499441762,0.17359685190232454
0276,cdot_cos,R,Q-R,227,45,50063,0.02659512568901313,0.03843229631880283,0.03189220556123022,0.9994785902014081,1098.0,9.745988293468,0.6563011219257154,9.888208004033313,-0.3033685936549782,0.043,0.9999999999887209,-207.4307205020612,1.127574512920592,227,2026-10-08 01:17:06.147244,237.0,0.46472843968262934,1.3670962868362142,2.2354686567019453
0276,cdot_cos,S,R-S,228,45,50079,-0.018016369755582236,-0.034199652610529374,-0.04461149544459536,2.559918558982256e-05,1098.0,9.767433421897731,0.6563011506080131,9.909964665965468,-0.06809071097474782,0.016,0.9999999999884391,8202895.2340929825,1.1325415516916983,228,2026-10-08 01:17:06.163244,237.0,0.031575951850007354,3.55278455825786,1.3403205268581742
0276,cdot_cos,T,S-T,229,45,50349,-0.00621194562991925,0.003429161816086023,0.011804424125662986,0.9425486220835888,1098.0,9.859677399332252,0.6573564436212266,9.947642591716113,-0.2941584764966688,0.27,0.9999999999883604,-214.22274448071678,1.137509290075979,229,2026-10-08 01:17:06.433243,237.0,0.4636971117796439,0.34799681458324344,0.3416443608685953
0276,cdot_cos,P,T-P,230,46,50988,0.011320687382027017,9.334415054090521e-05,0.01753263301194627,0.9845600110601348,1078.0,9.955351701772683,0.6584571139916748,9.986031731631877,-0.3075432494834014,0.639,0.9999999999882725,-12.16056445789629,1.142478064236897,230,2026-10-08 01:17:07.072243,237.0,0.9574118778181234,0.09254320692640755,0.1497250429427711
0276,cdot_cos,Q,P-Q,231,46,51098,-0.006999664382674603,-0.005299410688477392,-0.01832035176470162,0.012844354221386226,1078.0,9.977947617784201,0.6584714618525231,10.007936738806999,-0.07306637733936738,0.11,0.9999999999879354,16342.287859008498,1.1474453603024142,231,2026-10-08 01:17:07.182244,237.0,0.04039319347211049,0.5443138269307727,0.2054174182865283
0276,cdot_cos,R,Q-R,232,46,51153,0.021969713925251367,0.031419283194579685,0.02896937830792597,0.9989581788830366,1078.0,10.075100743697453,0.6595864635876628,10.046558853382667,-0.31554340373862994,0.055,0.9999999999878395,-217.46784669253233,1.1524125034127228,232,2026-10-08 01:17:07.237243,237.0,0.46373467844345945,1.080455284309213,1.766420471150034
0276,cdot_cos,S,R-S,233,46,51175,-0.017406891957585182,-0.03367350087189588,-0.03937660588283655,8.85145057452495e-05,1078.0,10.096797699058214,0.6595865623063812,10.068189147835913,-0.07088732788573883,0.022,0.99999999998754,2478314.951445569,1.1573795543609633,233,2026-10-08 01:17:07.259244,237.0,0.03170321264356918,2.667960940044542,0.9862252436709796
0276,cdot_cos,T,S-T,234,46,51747,-0.0020235887028704686,-0.006996638253877761,0.015383303254714714,0.9745644504936446,1078.0,10.192491025059413,0.6606726361955603,10.106385155981103,-0.3139764294112735,0.572,0.9999999999874608,-223.82372318083026,1.1623481806950289,234,2026-10-08 01:17:07.831244,237.0,0.461059936218931,0.16720659065081514,0.1672960244776194
0276,cdot_cos,P,T-P,235,47,52066,0.012582978607547418,0.00011915785284161521,0.014606567310417887,0.9695798156981915,1098.0,10.288082038762747,0.6617514799080042,10.14449682307644,-0.31610641902114445,0.319,0.9999999999873288,-1.9743263878748558,1.1673160892809458,235,2026-10-08 01:17:08.150244,237.0,0.9932844465640513,0.18566774829567528,0.29965835016719194
0276,cdot_cos,Q,P-Q,236,47,52196,-0.005672633290709438,-0.005298655053171979,-0.018255611898256856,0.013040359532041362,1098.0,10.310947048472054,0.6617659783847409,10.166281490571677,-0.07604739449160942,0.13,0.9999999999869921,16557.534207803525,1.1722834495628116,236,2026-10-08 01:17:08.280244,237.0,0.04256585731747512,0.4657972934732212,0.17588469007158927
0276,cdot_cos,R,Q-R,237,47,52240,0.02534312029425574,0.03722774751688469,0.03101575358496518,0.9993582909272509,1098.0,10.409189335065784,0.6628761752352345,10.204888888372285,-0.3281377482479044,0.044,0.9999999999868883,-227.06815790752162,1.177250559808259,237,2026-10-08 01:17:08.324243,237.0,0.46382613032622305,1.3656867305138285,2.232779240766612
0276,cdot_cos,S,R-S,238,47,52256,-0.02175637411581953,-0.044267383403189135,-0.04709949441007527,1.4195374715698468e-05,1098.0,10.43112748075727,0.6628761909922964,10.226395738954219,-0.07370053185659359,0.016,0.9999999999865717,16147503.67654286,1.1822175888804904,238,2026-10-08 01:17:08.340243,237.0,0.03167233132520173,3.7244875472555727,1.371134105717875
0276,cdot_cos,T,S-T,239,47,52526,-0.00504407004967492,0.0027819871821497793,0.016712304066144608,0.981308464298688,1098.0,10.528372936577963,0.6639645906919888,10.264683313710579,-0.32803748414886047,0.27,0.9999999999864893,-233.6797339839078,1.1871853753163015,239,2026-10-08 01:17:08.610244,237.0,0.4605522656315227,0.36064826454055326,0.36016835489145305
0276,cdot_cos,P,T-P,240,48,53164,0.011627691867514972,0.0001199507911144201,0.016671761917189894,0.9811314063611709,1079.0,10.62587754360917,0.6650510561501165,10.302967194182356,-0.33143595263887876,0.638,0.9999999999863877,-3.1280041759217383,1.1921542792057604,240,2026-10-08 01:17:09.248243,237.0,0.9897986192998757,0.09473241322244148,0.15282853766646778
0276,cdot_cos,Q,P-Q,241,48,53294,-0.005691857931542526,-0.0054588956759558495,-0.017319549799057497,0.016226766220649554,1079.0,10.649251495849798,0.6650690103616004,10.324690004601068,-0.0799044281798862,0.13,0.9999999999860133,14009.61132071605,1.1971216475263393,241,2026-10-08 01:17:09.378243,237.0,0.042942009361229445,0.47182515865698677,0.17979963262022217
0276,cdot_cos,R,Q-R,242,48,53341,0.026013444192217364,0.04016678954351795,0.03170530212375989,0.999454987465476,1079.0,10.748552084859986,0.6661739414169856,10.363277217468399,-0.34085686921062186,0.047,0.9999999999859018,-236.17079071033638,1.202088765059104,242,2026-10-08 01:17:09.425244,237.0,0.46506515371864093,1.292403723065938,2.1127784895784614
0276,cdot_cos,S,R-S,243,48,53355,-0.023569809766672927,-0.051153886791112,-0.049583253958890294,7.879555472196504e-06,1079.0,10.770737445817996,0.6661739501209304,10.384666985216887,-0.07658555091654407,0.014,0.9999999999855658,30362246.63151028,1.2070557828551416,243,2026-10-08 01:17:09.439244,237.0,0.03172443385985578,4.318870652517491,1.5846686398578922
0276,cdot_cos,T,S-T,244,48,53624,-0.005198996169922949,0.0025610869036447794,0.01837081359674998,0.9873064040723706,1079.0,10.869480463130476,0.6672636620679142,10.42303431947987,-0.3422227558181926,0.269,0.9999999999854777,-243.7682780636645,1.2120235907109198,244,2026-10-08 01:17:09.708243,237.0,0.4601460216741763,0.36654113881606776,0.3670744138010381
0276,cdot_cos,P,T-P,245,49,54243,0.011247410960016543,6.210983213533455e-05,0.016446407129939493,0.9801168369417155,1097.0,10.96793657850104,0.66834367195456,10.461276620640714,-0.3437757339307209,0.619,0.9999999999853683,-1.437929533544733,1.2169925028020174,245,2026-10-08 01:17:10.327244,237.0,0.9954927718531397,0.09872839405758059,0.15905672919315864
0276,cdot_cos,Q,P-Q,246,49,54373,-0.005633176889049832,-0.005211608984315176,-0.016880587849066375,0.017973862237041477,1097.0,10.99170621497376,0.6683634612140973,10.48291671213154,-0.08345787341013144,0.13,0.9999999999849758,13154.502321336673,1.2219598795188882,246,2026-10-08 01:17:10.457243,237.0,0.04419459369915639,0.4773259903676565,0.18284335748245822
0276,cdot_cos,R,Q-R,247,49,54422,0.02547565357963542,0.03946707666509003,0.031108830468685254,0.9993722827523134,1097.0,11.092041335996631,0.6694628345582389,10.521480032551302,-0.35368411978391623,0.049,0.9999999999848576,-245.80025322042783,1.2269270020874399,247,2026-10-08 01:17:10.506243,237.0,0.4657842486237596,1.2527340032580232,2.0476555310790023
0276,cdot_cos,S,R-S,248,49,54436,-0.01903845709887197,-0.04022973768736945,-0.04451411067850739,2.6196875028705582e-05,1097.0,11.114474147293047,0.6694628633522908,10.542757496613275,-0.07951616283269942,0.014,0.9999999999845036,9521687.246638717,1.2318940146921757,248,2026-10-08 01:17:10.520243,237.0,0.0318107003479497,3.9303137413252895,1.6023436640296547
0276,cdot_cos,T,S-T,249,49,54721,-0.012280783335565312,0.0051167557500640445,0.00675767376330666,0.8322375158900418,1097.0,11.20209012075374,0.6703769678085943,10.5784157966783,-0.3116666679947051,0.285,0.9999999999843698,-253.964963808149,1.2368618978300139,249,2026-10-08 01:17:10.805243,237.0,0.4747970032710273,0.33047865653065844,0.30742446828313313
0276,cdot_cos,P,T-P,250,50,55340,0.011870596558689201,0.00011962902680899903,0.02415137989425451,0.9967436186966492,1118.0,11.302846981515522,0.6714700669692155,10.616920440336003,-0.36082534333381194,0.619,0.9999999999842556,-44.97183522780469,1.2418308725429419,250,2026-10-08 01:17:11.424243,237.0,0.8726335851647524,0.10079480632528996,0.1627736038154804
0276,cdot_cos,Q,P-Q,251,50,55470,-0.0049480358027069035,-0.004494017966389679,-0.016818632361396104,0.018234879664697185,1118.0,11.326874090984449,0.6714900473745126,10.638451621564963,-0.08651935207440845,0.13,0.9999999999838419,13728.750101977219,1.2467982567994624,251,2026-10-08 01:17:11.554244,237.0,0.041984355285000885,0.4823167323917683,0.18482391899174316
0276,cdot_cos,R,Q-R,252,50,55519,0.030440363821573144,0.04546271046504773,0.035388399624280045,0.9997722537490346,1118.0,11.428249331937382,0.6725845709923512,10.676997896894667,-0.3664376165235925,0.049,0.9999999999837158,-255.7443803742936,1.2517653777835707,252,2026-10-08 01:17:11.603244,237.0,0.4658504414851365,1.2655942219012526,2.068882468427207
0276,cdot_cos,S,R-S,253,50,55534,-0.020634250034873222,-0.041632751356925235,-0.05107461385644636,5.533505609548983e-06,1118.0,11.450902324730771,0.6725845770451038,10.698161517826854,-0.08232961499453637,0.015,0.9999999999833414,46938644.94277169,1.2567323881611299,253,2026-10-08 01:17:11.618243,237.0,0.031718336723429025,4.06520299222836,1.5101995195593076
0276,cdot_cos,T,S-T,254,50,55819,-0.006133486528638809,0.0028858461882767888,0.014500763506234414,0.9688314460753856,1118.0,11.550205421704232,0.6736434391726539,10.736158543308907,-0.36222372919436485,0.285,0.9999999999832351,-264.33480518130733,1.2617002974585019,254,2026-10-08 01:17:11.903244,237.0,0.4617597256855567,0.35206369353428296,0.348431919205127
0276,cdot_cos,P,T-P,255,51,56458,0.014014079998546909,8.791235472319546e-05,0.020147566527185717,0.9916322995810798,1078.0,11.651578630045313,0.6747253898496534,10.77455005815217,-0.3723614083486597,0.639,0.9999999999831116,-9.369816360214704,1.266669406167778,255,2026-10-08 01:17:12.542243,237.0,0.973141894491869,0.09813588234437794,0.1586435185306418
0276,cdot_cos,Q,P-Q,256,51,56568,-0.003575767215082598,-0.002697957703097459,-0.01758984721362951,0.015235207520825881,1078.0,11.675623079340347,0.674741998195665,10.795923830202398,-0.08879482203917394,0.11,0.9999999999826733,17073.7402815335,1.2716367308168066,256,2026-10-08 01:17:12.652243,237.0,0.041027872434496834,0.5746071234251153,0.21858590268213554
0276,cdot_cos,R,Q-R,257,51,56622,0.028181383583452166,0.03930518292162776,0.031757150798534764,0.9994616400901922,1078.0,11.777992197198838,0.6758305796188808,10.834440467653438,-0.379429786944226,0.054,0.9999999999825406,-266.9850492639207,1.2766038674433344,257,2026-10-08 01:17:12.706244,237.0,0.46487893977766576,1.1598442667635376,1.8957244047868602
0276,cdot_cos,S,R-S,258,51,56641,-0.01664166013062542,-0.030910242732881007,-0.04482304371407758,2.4347394701759574e-05,1078.0,11.80088626015081,0.6758306061141847,10.855499103292422,-0.08531009470645344,0.019,0.9999999999821448,11100823.527675062,1.281570886017248,258,2026-10-08 01:17:12.725244,237.0,0.03182019795632265,2.81385959925649,1.204950681682716
0276,cdot_cos,T,S-T,259,51,56937,-0.011652021750962482,0.0041334698609355415,0.004989638379662938,0.7654049665294623,1078.0,11.884918861970585,0.6766629770926809,10.889912088248868,-0.3141280381571432,0.296,0.9999999999819738,-274.89899259111957,1.286538858660854,259,2026-10-08 01:17:13.021244,237.0,0.48266978213049433,0.3154349377648301,0.2838939250668075
0276,cdot_cos,P,T-P,260,52,57536,0.01171706338846786,9.625398440044668e-05,0.02336908513943034,0.9960828776627416,1098.0,11.987623743307589,0.6777445343991779,10.928355224742392,-0.38627696947407664,0.599,0.9999999999818423,-66.70837586092303,1.2915078925384857,260,2026-10-08 01:17:13.620243,237.0,0.8296259785882388,0.10571272150029772,0.17146056984474858
0276,cdot_cos,Q,P-Q,261,52,57646,-0.007189618693265106,-0.0053010984190550005,-0.018906682081732965,0.011196618943485288,1098.0,12.011562702327941,0.6777566810194654,10.949549425242328,-0.09051154159796719,0.11,0.9999999999813837,24349.606793998333,1.2964752224928764,261,2026-10-08 01:17:13.730243,237.0,0.038093579082300474,0.5785494718026595,0.2176269001850205
0276,cdot_cos,R,Q-R,262,52,57701,0.024139707003558206,0.03503448632913965,0.03132932569682331,0.9994042242043615,1098.0,12.114904627104174,0.6788399130515241,10.988039273196808,-0.3921045343191119,0.055,0.9999999999812441,-278.41956644132176,1.3014423616806812,262,2026-10-08 01:17:13.785243,237.0,0.4633999537211388,1.1494992936786341,1.8789440868405969
0276,cdot_cos,S,R-S,263,52,57725,-0.016757233544262826,-0.03206014795964674,-0.04089694054782103,6.173641243842923e-05,1098.0,12.138007624632591,0.6788399799069771,11.008989926240243,-0.08811820830727929,0.024,0.9999999999808288,4546918.951135069,1.306409393036024,263,2026-10-08 01:17:13.809243,237.0,0.03175338030552185,2.393967747285767,0.9626248970173723
0276,cdot_cos,T,S-T,264,52,57995,-0.00937504785471335,0.005196595441687211,0.007382185689549476,0.8518995685922062,1098.0,12.22981507897389,0.6797618179784837,11.044877601056763,-0.35129119205920156,0.27,0.9999999999806729,-285.4872150396339,1.311377300171932,264,2026-10-08 01:17:14.079243,237.0,0.4727639456543864,0.36180510755903883,0.340027608671481
0276,cdot_cos,P,T-P,265,53,58634,0.012635962658931093,6.766598832983171e-05,0.022011010513644444,0.9946035854573204,1098.0,12.333382382714472,0.6808363021747684,11.083268223288266,-0.3987552052530132,0.639,0.9999999999805381,-44.17376575470176,1.316346540742121,265,2026-10-08 01:17:14.718244,237.0,0.887780763701928,0.0999603995556134,0.16207715765349154
0276,cdot_cos,Q,P-Q,266,53,58744,-0.006196970989363689,-0.004563285873183603,-0.018832933648294782,0.011391788990414712,1098.0,12.357564469605965,0.6808485977886046,11.104363196387604,-0.09358866860332217,0.11,0.9999999999800543,24819.138004419787,1.3213138761349363,266,2026-10-08 01:17:14.828243,237.0,0.03836073013321983,0.584087501461461,0.21983715355902558
0276,cdot_cos,R,Q-R,267,53,58796,0.024642347779316346,0.033190713519342246,0.030839318768680034,0.9993309072481177,1098.0,12.461881633035993,0.681926234992397,11.142825325893593,-0.4050938078243135,0.052,0.9999999999799074,-289.0630892518844,1.3262810034807437,267,2026-10-08 01:17:14.880243,237.0,0.4634900414691977,1.2272466746279072,2.00609929673132
0276,cdot_cos,S,R-S,268,53,58817,-0.021330736360515832,-0.03796036875138375,-0.04597308413983218,1.853889722942207e-05,1098.0,12.485198123767267,0.681926254965966,11.163672851551397,-0.09101074712821373,0.021,0.9999999999794703,15724934.305265868,1.3312480193789515,268,2026-10-08 01:17:14.901243,237.0,0.031712173972675874,2.9991490210822205,1.1103090824416062
0276,cdot_cos,T,S-T,269,53,59113,-0.005985327074006019,0.0024742778323149396,0.015345409286509813,0.9743408760748885,1098.0,12.587845891921447,0.682975071755214,11.201682841437915,-0.4019734284078846,0.296,0.9999999999793444,-296.4890383788046,1.3362160471765836,269,2026-10-08 01:17:15.197243,237.0,0.46135376632020614,0.3487560239079938,0.3467830005208768
0276,cdot_cos,P,T-P,270,54,59732,0.011818443174735217,9.460879234334363e-05,0.017803770248741236,0.985507044186121,1098.0,12.6916616899208,0.6840340202731774,11.239885654208132,-0.40915940635923115,0.619,0.9999999999791965,-6.785955907626988,1.3411852839498368,270,2026-10-08 01:17:15.816243,237.0,0.9825905435421358,0.10379134328937951,0.16771534410234704
0276,cdot_cos,Q,P-Q,271,54,59862,-0.005982602743079907,-0.005564781072662392,-0.017801045917815124,0.014502180700867317,1098.0,12.716339574913698,0.6840495889647682,11.260939622767276,-0.09775283394288348,0.13,0.9999999999786924,20002.102976993094,1.346152699950215,271,2026-10-08 01:17:15.946244,237.0,0.04135124997887977,0.4999572007844468,0.18982988456076172
0276,cdot_cos,R,Q-R,272,54,59909,0.025169018672635175,0.037320254964733734,0.03115162141571508,0.9993786126112156,1098.0,12.821650562124756,0.6851214675671322,11.299375199279439,-0.4185172596860551,0.047,0.9999999999785351,-299.25443519044853,1.3511198071682926,272,2026-10-08 01:17:15.993243,237.0,0.4646687098743576,1.3708442318796654,2.2406593023629178
0276,cdot_cos,S,R-S,273,54,59923,-0.022797891101427985,-0.04653786527636029,-0.04796690977406316,1.1557578672003839e-05,1098.0,12.845198932710387,0.6851214799517903,11.320127222618733,-0.09405645110791443,0.014,0.999999999978076,26198608.517477933,1.3560867915952992,273,2026-10-08 01:17:16.007244,237.0,0.03175709638148423,4.56459641018966,1.682026470402244
0276,cdot_cos,T,S-T,274,54,60211,-0.005877515680998564,0.0024291138072375217,0.016920375420429422,0.982191824400972,1098.0,12.949459261610066,0.6861730072514265,11.358246695014818,-0.41774873311762745,0.288,0.9999999999779452,-307.8306023264459,1.36105481792654,274,2026-10-08 01:17:16.295244,237.0,0.4607732489490284,0.3631164984770927,0.3620150309016634
0276,cdot_cos,P,T-P,275,55,60830,0.012318117047555319,5.350759266167204e-05,0.018195632728553884,0.9867754160893262,1058.0,13.054354035833192,0.6872275198947223,11.396442510470507,-0.42292393943221274,0.619,0.9999999999777904,-4.907675927346407,1.3660241237218675,275,2026-10-08 01:17:16.914243,237.0,0.9878378337286791,0.10474583345460094,0.16945843977887937
0276,cdot_cos,Q,P-Q,276,55,60940,-0.00601908152620727,-0.004651718746503767,-0.01833719857376259,0.01279382769738149,1058.0,13.079134603426862,0.6872411792732709,11.417373837156354,-0.10040880389554346,0.11,0.9999999999772627,23611.259794112946,1.3709914711492486,276,2026-10-08 01:17:17.024243,237.0,0.04027515543937187,0.5959331010476955,0.22527788721517858
0276,cdot_cos,R,Q-R,277,55,60990,0.02938957719650422,0.039694652015034644,0.03540865872271149,0.9997733443830928,1058.0,13.185459318063685,0.688307584585781,11.45578741446856,-0.4321712707378784,0.05,0.9999999999771013,-311.10353910505876,1.3759585885697985,277,2026-10-08 01:17:17.074244,237.0,0.4640957802915375,1.3010439100757765,2.126494292736467
0276,cdot_cos,S,R-S,278,55,61006,-0.01953061141002801,-0.036058530344916864,-0.04892018860653223,9.220383562020885e-06,1058.0,13.20923899443444,0.6883075944114991,11.476447241455714,-0.09713504986043447,0.016,0.9999999999766215,34097886.43559895,1.3809255752423688,278,2026-10-08 01:17:17.090244,237.0,0.031771694960977724,3.776440654458091,1.486229773172143
0276,cdot_cos,T,S-T,279,55,61289,-0.010967730308874827,0.00474059713001621,0.008562881101153184,0.8838497859767793,1058.0,13.306305419006344,0.6892486909888227,11.512788938352582,-0.3976497801210561,0.283,0.999999999976451,-319.32400722917896,1.385893609743581,279,2026-10-08 01:17:17.373244,237.0,0.46966897637230814,0.35971109826659603,0.34299089954736617
0276,cdot_cos,P,T-P,280,56,61888,0.011364661727078026,9.788558919843684e-05,0.02233239203595285,0.9949973729503564,1078.0,13.412835476053333,0.6903062643104163,11.551100164657104,-0.43894592534679644,0.599,0.9999999999762925,-39.048020957556545,1.3908629037131757,280,2026-10-08 01:17:17.972243,237.0,0.9102097091063374,0.11016182555731795,0.17784650592151705
0276,cdot_cos,Q,P-Q,281,56,62017,-0.005499092767918317,-0.00525581361054899,-0.016863754494996344,0.01804441578452887,1078.0,13.438279286024011,0.6903254252229148,11.572032333931798,-0.10535332222868596,0.129,0.9999999999757476,17410.0582706352,1.3958303329006063,281,2026-10-08 01:17:18.101243,237.0,0.042154345686607114,0.5143969043568363,0.19723883698200145
0276,cdot_cos,R,Q-R,282,56,62067,0.027468858955466767,0.04321271995756676,0.03296795172338508,0.9995958840660928,1078.0,13.545549877377397,0.691385848642931,11.610412581060398,-0.445515274425091,0.05,0.9999999999755772,-320.7793658416534,1.4007974490596198,282,2026-10-08 01:17:18.151244,237.0,0.46602090717377126,1.312673123400394,2.1454118270677114
0276,cdot_cos,S,R-S,283,56,62080,-0.019712003884107807,-0.04289850089524724,-0.047180862839574574,1.3924253010929913e-05,1078.0,13.56954659836405,0.6913858634004977,11.630980423839567,-0.10014837574591456,0.013,0.9999999999750769,23402699.451315597,1.4057644183141615,283,2026-10-08 01:17:18.164243,237.0,0.03179163189493172,4.913313057469687,1.8459016143579878
0276,cdot_cos,T,S-T,284,56,62347,-0.006987321063021684,0.0034407145185081428,0.012724682821086124,0.9532806011418588,1078.0,13.673296016871609,0.6923952775756387,11.668522372393232,-0.434237406071593,0.267,0.9999999999749234,-330.97319074106673,1.410732415744852,284,2026-10-08 01:17:18.431243,237.0,0.4633050748063291,0.3947082969866641,0.38857460115190273
0276,cdot_cos,P,T-P,285,57,62966,0.012165878051898093,0.00011277020897723561,0.019153199114919778,0.9894320806843143,1058.0,13.78032082895493,0.6934410285770768,11.706702612583056,-0.4505568341952024,0.619,0.9999999999747596,-15.60546258255267,1.4157018588316654,285,2026-10-08 01:17:19.050244,237.0,0.9644275403044704,0.10706247925087439,0.1728995348680462
0276,cdot_cos,Q,P-Q,286,57,63096,-0.005189939510343576,-0.005105442826425075,-0.01735581756224167,0.016090121998153933,1058.0,13.805839366184191,0.6934580181601467,11.72751259361671,-0.10794474995375229,0.13,0.99999999997419,20166.008949770498,1.420669300724417,286,2026-10-08 01:17:19.180243,237.0,0.041837683382579406,0.514441164663924,0.1962964402250915
0276,cdot_cos,R,Q-R,287,57,63145,0.02842560937061408,0.046955185948789294,0.033615548880957656,0.9996533627736542,1058.0,13.91407553176755,0.6945125221474793,11.765861975622755,-0.45917647814347795,0.049,0.9999999999740136,-333.07766723405115,1.4256364115510554,287,2026-10-08 01:17:19.229243,237.0,0.4653727234750587,1.3515979718419677,2.2089013384358847
0276,cdot_cos,S,R-S,288,57,63158,-0.01897615696139117,-0.04396382545240969,-0.04740176633200525,1.3214024440103027e-05,1058.0,13.938295967424704,0.6945125360731181,11.786342373297428,-0.10324336598479783,0.013,0.9999999999734908,25559553.54206768,1.4306033750202343,288,2026-10-08 01:17:19.242244,237.0,0.03182460411231833,4.888754231219996,1.8631104351657295
0276,cdot_cos,T,S-T,289,57,63465,-0.007921606729155343,0.0013595372228363404,0.011054550232235826,0.9321331774003004,1058.0,14.04118314177927,0.6954939817315667,11.823471288854375,-0.4397764885558081,0.307,0.9999999999733231,-342.89531944435777,1.4355715648483665,289,2026-10-08 01:17:19.549243,237.0,0.4652237849419223,0.34367157356178435,0.33513737574777
0276,cdot_cos,P,T-P,290,58,64024,0.012051542035088937,7.283883552979858e-05,0.019973148764244282,0.9912822338151159,1038.0,14.14931031359164,0.6965357578439009,11.861651282112224,-0.46476161760057955,0.559,0.9999999999731466,-23.983204019519505,1.440540824411587,290,2026-10-08 01:17:20.108243,237.0,0.9476604463064617,0.11936023661921048,0.19342964546041178
0276,cdot_cos,Q,P-Q,291,58,64134,-0.0069312198126787235,-0.005509995166528246,-0.018982761847767662,0.0109987435562923,1038.0,14.174627886319547,0.696547305554434,11.882284169873115,-0.10933563352447542,0.11,0.9999999999725585,30778.91353929485,1.4455081907512668,291,2026-10-08 01:17:20.218244,237.0,0.03874401354198411,0.6111431803920536,0.23015975207188302
0276,cdot_cos,R,Q-R,292,58,64186,0.022462198539710237,0.033753527832559485,0.029393418352388963,0.9990576962635359,1038.0,14.283761813277891,0.6975951925298477,11.920589361293155,-0.4726111343429798,0.052,0.999999999972379,-346.67431635466977,1.4504753134986978,292,2026-10-08 01:17:20.270243,237.0,0.4636356617190692,1.2843978629091086,2.0987293645835514
0276,cdot_cos,S,R-S,293,58,64207,-0.01790847994483598,-0.03687450986563166,-0.040370678484546216,6.993664900287948e-05,1038.0,14.308205264062094,0.6975952658128907,11.94098511926748,-0.10635139841411932,0.021,0.9999999999718373,4997878.378118268,1.4554423057664447,293,2026-10-08 01:17:20.291244,237.0,0.03194103137782214,2.961569815674932,1.1639738468667915
0276,cdot_cos,T,S-T,294,58,64483,-0.009213254411682976,0.0034160586376831953,0.008695225533153002,0.8870311969249804,1038.0,14.408147745536239,0.6985239304371306,11.977267851755531,-0.4359686804122794,0.276,0.9999999999716466,-354.9368344551141,1.460410393437515,294,2026-10-08 01:17:20.567244,237.0,0.46951395816895986,0.37912786260001236,0.362110440123712
0276,cdot_cos,P,T-P,295,59,65062,0.012753529934057903,0.00010690444173719281,0.02196678434574088,0.9945470349733169,1058.0,14.5174838442173,0.6995632267837122,12.015471462930488,-0.479477355999657,0.579,0.9999999999714702,-41.86358946654948,1.4653798015897646,295,2026-10-08 01:17:21.146244,237.0,0.913253411569541,0.11657573857385596,0.18883609444052213
0276,cdot_cos,Q,P-Q,296,59,65172,-0.005710420807935417,-0.004428816490334856,-0.01846395074199332,0.012419915413194796,1058.0,14.543142450804764,0.6995761926006928,12.036045060900815,-0.1130451111344782,0.11,0.9999999999708614,28261.408086565123,1.4703471744423429,296,2026-10-08 01:17:21.256243,237.0,0.039106398128513783,0.6170719113663978,0.23326005988602622
0276,cdot_cos,R,Q-R,297,59,65227,0.025568058583102703,0.03931247603830275,0.031278479391038116,0.999397005686641,1058.0,14.653239664717908,0.7006184692336307,12.074321448425959,-0.48635506867354694,0.055,0.9999999999706771,-358.1678277549172,1.4753143097147403,297,2026-10-08 01:17:21.311244,237.0,0.4641410875240063,1.224992605423416,2.001767525693539
0276,cdot_cos,S,R-S,298,59,65251,-0.016542803840926126,-0.03454722408474525,-0.042110862424028825,4.630221778086534e-05,1058.0,14.67789163740134,0.7006185174744743,12.094632335590186,-0.10940359184178508,0.024,0.9999999999701151,7813948.685115516,1.4802813107068353,298,2026-10-08 01:17:21.335244,237.0,0.031888405248946386,2.53345890206876,1.0271655284762964
0276,cdot_cos,T,S-T,299,59,65541,-0.00947231365564073,0.002803272282066291,0.007070490185285395,0.8423351202574226,1058.0,14.774845692017209,0.7014953829437004,12.1300704764184,-0.431329454534644,0.29,0.9999999999699003,-367.1325579475728,1.4852494867884343,299,2026-10-08 01:17:21.625243,237.0,0.47409040699306404,0.35722280232202375,0.3343243262616185
0276,cdot_cos,P,T-P,300,60,66120,0.012307796630690858,0.00011746314036091654,0.02178011028633159,0.994301775586611,1038.0,14.885080862748113,0.702528543370456,12.168233797361891,-0.4928797255650963,0.579,0.999999999969717,-59.574746996200886,1.4902189580573613,300,2026-10-08 01:17:22.204243,237.0,0.8826037918411189,0.11737514705123539,0.19038889590829775
0276,cdot_cos,Q,P-Q,301,60,66230,-0.006968239449703658,-0.0055647007680742575,-0.019276036080394517,0.010267810829052074,1038.0,14.91076611230254,0.7025392017009209,12.188684856069177,-0.11536769753353654,0.11,0.999999999969084,35419.43358537139,1.495186336911628,301,2026-10-08 01:17:22.314244,237.0,0.037920982523318804,0.6214539545419839,0.23350226867660176
0276,cdot_cos,R,Q-R,302,60,66286,0.02603739054520561,0.04242455792773075,0.03300562999490927,0.9995994752172352,1038.0,15.02180073274735,0.7035757640769276,12.226928685060493,-0.4999979832361185,0.056,0.9999999999688935,-371.063328754371,1.5001534760172544,302,2026-10-08 01:17:22.370244,237.0,0.4633541223033027,1.213285224942779,1.982761079371612
0276,cdot_cos,S,R-S,303,60,66309,-0.016825860141156338,-0.03740984418630584,-0.042863250686361945,3.874033883036944e-05,1038.0,15.04665405749613,0.7035758042092702,12.24715591271357,-0.11242546527127595,0.023,0.9999999999683093,9657360.925554644,1.5051204680607548,303,2026-10-08 01:17:22.393243,237.0,0.031829140533908985,2.7161678456696903,1.0805793369035215
0276,cdot_cos,T,S-T,304,60,66599,-0.008832539421018968,0.0020873875173447153,0.00799332072013737,0.8692583355009353,1038.0,15.146744453648155,0.7044755041663334,12.283035582111076,-0.45384252267879427,0.29,0.9999999999680976,-379.4787970447151,1.5100886723545464,304,2026-10-08 01:17:22.683244,237.0,0.4712903638475955,0.36459993732058127,0.3451392970759474
0276,cdot_cos,P,T-P,305,61,67158,0.015549586906416406,0.00015371512546328097,0.024382126327435374,0.9969163839234245,879.0,15.258122021142068,0.7055053785379997,12.321208352275887,-0.5075277083897684,0.559,0.9999999999679091,-52.12789752609973,1.515058116159867,305,2026-10-08 01:17:23.242244,237.0,0.8996244847205439,0.12245635740919254,0.19924430678696306
0276,cdot_cos,Q,P-Q,306,61,67288,-0.005995817181953569,-0.008155298923019605,-0.021545404088369975,0.006022208753797698,879.0,15.283650661231633,0.7055115934841082,12.341501844168214,-0.1168526938244846,0.13,0.9999999999672545,62860.56350981562,1.5200255932495699,306,2026-10-08 01:17:23.372243,237.0,0.03531978434003476,0.528047464222749,0.19637415453511461
0276,cdot_cos,R,Q-R,307,61,67323,0.019181143112510676,0.04785402013693436,0.025176960294464243,0.9974444770104761,879.0,15.395414361839983,0.7065399051477188,12.379668924272304,-0.51282565356602,0.035,0.9999999999670555,-385.07096024875614,1.5249926348771914,307,2026-10-08 01:17:23.407244,237.0,0.4620234963842827,1.9558018757648095,3.193248588809995
0276,cdot_cos,S,R-S,308,61,67346,-0.009855580535215716,-0.044109386122882455,-0.029036723647726394,0.001025341683466521,879.0,15.42055679253517,0.7065409611392622,12.399833281691208,-0.11588106651021539,0.023,0.9999999999664533,375897.5055484703,1.5299596226590537,308,2026-10-08 01:17:23.430244,237.0,0.03253469669093315,1.8731407935399804,1.0931491606602977
0276,cdot_cos,T,S-T,309,61,67618,-0.011349207606434387,-0.0017553819904410318,-0.0014936270712186707,0.41241528512175596,879.0,15.481578838342822,0.7069655242516201,12.427409460286915,-0.2817955573140625,0.272,0.9999999999660375,-390.7887566643084,1.5349277685765055,309,2026-10-08 01:17:23.702244,237.0,0.5550061381453636,0.31789049563525873,0.2243457566457803
0276,cdot_cos,P,T-P,310,62,68037,0.009775785509960349,6.384974334411683e-05,0.021124993116394736,0.9933510380441327,1238.0,15.59348922216075,0.707986656723246,12.465482131024151,-0.5186224205418248,0.419,0.9999999999658457,-231.92569995415477,1.5398966086968322,310,2026-10-08 01:17:24.121243,237.0,0.6334045141292848,0.16590975635299696,0.2670892215225024
0276,cdot_cos,Q,P-Q,311,62,68166,-0.006113026263363798,-0.004780021356267989,-0.015888811773324147,0.022628682713247604,1238.0,15.620611214166633,0.7080098939033374,12.48598326143314,-0.12624787440942392,0.129,0.999999999965199,16885.635201434372,1.5448640898687214,311,2026-10-08 01:17:24.250243,237.0,0.04469160851373154,0.542302015869701,0.2102480000456042
0276,cdot_cos,R,Q-R,312,62,68216,0.026291856262513104,0.03240239573753451,0.0324048825258769,0.9995382186496902,1238.0,15.733403142255133,0.7090352252380733,12.524152233352705,-0.5262842010344182,0.05,0.9999999999650088,-390.1532246920206,1.5498312012373938,312,2026-10-08 01:17:24.300243,237.0,0.46761281625458206,1.3798611072148148,2.2558385617699983
0276,cdot_cos,S,R-S,313,62,68231,-0.023082706608336452,-0.03634768000220154,-0.049374562870849556,8.279071947389462e-06,1238.0,15.758597324888115,0.7090352337219903,12.544207050405562,-0.11807373041178747,0.015,0.999999999964393,48115801.932045504,1.5547981485424227,313,2026-10-08 01:17:24.315244,237.0,0.031516295158197906,4.567471022086049,1.6796121755321045
0276,cdot_cos,T,S-T,314,62,68516,-0.005490945242836155,0.004662497979126044,0.017591761365500298,0.9847715971969956,1238.0,15.870427272917714,0.7100433382501469,12.582092989388341,-0.5252944432600734,0.285,0.9999999999642323,-403.94691371233915,1.5597663841196108,314,2026-10-08 01:17:24.600243,237.0,0.4606007234838804,0.392549580747707,0.3923857825599997
0276,cdot_cos,P,T-P,315,63,69275,0.011648274575489632,8.232781206487085e-05,0.017139219818325786,0.9830766887536576,1058.0,15.982350585914308,0.7110476436764621,12.61993792308949,-0.5283645685979709,0.759,0.9999999999640405,-3.0569638054846404,1.5647369076778261,315,2026-10-08 01:17:25.359244,237.0,0.9942062297392418,0.09161788064444061,0.14746154545005677
0276,cdot_cos,Q,P-Q,316,63,69404,-0.004725963735933241,-0.004621401059598783,-0.016374238311422873,0.020219234576024907,1058.0,16.009503215735975,0.7110682778453974,12.640324317358754,-0.12873660482692284,0.129,0.9999999999633264,19367.29145838704,1.5697043951538268,316,2026-10-08 01:17:25.488243,237.0,0.044859070087500806,0.5460363360926989,0.2104855024935486
0276,cdot_cos,R,Q-R,317,63,69453,0.02956902188983025,0.0482452745740554,0.03429498562576349,0.9997049030860671,1058.0,16.123227960626224,0.7120874065912385,12.678454290799063,-0.5404272702613695,0.049,0.9999999999631134,-403.9633531234335,1.5746714978240146,317,2026-10-08 01:17:25.537244,237.0,0.4668312836322157,1.4197608530137447,2.32091316102548
0276,cdot_cos,S,R-S,318,63,69466,-0.018124491332193116,-0.04135050272486769,-0.047693513222023365,1.2331236463297032e-05,1058.0,16.148639779331322,0.7120874191488523,12.698436287914673,-0.1212825578310875,0.013,0.9999999999624607,33377735.439904377,1.5796384270708403,318,2026-10-08 01:17:25.550244,237.0,0.03155776427180311,4.991656431722519,1.9547552850075736
0276,cdot_cos,T,S-T,319,63,69734,-0.00928129740128707,0.004023431296763629,0.008843193930906046,0.8904978945665056,1058.0,16.25301102785101,0.7129934134254425,12.73456786270533,-0.49919033821589065,0.268,0.9999999999622358,-417.11939043046726,1.5846066054195684,319,2026-10-08 01:17:25.818244,237.0,0.4690520875440388,0.40689230243450725,0.3894449571630113
0276,cdot_cos,P,T-P,320,64,70333,0.011830814519800094,3.20553423574575e-05,0.021112111921087164,0.9933308443689892,1038.0,16.36673405343622,0.7140020176693384,12.772555795699331,-0.5464267982557243,0.599,0.9999999999620302,-46.83349324149076,1.5895764251268245,320,2026-10-08 01:17:26.417243,237.0,0.9171849931308812,0.11722996553131193,0.18985480064308657
0276,cdot_cos,Q,P-Q,321,64,70442,-0.006461686077216546,-0.0051155083205710345,-0.01829250059701664,0.012928317007112972,1038.0,16.39345252655752,0.7140151307570799,12.79273531897237,-0.12892964569122853,0.109,0.9999999999613023,31838.203235822806,1.5945438222298374,321,2026-10-08 01:17:26.526243,237.0,0.03923531361480263,0.6482173722108309,0.24512360661745708
0276,cdot_cos,R,Q-R,322,64,70494,0.024658185413116998,0.036532128744761715,0.031119871490333545,0.9993739221397098,1038.0,16.50804544057818,0.7150276959347953,12.83081610896249,-0.5541654034543727,0.052,0.9999999999610862,-419.95889955703825,1.5995109387238222,322,2026-10-08 01:17:26.578244,237.0,0.4642442474334422,1.3481790128818416,2.2037098850126595
0276,cdot_cos,S,R-S,323,64,70514,-0.017490581906729787,-0.0352206436892504,-0.042148767319846785,4.588814541861958e-05,1038.0,16.533663143897233,0.7150277423791077,12.850725099362203,-0.12441498908318711,0.02,0.9999999999604127,9253025.660218677,1.6044778972583746,323,2026-10-08 01:17:26.598243,237.0,0.03161356026400053,3.1870020398478083,1.280885165952661
0276,cdot_cos,T,S-T,324,64,70792,-0.01006252833524513,0.003750585940524754,0.007428053571484657,0.8532658473526407,1038.0,16.63552552217209,0.7158905621920234,12.886132852883366,-0.49570301150996987,0.278,0.9999999999601615,-430.3193052233043,1.609446151772979,324,2026-10-08 01:17:26.876243,237.0,0.4728329870658075,0.3895720760044001,0.36641143264337805
0276,cdot_cos,P,T-P,325,65,71371,0.012109795118077254,4.0280124828420855e-05,0.022172323453322384,0.9948049511358877,1058.0,16.75026521815568,0.7168945139269458,12.9241035650132,-0.5608145716967982,0.579,0.9999999999599491,-64.85526935402011,1.6144159371481897,325,2026-10-08 01:17:27.455244,237.0,0.890384610959393,0.12229281797119324,0.19816873226871737
0276,cdot_cos,Q,P-Q,326,65,71480,-0.006366097547806025,-0.004915584474399458,-0.01847589266588328,0.012385248560255413,1058.0,16.777140605382733,0.7169069995151993,12.944199960169888,-0.13191401714755838,0.109,0.9999999999592009,34351.64974535619,1.6193833404522664,326,2026-10-08 01:17:27.564243,237.0,0.0387213358756755,0.6530401369577538,0.24656318556930645
0276,cdot_cos,R,Q-R,327,65,71533,0.02544469622925175,0.036168811616826606,0.031810793777057776,0.9994684375284862,1058.0,16.89262796801247,0.7179134658848605,12.982237967841423,-0.5680273897403786,0.053,0.9999999999589794,-433.3114207677275,1.624350461194832,327,2026-10-08 01:17:27.617243,237.0,0.4640475699345811,1.3330055260533669,2.179006842070489
0276,cdot_cos,S,R-S,328,65,71551,-0.021436230274814082,-0.04051603117214289,-0.046880926504065834,1.4950070661066322e-05,1058.0,16.91843919114439,0.7179134809233504,13.002073581451413,-0.12748715998585622,0.018,0.999999999958284,29294179.98403052,1.6293174046595686,328,2026-10-08 01:17:27.635243,237.0,0.031569447276868286,3.8421691231028556,1.433956840662276
0276,cdot_cos,T,S-T,329,65,71850,-0.007717283944965638,0.0023003960806395286,0.013718946329848443,0.962723038292308,1058.0,17.030946056444172,0.718880887840623,13.039425456815184,-0.5567990734030721,0.299,0.9999999999580798,-443.77593931990117,1.6342857952885217,329,2026-10-08 01:17:27.934243,237.0,0.46253381537670885,0.3810025732176111,0.37627714147084224
0276,cdot_cos,P,T-P,330,66,72429,0.012346023196316624,6.991628012443896e-05,0.020063307141282263,0.9914649619324427,1018.0,17.14627872992852,0.7198750619542971,13.077288416120302,-0.5733742806990437,0.579,0.9999999999578567,-16.672338444536678,1.639255647767427,330,2026-10-08 01:17:28.513243,237.0,0.9715056633739539,0.12284680093162942,0.1991928730299648
0276,cdot_cos,Q,P-Q,331,66,72538,-0.006833785806720224,-0.005571023188243051,-0.019179809003036848,0.010502179724888592,1018.0,17.173202651923,0.7198855813284359,13.097281965342301,-0.1344071319209236,0.109,0.9999999999570846,41729.397869400476,1.644223057415576,331,2026-10-08 01:17:28.622243,237.0,0.03816061517686993,0.6571812479067884,0.24700845866492882
0276,cdot_cos,R,Q-R,332,66,72594,0.022456382166740795,0.03648691975898628,0.02929016797346102,0.999034375871453,1018.0,17.2895442419722,0.7208851471431796,13.135264477738184,-0.5819342200853409,0.056,0.9999999999568547,-447.7214822309321,1.6491901929928963,332,2026-10-08 01:17:28.678244,237.0,0.46346064490760797,1.2711548886175095,2.0775283937357614
0276,cdot_cos,S,R-S,333,66,72616,-0.01648639904270995,-0.03771731072397592,-0.038942781209450744,9.80986208532152e-05,1018.0,17.31557199944816,0.7208852451865914,13.155033412545722,-0.13072857779476824,0.022,0.9999999999561362,4602100.583435729,1.6541571520323446,333,2026-10-08 01:17:28.700243,237.0,0.03169903418473254,3.077769459815921,1.1830798852708375
0276,cdot_cos,T,S-T,334,66,72888,-0.006244112554300686,0.0019342361491650705,0.010242286488409264,0.9188946011345551,1018.0,17.424966098204102,0.7218026959910373,13.191537501668789,-0.5504804677832624,0.272,0.9999999999559017,-457.51977975755045,1.659125430800768,334,2026-10-08 01:17:28.972243,237.0,0.4664897949338563,0.41502859595237923,0.4021841866027282
0276,cdot_cos,P,T-P,335,67,73447,0.014881976033286922,0.00012243946178794156,0.021126088587587608,0.9933527525946246,1058.0,17.541347555646254,0.7227924004753495,13.229386152719883,-0.5881556312355452,0.559,0.9999999999556759,-38.06708370980439,1.6640952433356728,335,2026-10-08 01:17:29.531244,237.0,0.937952047983265,0.1284679975897978,0.20819580937773205
