record_id,input,event,transition,event_index,k,peak,value_cos,value_sin,value_return,x_input,rr,knowledge,decision,decision_norm,entropy,delta_t,cosine_similarity,delta_h_over_delta_d,frobenius_norm,matrix_size,timestamp,scale,P,zdot,zdot_back
0248,cdot_cos,Q,P-Q,1,0,986,-0.004431391091700426,-0.004688022799756418,-0.049477026495062096,0.15811464237900175,1040.0,0.0007853778066795981,0.5001963444415775,0.5001963444415775,,,1.0,,0.004967141530112327,1,2026-10-07 21:16:17.070244,33.8,,,
0248,cdot_cos,R,Q-R,2,0,1015,0.12732365686021246,0.1942879167238776,0.1317550479519129,0.9884940760485692,1040.0,0.008054466362963529,0.5014238380972462,0.7091203923342966,-1.1587922957309144e-05,,1.0,,0.009934283060224654,2,2026-10-07 21:16:17.099244,33.8,,,
0248,cdot_cos,S,R-S,3,0,1042,-0.0011339654579684564,-0.002630476541798883,-0.12845762231818092,0.012845060911434787,1040.0,0.009975176815426267,0.50143978877532,0.8685191910954604,-6.2449646210792965e-06,0.027,1.0,0.33496747357743645,0.01490142459403941,3,2026-10-07 21:16:17.126244,33.8,0.4250439826094401,0.06415350304296281,0.07113742416528661
0248,cdot_cos,T,S-T,4,0,1291,-0.29956101335002394,0.07788625179451243,-0.2984270478920555,4.16222431760872e-05,1040.0,0.011518755527283521,0.5014398404607846,1.0028796809218035,-5.983091001753236e-06,0.249,0.9999999999999999,5.06667825238478,0.01986856616207074,4,2026-10-07 21:16:17.375243,33.8,0.9571750858821408,0.028132479929956013,0.006199111292599414
0248,cdot_cos,P,T-P,5,1,1890,0.052875431625841726,-0.001270639257947935,0.3524364449758657,0.9999932929982988,1178.0,0.02398515182054436,0.5026815957832381,1.1240302192125333,-7.981584942123259e-05,0.599,0.9999999999999999,-0.05945837886452306,0.024835707883078165,5,2026-10-07 21:16:17.974244,33.8,0.3965160297322909,0.013687160846647969,0.020812013845176697
0248,cdot_cos,Q,P-Q,6,1,2018,-0.0020993270461135273,-0.0017113918663487976,-0.054974758671955254,0.13491919873079905,1178.0,0.027915974221567788,0.5028491313455842,1.2317237894098931,-3.679007327516883e-05,0.128,1.0,0.25681578014577805,0.02980284946259318,6,2026-10-07 21:16:18.102243,33.8,0.31052397442069407,0.07485596911493123,0.03070955000799552
0248,cdot_cos,R,Q-R,7,1,2045,0.1306556323083387,0.29343204416773006,0.13275495935445222,0.9888721890633833,1178.0,0.043148279913966754,0.5040770388500444,1.3336624864327757,-0.0001951967238451775,0.027,1.0000000000000002,-0.12900536074143684,0.03476999098215946,7,2026-10-07 21:16:18.129244,33.8,0.4441810183535642,0.35111468899754394,0.5641594700888506
0248,cdot_cos,S,R-S,8,1,2100,0.04553149287862189,0.38662795630469504,-0.08512413942971682,0.0532924321067421,1178.0,0.04687616742743516,0.5041432121413387,1.4259323359963794,-6.051708399328692e-05,0.055,1.0,2.035256781363107,0.03973713256831799,8,2026-10-07 21:16:18.184243,33.8,0.10801541634793378,0.059805071239881,0.06777977297215283
0248,cdot_cos,T,S-T,9,1,2330,-0.1805356829349658,0.22108559669058347,-0.2260671758135877,0.0004800833894331226,1178.0,0.049726837750353664,0.504143808260933,1.5124314248100952,-4.9658357759034967e-05,0.23,1.0000000000000002,18.21568413305618,0.044704274450512976,9,2026-10-07 21:16:18.414243,33.8,0.8035879399662595,0.046161079443617484,0.012394218795297843
0248,cdot_cos,P,T-P,10,2,3068,0.02741306235130843,-0.0005412646723539132,0.20794874528627422,0.9991146728409002,1039.0,0.0681102639714992,0.5053843809830211,1.598165737849134,-0.0003906094034836774,0.738,1.0000000000000002,-0.27483358263009405,0.049671417571601435,10,2026-10-07 21:16:19.152243,33.8,0.41775107918270105,0.01579415351669848,0.024909791627568484
0248,cdot_cos,Q,P-Q,11,2,3199,-0.038462859858404995,-0.02526948021990153,-0.06587592220971342,0.09738655942537734,1039.0,0.07303900834100062,0.5055052998474984,1.676571409342374,-0.00012544311656298478,0.131,1.0,2.192927365526886,0.05463855929079722,11,2026-10-07 21:16:19.283243,33.8,0.12077368141741454,0.09659318538049365,0.037624002820621484
0248,cdot_cos,R,Q-R,12,2,3229,0.12192353432321952,0.17557664018309,0.1603863941816245,0.9955970161881378,1039.0,0.09341767854118854,0.5067414316130515,1.7554038119542303,-0.0006116214142522159,0.03,0.9999999999999998,-0.3933062083164522,0.05960570073106565,12,2026-10-07 21:16:19.313244,33.8,0.45162607372721153,0.4085764093999624,0.6792890066729308
0248,cdot_cos,S,R-S,13,2,3258,0.003512006924484914,-0.08211581273602175,-0.1184115273987346,0.01794546109789505,1039.0,0.09755359290499836,0.5067637119598926,1.827162548264879,-0.00014241136530564798,0.029,1.0,21.059369151393074,0.06457284221657557,13,2026-10-07 21:16:19.342243,33.8,0.0370772603376476,0.14753638784385265,0.14261773668309724
0248,cdot_cos,T,S-T,14,2,3509,-0.09071170477402023,0.04504052664082624,-0.09422371169850514,0.03974322045561104,1039.0,0.101974789036132,0.5068130554129817,1.896320812755304,-0.0001590553825870251,0.251,0.9999999999999999,-0.3373095363087718,0.06953998479237496,14,2026-10-07 21:16:19.593244,33.8,0.9006460814294137,0.054012407973995195,0.017614327215671848
0248,cdot_cos,P,T-P,15,3,4107,0.05839319385792127,-0.0035794369553880877,0.14910489863194148,0.9935662653578329,997.0,0.12466782170794395,0.5080465784186234,1.9676559377046614,-0.0009272698996503261,0.598,0.9999999999999998,-0.6227808590109335,0.07450712956573603,15,2026-10-07 21:16:20.191243,33.8,0.4367173181669819,0.024340632384067116,0.03794821517025411
0248,cdot_cos,Q,P-Q,16,3,4233,-0.0013294600167792446,-0.001336288392548485,-0.059722653874700514,0.11726117111905965,997.0,0.13108618536747627,0.5081921532281479,2.0327686136737553,-0.00029594752953625666,0.126,1.0,4.336755597869325,0.07947427156536375,16,2026-10-07 21:16:20.317244,33.8,0.11845478041574235,0.1223106417949342,0.050939394123272336
0248,cdot_cos,R,Q-R,17,3,4258,0.1530150262079203,0.210843433131875,0.15434448622469954,0.9946048420241195,997.0,0.15549010344026737,0.5094268549469705,2.100420732325209,-0.0012607528591259535,0.025,1.0,-0.7814076184406353,0.08444141288549442,17,2026-10-07 21:16:20.342243,33.8,0.46521237073476895,0.5806122497657834,0.9761567229116441
0248,cdot_cos,S,R-S,18,3,4317,-2.2798336613111768e-05,-8.897783753821247e-05,-0.1530378245445334,0.00563740276330346,997.0,0.16011679785576544,0.509433852901075,2.1613447925698366,-0.00026323717848964596,0.059,0.9999999999999999,142.54390150846035,0.08940855459741474,18,2026-10-07 21:16:20.401243,33.8,0.022608758191458217,0.07640350154231836,0.07841854941522149
0248,cdot_cos,T,S-T,19,3,4547,-0.2866082299383546,0.13126566653901295,-0.2865854316017415,6.210713394996411e-05,997.0,0.16450571662226093,0.5094339299973506,2.2205710201789484,-0.00025684203210462264,0.23,1.0,82.95013392577773,0.09437569796202004,19,2026-10-07 21:16:20.631244,33.8,0.9754082842034456,0.06712164272262729,0.019082255506502162
0248,cdot_cos,P,T-P,20,4,5104,0.046760580636110334,-5.843628812360898e-05,0.33336881057446494,0.9999872231877689,1001.0,0.190992753508174,0.5106751967320343,2.2838089098274024,-0.0016972962463947128,0.557,1.0000000000000002,-1.160471133271063,0.09934284512447236,20,2026-10-07 21:16:21.188244,33.8,0.42798129864470713,0.0309641308527154,0.047553028520490224
0248,cdot_cos,Q,P-Q,21,4,5237,-0.005841661406585078,-0.006466830294919552,-0.05260224204269541,0.14455573730042054,1001.0,0.1989997583921859,0.5108546207241259,2.3410299705238877,-0.0005628675170487278,0.133,0.9999999999999999,6.32261447380411,0.10430998763718638,21,2026-10-07 21:16:21.321243,33.8,0.13326104010758485,0.1343731184702244,0.060203044240691
0248,cdot_cos,R,Q-R,22,4,5267,0.12864110680171356,0.20554584044401886,0.13448276820829863,0.9894968104656008,1001.0,0.22673600302125368,0.5120827163125279,2.4018808450640377,-0.002128230460820561,0.03,0.9999999999999998,-1.2746263064170058,0.10927712889173362,22,2026-10-07 21:16:21.351244,33.8,0.47925463272390867,0.5520023931410767,0.9245414876355931
0248,cdot_cos,S,R-S,23,4,5295,-0.0016243006169631327,-0.00417614391132265,-0.1302654074186767,0.012092892721059996,1001.0,0.2321199019806505,0.512097724309725,2.4559344114180615,-0.00044524951878500366,0.028,0.9999999999999996,112.13894298695577,0.11424427020706701,23,2026-10-07 21:16:21.379244,33.8,0.022825881906094966,0.18697323429603643,0.1922821056927432
0248,cdot_cos,T,S-T,24,4,5546,-0.16583352897128886,0.06368289843255708,-0.16420922835432572,0.003871354682060225,1001.0,0.23720650414183173,0.5121025288859199,2.5087797857002787,-0.00043026180250817285,0.251,0.9999999999999998,3.119466872594771,0.11921141513607093,24,2026-10-07 21:16:21.630244,33.8,0.9657657724768316,0.06929959581317871,0.020265347255702115
0248,cdot_cos,P,T-P,25,5,6105,0.037976996752289036,0.001225873101062668,0.20381052572357788,0.9989818972073652,918.0,0.2669082990788662,0.5133422462073673,2.566711233818796,-0.0026982820425770744,0.559,0.9999999999999999,-1.8294656377155687,0.12417856584738646,25,2026-10-07 21:16:22.189243,33.8,0.4314764629333107,0.03532155088990642,0.05313380131848744
0248,cdot_cos,Q,P-Q,26,5,6238,-0.00733941524086427,-0.009341252966628149,-0.045316411993153304,0.17774586254013777,918.0,0.2766959980367471,0.5135628086408526,2.6186667869174456,-0.0009588007501510484,0.133,0.9999999999999997,7.886571003681509,0.12914570896524136,26,2026-10-07 21:16:22.322243,33.8,0.16296398646542637,0.15191352362694188,0.07359172148782629
0248,cdot_cos,R,Q-R,27,5,6268,0.11130532398297811,0.22314623495454883,0.11864473922384239,0.9821929299958565,918.0,0.30731729636363275,0.5147815009733687,2.6748831480202404,-0.0032221901017143533,0.03,0.9999999999999994,-1.8572278590530282,0.13411285007832358,27,2026-10-07 21:16:22.352243,33.8,0.49537601412872356,0.613718894991544,1.0207099442295218
0248,cdot_cos,S,R-S,28,5,6295,-0.0017907975548914247,-0.006506621248944444,-0.11309612153786953,0.021401741375781706,918.0,0.31351913173623974,0.5148080540742419,2.724108172635472,-0.000693746626715255,0.027,0.9999999999999999,95.2221545451451,0.13907999123422396,28,2026-10-07 21:16:22.379244,33.8,0.02613131360553358,0.2192167998810888,0.22969760639285147
0248,cdot_cos,T,S-T,29,5,6544,-0.17136703015771543,0.019488465362606757,-0.169576232602824,0.0032311632840032424,918.0,0.31915500355721155,0.514812062965282,2.772347808416704,-0.0006424575541797345,0.249,0.9999999999999994,12.793830518739346,0.144047137828721,29,2026-10-07 21:16:22.628243,33.8,0.923270866585398,0.0768828948550981,0.022634023377396808
0248,cdot_cos,P,T-P,30,6,7023,0.0614866714040125,-0.004205273200803477,0.2328537015617279,0.99961828522877,919.0,0.3518068133740786,0.5160521912252846,2.8265342655351557,-0.00394676948567464,0.479,0.9999999999999998,-2.664492083656068,0.149014290874785,30,2026-10-07 21:16:23.107244,33.8,0.43291261359548006,0.043298273068007674,0.0681666175717475
0248,cdot_cos,Q,P-Q,31,6,7148,-0.0006944221246449717,-0.0007851593143126513,-0.06218109352865747,0.10892966536500474,919.0,0.3606347491563629,0.5161873178957361,2.8740093609376807,-0.0011330198916140956,0.125,0.9999999999999996,20.82305132404661,0.15398143456050878,31,2026-10-07 21:16:23.232243,33.8,0.08345839318144188,0.1701998532667668,0.07062348625827441
0248,cdot_cos,R,Q-R,32,6,7173,0.15458743946751974,0.25491503266791443,0.1552818615921647,0.9947722192160929,919.0,0.3943567766907703,0.5174212155612243,2.926976410391929,-0.004585775143962036,0.025,0.9999999999999994,-2.7982508995037474,0.15894857540220697,32,2026-10-07 21:16:23.257244,33.8,0.47098582067499095,0.7997809568449865,1.3488811013762958
0248,cdot_cos,S,R-S,33,6,7232,-1.8689187792466067e-05,-0.00013261053005725535,-0.1546061286553122,0.005347910206366857,919.0,0.4006237969986122,0.5174278484527874,2.9723966988872808,-0.0008973755170705174,0.059,0.9999999999999992,556.0771786782369,0.1639157175196354,33,2026-10-07 21:16:23.316243,33.8,0.016404369419683276,0.10417498733353245,0.10622068318376154
0248,cdot_cos,T,S-T,34,6,7462,-0.30804168581526586,0.09193875345890928,-0.3080229966274734,3.0093318735148156e-05,919.0,0.4066494251961271,0.5174278857768297,3.01709711966137,-0.0008761520341363521,0.23,0.9999999999999991,568.6276626430182,0.16888286545210474,34,2026-10-07 21:16:23.546243,33.8,0.9760675185365613,0.08988747136954674,0.02619838346745608
0248,cdot_cos,P,T-P,35,7,7942,0.04337331457362777,-0.0026682054058105808,0.3514150003888936,0.9999930573982082,978.0,0.4419720338286037,0.51866804396721,3.06848153908961,-0.005398156972130149,0.48,0.9999999999999992,-3.646313005123367,0.17385002288917067,35,2026-10-07 21:16:24.026243,33.8,0.43270709791311457,0.04821270779983769,0.07358876798432626
0248,cdot_cos,Q,P-Q,36,7,8069,-0.006253928452777889,-0.006646057223339271,-0.049627243026405664,0.15743995074760284,978.0,0.4529336246839713,0.518863275203554,3.113179664330405,-0.00176651294985451,0.127,0.9999999999999989,18.601757025583257,0.17881716748989457,36,2026-10-07 21:16:24.153243,33.8,0.12798701874725946,0.1857616059832775,0.08631173901864232
0248,cdot_cos,R,Q-R,37,7,8096,0.13660178796366598,0.20286373401885577,0.14285571641644387,0.9920651412193153,978.0,0.4891554817483562,0.5200933369676217,3.163604276294647,-0.006143916536728561,0.027,0.9999999999999989,-3.5586860064639154,0.1837843082081341,37,2026-10-07 21:16:24.180243,33.8,0.49042755339629507,0.7976952463648396,1.3415502616438857
0248,cdot_cos,S,R-S,38,7,8151,-0.0012257013190601033,-0.0053638541320898524,-0.1378274892827261,0.00939099054776488,978.0,0.49600916798767264,0.5201049797183854,3.2061424339707782,-0.0012156675861513628,0.055,0.9999999999999988,423.2890534717515,0.18875145034174146,38,2026-10-07 21:16:24.235244,33.8,0.017353787073450543,0.12280912145328025,0.12461247707848046
0248,cdot_cos,T,S-T,39,7,8381,-0.15488409612690543,0.06257971424091277,-0.15365839480784532,0.0055210342286858205,978.0,0.502664485108217,0.5201118245692495,3.248097317698586,-0.0011966679683192755,0.23,0.9999999999999982,2.7757533669165544,0.19371860043991665,39,2026-10-07 21:16:24.465244,33.8,0.9842482760510086,0.09648361756071246,0.02893616139367131
0248,cdot_cos,P,T-P,40,8,8920,0.01778869961497754,0.0011385688917415798,0.17267279574188296,0.997088991661199,939.0,0.5403916320656004,0.521347866170565,3.297293437077911,-0.007083595950488539,0.539,0.9999999999999983,-4.762726413013777,0.1986857659113568,40,2026-10-07 21:16:25.004243,33.8,0.4355851832424592,0.04418973360112901,0.06999470678549782
0248,cdot_cos,Q,P-Q,41,8,9055,-0.047056572817708656,-0.03619061771653521,-0.0648452724326862,0.10049196534459079,939.0,0.5503010179302341,0.5214724268124081,3.3390527566712045,-0.001945503366409759,0.135,0.9999999999999983,41.249727908049124,0.20365291183349984,41,2026-10-07 21:16:25.139244,33.8,0.0712892772901984,0.17997295140743622,0.07340285825654626
0248,cdot_cos,R,Q-R,42,8,9086,0.10655469358037632,0.20926210123244038,0.15361126639808498,0.9944702127567027,939.0,0.5889843289456081,0.522704934640189,3.3875151657952167,-0.007931297468163699,0.031,0.9999999999999979,-4.856597229513356,0.2086200524643462,42,2026-10-07 21:16:25.170244,33.8,0.4701490366194929,0.773167173200421,1.2478487424314204
0248,cdot_cos,S,R-S,43,8,9113,0.03006115533735721,-0.11070106505671914,-0.0764935382430191,0.07007866546562262,939.0,0.5982373826686602,0.5227917771697422,3.4281749625112434,-0.0019769610989461305,0.027,0.9999999999999977,68.56475047246752,0.21358719304898563,43,2026-10-07 21:16:25.197243,33.8,0.04919992432169097,0.3045246813911775,0.3427056934463731
0248,cdot_cos,T,S-T,44,8,9378,-0.11128506104657596,0.01799995547674597,-0.14134621638393316,0.008346742918892362,939.0,0.6054286617407317,0.522802120486576,3.467876969309126,-0.0015577312798690478,0.265,0.9999999999999977,40.5314683687257,0.2185543476328563,44,2026-10-07 21:16:25.462244,33.8,0.7640451007811806,0.08921314521645263,0.027136902158760415
0248,cdot_cos,P,T-P,45,9,9859,0.07100230856113311,-0.001735766881486741,0.18228736960770908,0.9978949590374976,938.0,0.6455203496333801,0.5240385724183795,3.5153576382698004,-0.009023468474489586,0.481,0.9999999999999979,-6.038032698716651,0.22352151617675242,45,2026-10-07 21:16:25.943244,33.8,0.4371980858183766,0.05188995073480774,0.08335070247951848
0248,cdot_cos,Q,P-Q,46,9,9986,-0.0012770094390991032,-0.0014565894782911592,-0.07227931800023221,0.07994894288266828,938.0,0.6553467943476168,0.5241376214245137,3.5548743371485187,-0.0022998558046057045,0.127,0.9999999999999976,67.88167728581415,0.22848866280489308,46,2026-10-07 21:16:26.070244,33.8,0.05374561799747607,0.15386859411933523,0.07737358042706032
0248,cdot_cos,R,Q-R,47,9,10013,0.017177951507362062,0.4609391053626423,0.018454960946461166,0.6510772346029589,938.0,0.6846029725396913,0.5249441717500573,3.598835959591867,-0.007051936969175782,0.027,0.9999999999999969,-5.891859458822408,0.2334558029246515,47,2026-10-07 21:16:26.097243,33.8,0.5097326419653457,0.6767593010554399,1.083562155262018
0248,cdot_cos,S,R-S,48,9,10068,-0.179785887178416,0.5108842678331412,-0.19696383868577808,0.0012828624181734146,938.0,0.6918917966046105,0.5249457608247713,3.636930949501603,-0.0018048212968465077,0.055,0.9999999999999968,3301.9943152954656,0.23842294516817314,48,2026-10-07 21:16:26.152243,33.8,0.05462426255923427,0.13144455068995298,0.13252407390762297
0248,cdot_cos,T,S-T,49,9,10298,-0.6032634617987056,-0.018438964941729565,-0.42347757462028957,6.077254436637809e-07,938.0,0.6990618731155861,0.5249457615775575,3.674620365202119,-0.0017940668794434417,0.23,0.9999999999999966,14286.151736424894,0.24339009974939782,49,2026-10-07 21:16:26.382244,33.8,0.994023495719132,0.10737030403688225,0.031174245699893757
0248,cdot_cos,P,T-P,50,10,10797,0.04925756870897802,-0.0031643458811070283,0.6525210305076836,0.9999999997360367,1039.0,0.7412821364615764,0.5261842999394921,3.720684903888461,-0.010936517299278092,0.499,0.9999999999999967,-7.381644929878211,0.2483572747886957,50,2026-10-07 21:16:26.881243,33.8,0.43345977021397436,0.05493013434719148,0.08460974618434924
0248,cdot_cos,Q,P-Q,51,10,10924,-0.002701442763584386,-0.0025796211159933692,-0.051959011472562405,0.14726507011100304,1039.0,0.7538821471940832,0.5263666665298755,3.759009921348342,-0.00338793454041112,0.127,0.9999999999999959,41.392355600865365,0.2533244223345054,51,2026-10-07 21:16:27.008243,33.8,0.10773528757825869,0.21880378960851823,0.09921268293312463
0248,cdot_cos,R,Q-R,52,10,10949,0.15098897778785372,0.19475156794202178,0.1536904205514381,0.9944849059502011,1039.0,0.79685829902214,0.5275980063521848,3.804563376470662,-0.011981909909836573,0.025,0.9999999999999958,-6.9793693127768535,0.25829156199219033,52,2026-10-07 21:16:27.033243,33.8,0.4880946838563904,1.0163795250947105,1.7190460731222723
0248,cdot_cos,S,R-S,53,10,11007,-0.00016006117484530926,-0.0005100085773667161,-0.15114903896269904,0.006006804106802865,1039.0,0.8047011234488187,0.5276054427825162,3.8410256486771344,-0.0022582615762815612,0.058,0.9999999999999954,1307.5693444589444,0.2632587046988891,53,2026-10-07 21:16:27.091244,33.8,0.013489935998247892,0.13302886557326496,0.13522111080480548
0248,cdot_cos,T,S-T,54,10,11236,-0.20796013783702258,0.14355722574822988,-0.20780007666217726,0.0008897831555008868,1039.0,0.8122896474286387,0.5276065443340354,3.8771005035032475,-0.0022060910948168257,0.229,0.9999999999999948,47.360909185216414,0.2682258621970785,54,2026-10-07 21:16:27.320243,33.8,0.9766290512824969,0.11332690328470948,0.03313765930052409
0248,cdot_cos,P,T-P,55,11,11836,0.03868316478552058,0.0015945730407287198,0.24664330262254316,0.9997604583372404,958.0,0.8566048451532157,0.5288440753999663,3.92201268396852,-0.013292859530639764,0.6,0.9999999999999951,-8.958779897362684,0.27319305381227893,55,2026-10-07 21:16:27.920243,33.8,0.43429146644958727,0.048697739206077326,0.07385866287429488
0248,cdot_cos,Q,P-Q,56,11,11977,-0.007943297216393096,-0.009722086988070765,-0.04662646200191367,0.17136635870750652,958.0,0.8707269344759315,0.5290561622365266,3.959093859049726,-0.00438419796467644,0.141,0.9999999999999941,42.004783090001965,0.278160203905389,56,2026-10-07 21:16:28.061243,33.8,0.13107397058866724,0.20817765725664364,0.10015666186323305
0248,cdot_cos,R,Q-R,57,11,12004,0.11118988680074926,0.21241868765262015,0.11913318401714236,0.9824793926785966,958.0,0.9153109444995892,0.5302718958963931,4.003465086548887,-0.014307359538983837,0.027,0.9999999999999939,-8.162282498123094,0.2831273432448445,57,2026-10-07 21:16:28.088243,33.8,0.4997884177290524,0.9896124520201454,1.6512596305058385
0248,cdot_cos,S,R-S,58,11,12063,-4.638045884434769e-05,-0.015122779974915823,-0.11123626725959361,0.02275870620183485,958.0,0.9241660068850194,0.5303000536349907,4.038644953461436,-0.00292666288859235,0.059,0.9999999999999936,404.1765147782036,0.2880944861472514,58,2026-10-07 21:16:28.147244,33.8,0.02047346250795761,0.1452246015821601,0.15008580314288497
0248,cdot_cos,T,S-T,59,11,12294,-0.1386985725517538,0.02906392466252245,-0.13865219209290947,0.009135190233409413,958.0,0.932447447486284,0.5303113559059479,4.073398884404897,-0.0027625676064400207,0.231,0.9999999999999929,14.518788549048633,0.2930616470200672,59,2026-10-07 21:16:28.378243,33.8,0.9423301826689423,0.11813922641873251,0.035850392213267
0248,cdot_cos,P,T-P,60,12,12794,0.06077729456714627,0.0011836063010137738,0.19947586711890009,0.9988214419293336,1038.0,0.9787463294904738,0.5315469311046979,4.117344897317967,-0.015893790077877716,0.5,0.9999999999999927,-10.627619010743137,0.2980288378251764,60,2026-10-07 21:16:28.878243,33.8,0.43771567441786285,0.05872546581806881,0.09259776400837949
0248,cdot_cos,Q,P-Q,61,12,12929,-0.0007948208823551401,-0.0008363512976798261,-0.06157211544950141,0.11094371927995536,1038.0,0.9911729133043529,0.5316841485717425,4.152586035507919,-0.004396805854315573,0.135,0.9999999999999913,83.7865941645843,0.3029959889871933,61,2026-10-07 21:16:29.013243,33.8,0.07317882401525204,0.21026450833766447,0.09204876899169678
0248,cdot_cos,R,Q-R,62,12,12960,0.07436709634449203,0.3572551442365682,0.07516191722684716,0.926930855960765,1038.0,1.0355177467416432,0.5328304064329056,4.195510905440955,-0.016137587305982304,0.031,0.9999999999999915,-10.242705284266279,0.30796312844038115,62,2026-10-07 21:16:29.044243,33.8,0.4830947127047036,0.9442111024152263,1.430478497977108
0248,cdot_cos,S,R-S,63,12,12984,0.022840397476402003,0.3889265259300183,-0.051526698868090026,0.14910951155008242,1038.0,1.049714001654097,0.5330147656566565,4.230673635063945,-0.005315144173582507,0.024,0.9999999999999906,58.703019638556235,0.3129302673105885,63,2026-10-07 21:16:29.068243,33.8,0.13052998368951846,0.4686597460519526,0.591510621352237
0248,cdot_cos,T,S-T,64,12,13253,-0.2862911135027496,0.15711956967557628,-0.3091315109791516,2.898668248241961e-05,1038.0,1.058013414552137,0.5330148014949593,4.264118501957457,-0.0031408611959933977,0.269,0.9999999999999901,60669.250760858326,0.31789743664194137,64,2026-10-07 21:16:29.337244,33.8,0.5004453157484706,0.10516523491272495,0.030852836052193446
0248,cdot_cos,P,T-P,65,13,13832,0.04167270602019248,-0.002953812397464434,0.32796381952294207,0.999984662234503,1059.0,1.106292898037143,0.5342509485905615,4.30726894814468,-0.018755263253379947,0.579,0.9999999999999899,-12.63150810525424,0.3228646467122713,65,2026-10-07 21:16:29.916243,33.8,0.4349455571871839,0.05434038911348004,0.08338425472367184
0248,cdot_cos,Q,P-Q,66,13,13959,-0.008984084805344827,-0.007602286582967525,-0.05065679082553731,0.1528786442259282,1059.0,1.1209395851455468,0.5344398952951884,4.341810351591813,-0.005854962609258562,0.127,0.9999999999999889,68.27481151151105,0.3278317984828252,66,2026-10-07 21:16:30.043243,33.8,0.1104369500619956,0.250085085844201,0.11532824494806211
0248,cdot_cos,R,Q-R,67,13,13984,0.1423224963412059,0.17525749961584366,0.1513065811465507,0.9940249060592996,1059.0,1.16981450984157,0.5356681931756185,4.3846332508360275,-0.020087847755652602,0.025,0.9999999999999888,-11.587486531695538,0.33279893667484606,67,2026-10-07 21:16:30.068243,33.8,0.49236640722176506,1.15768709876797,1.9549969878409268
0248,cdot_cos,S,R-S,68,13,14042,-0.0017699303758491748,-0.005258089888810997,-0.14409242671705508,0.00761248489044918,1059.0,1.1788239400839453,0.5356775981298431,4.417310757835978,-0.0037964803705934002,0.058,0.9999999999999879,1732.2112363481315,0.3377660799143728,68,2026-10-07 21:16:30.126244,33.8,0.013688810803874574,0.15617935807629424,0.15533500417888493
0248,cdot_cos,T,S-T,69,13,14271,-0.13374973844972182,0.09002952404188651,-0.13197980807387263,0.011419840286397068,1059.0,1.1879313153784201,0.5356917068886023,4.4497896381931925,-0.00386734120528467,0.229,0.9999999999999862,-5.022471210985141,0.34273324798567795,69,2026-10-07 21:16:30.355244,33.8,0.9818439619048229,0.12905387197643747,0.039770197792466405
0248,cdot_cos,P,T-P,70,14,14891,0.03543733473077493,-0.001813585467261512,0.16918707318049675,0.9967261946317514,959.0,1.2379306134491537,0.5369228999183031,4.492219407988171,-0.021754031842981143,0.62,0.9999999999999861,-14.527933643389611,0.3477004755498645,70,2026-10-07 21:16:30.975244,33.8,0.43945315101743904,0.05379569253703438,0.08064402914634444
0248,cdot_cos,Q,P-Q,71,14,15018,-0.007720182753826889,-0.00844590255506338,-0.043157517484601816,0.18866254974441435,959.0,1.2546379741243427,0.5371558926685283,4.526156159026221,-0.007468520736293083,0.127,0.9999999999999846,61.31311421871961,0.3526676288898119,71,2026-10-07 21:16:31.102243,33.8,0.147671785873284,0.2647928754350824,0.1315540210644809
0248,cdot_cos,R,Q-R,72,14,15046,0.12963151097062742,0.20136727461391798,0.1373516937244543,0.9904582163540893,959.0,1.3051880038096646,0.5383788111839632,4.5682958592862,-0.02319797587881785,0.028,0.9999999999999842,-12.862226668413658,0.35763476690407,72,2026-10-07 21:16:31.130244,33.8,0.5076043801934161,1.072697292182488,1.8053582030472088
0248,cdot_cos,S,R-S,73,14,15101,-0.002113217256238933,-0.01542674485723489,-0.13174472822686634,0.011509891793686564,959.0,1.314709022486562,0.5383930197587211,4.6000321379724385,-0.004471816460808694,0.055,0.9999999999999832,1317.9477700702944,0.3626019097544756,73,2026-10-07 21:16:31.185244,33.8,0.015182744777966396,0.17030074725527483,0.173109430489045
0248,cdot_cos,T,S-T,74,14,15330,-0.15552971205501837,0.04776805140050319,-0.15341649479877945,0.005566108176261426,959.0,1.3239210860077448,0.5383998909099036,4.631491147708392,-0.004357634964032123,0.229,0.9999999999999819,16.61752066637622,0.36756908189322746,74,2026-10-07 21:16:31.414243,33.8,0.9741376800596955,0.1334433849851582,0.04022735162088539
0248,cdot_cos,P,T-P,75,15,15850,0.062457796245726394,-0.00010151247991061952,0.21798750830074476,0.9993692548909644,1018.0,1.3758260928097645,0.539633335706709,4.673361947252884,-0.02511189737526786,0.52,0.9999999999999815,-16.82625964695659,0.3725363054110154,75,2026-10-07 21:16:31.934243,33.8,0.43759069242696685,0.06296601787234846,0.09981732077311481
0248,cdot_cos,Q,P-Q,76,15,15980,-0.0017416259371183555,-0.0018131097497222138,-0.06419942218284475,0.10248250889487372,1018.0,1.3894057445949872,0.5397597948254109,4.70551699686088,-0.006728988888454227,0.13,0.9999999999999792,145.36641307889118,0.3775034611759528,76,2026-10-07 21:16:32.064243,33.8,0.0650956479380199,0.23640542392808345,0.10445885988632839
0248,cdot_cos,R,Q-R,77,15,16010,0.05999561709558969,0.4325766129164743,0.06173724303270805,0.8896056003912364,1018.0,1.4372915030310662,0.5408573140301102,4.7460038729321035,-0.02424714360215272,0.03,0.999999999999979,-15.9615928711689,0.3824705991022023,77,2026-10-07 21:16:32.094244,33.8,0.4855450359591295,1.0149658735460292,1.5961919478693003
0248,cdot_cos,S,R-S,78,15,16037,-0.01047857751205791,0.4736184782075005,-0.0704741946076476,0.0845534749632097,1018.0,1.450303697007749,0.5409616084119637,4.7776437673680165,-0.006730492370243865,0.027,0.9999999999999779,167.9539292586739,0.3874377367877325,78,2026-10-07 21:16:32.121243,33.8,0.07408212893441057,0.4125815594564527,0.4819331102475089
0248,cdot_cos,T,S-T,79,15,16289,-0.49199194884161,0.13449971650790515,-0.48151337132955213,8.546558673066822e-08,1018.0,1.4595709072417147,0.5409616085173813,4.808172153099432,-0.004830402126393279,0.252,0.9999999999999758,18024418.12874507,0.39240491765029706,79,2026-10-07 21:16:32.373244,33.8,0.6747853250894957,0.12480846076600918,0.036774643785578195
0248,cdot_cos,P,T-P,80,16,16868,0.04300785871165161,-0.002210129312422183,0.5349998075532616,0.9999999859829798,1037.0,1.5132071612338176,0.5421948063029326,4.849537993558007,-0.028549699130819353,0.579,0.9999999999999757,-19.233976319396483,0.39737216400735903,80,2026-10-07 21:16:32.952243,33.8,0.43569742785980864,0.060667396582770226,0.09263601725751801
0248,cdot_cos,Q,P-Q,81,16,16995,-0.0058771618031063155,-0.0057006136630200115,-0.048885020514757925,0.16079649243985733,1037.0,1.5298237524845626,0.5423930523402625,4.881537721873927,-0.009053146955155366,0.127,0.9999999999999734,98.3452301910197,0.40233932103277276,81,2026-10-07 21:16:33.079243,33.8,0.11606948039739438,0.27833720037837084,0.13083930118696846
0248,cdot_cos,R,Q-R,82,16,17022,0.1409168908707584,0.18622761478882774,0.14679405267386472,0.9930472361852978,1037.0,1.5839048101299238,0.5436170807099304,4.922662290754035,-0.03013650901581638,0.027,0.9999999999999731,-17.224569775601207,0.40730645780139413,82,2026-10-07 21:16:33.106244,33.8,0.49678627965207584,1.1865739331393224,2.0030021350133778
0248,cdot_cos,S,R-S,83,16,17077,-0.0014302099072536912,-0.004595245894979458,-0.1423471007780121,0.008071337337892325,1037.0,1.593898744874086,0.5436270272892438,4.952678181442195,-0.005683672639186277,0.055,0.9999999999999711,2458.416668296627,0.4122736009907935,83,2026-10-07 21:16:33.161243,33.8,0.013537454876293917,0.1804931452707588,0.18170790443931298
0248,cdot_cos,T,S-T,84,16,17307,-0.15111368451486296,0.08756552557250062,-0.14968347460760925,0.006309925814733394,1037.0,1.6037590561097073,0.5436348031979141,4.982495531883492,-0.005642699483999798,0.23,0.9999999999999692,5.269243367403549,0.41724078226394795,84,2026-10-07 21:16:33.391244,33.8,0.9927650309624694,0.14145039250873515,0.042870918415744586
0248,cdot_cos,P,T-P,85,17,17905,0.028385012008230303,-0.003178072920356204,0.17949869652309325,0.9976873731766582,940.0,1.6589659254281042,0.5448640129291654,5.023398264435999,-0.032221624192280154,0.598,0.9999999999999691,-21.62277439930774,0.4222080467785477,85,2026-10-07 21:16:33.989243,33.8,0.43828824564503055,0.057008353357186486,0.0923191794622022
0248,cdot_cos,Q,P-Q,86,17,17996,-0.04794317815364756,-0.02905935996319743,-0.07632819016187786,0.07044374837981937,940.0,1.6719410467249023,0.5449507833033888,5.053665977417534,-0.0077309724270508435,0.091,0.9999999999999657,282.2466998032574,0.42717519741129495,86,2026-10-07 21:16:34.080243,33.8,0.042093508605515716,0.37851389266105656,0.14258375051426506
0248,cdot_cos,R,Q-R,87,17,18055,0.13118009637298075,0.19984545638069343,0.17912327452662832,0.9976579098367442,940.0,1.7278554538924165,0.5461793711602178,5.0944223447435,-0.03398918195920471,0.059,0.9999999999999653,-21.37267545515762,0.43214234112017863,87,2026-10-07 21:16:34.139244,33.8,0.46183569611352543,0.5628842950612728,0.9477018163985452
0248,cdot_cos,S,R-S,88,17,18114,0.003000492215717006,-0.07401563777540493,-0.12817960415726376,0.012964762751184123,940.0,1.7383613935421325,0.5461953332350726,5.123766719447893,-0.006511066280464357,0.059,0.9999999999999629,1721.462649972392,0.43710948532269583,88,2026-10-07 21:16:34.198244,33.8,0.014695448307541267,0.17584165384609265,0.1780667737240004
0248,cdot_cos,T,S-T,89,17,18345,-0.13811077887497403,0.03706145700145539,-0.14111127109069102,0.008412729703951238,940.0,1.7486047690462554,0.5462056908455567,5.152894505973358,-0.006386319405132002,0.231,0.9999999999999606,12.04398210612692,0.4420766715117867,89,2026-10-07 21:16:34.429244,33.8,0.9806560879242495,0.14527562645274203,0.04434361690096497
0248,cdot_cos,P,T-P,90,18,18845,0.06778205232112645,-0.006475200748970275,0.20589283119610047,0.9990510240678236,958.0,1.8054787329632993,0.5474354186987747,5.193428725181168,-0.03612427321715742,0.5,0.9999999999999598,-24.1825487925699,0.4470439261408867,90,2026-10-07 21:16:34.929244,33.8,0.4390190314074145,0.07122857357243362,0.11374792783408783
0248,cdot_cos,Q,P-Q,91,18,18934,-9.769271682463326e-06,-6.4986958645403735e-06,-0.06779182159280892,0.09184075666701563,958.0,1.819833342618689,0.5475484362874897,5.223279558265909,-0.00929985040540799,0.089,0.9999999999999574,237.34732900183238,0.4520110775128588,91,2026-10-07 21:16:35.018244,33.8,0.055888707283343456,0.3779431278984669,0.161287748936963
0248,cdot_cos,R,Q-R,92,18,18993,0.06547366167157126,0.4510472531885783,0.06548343094325372,0.9014410644560745,958.0,1.8727526097292264,0.5486574714898091,5.262537977442044,-0.03490571409267531,0.059,0.9999999999999564,-23.08841381564409,0.45697822159646245,92,2026-10-07 21:16:35.077244,33.8,0.4801905554936011,0.5686238942255813,0.8969367306870747
0248,cdot_cos,S,R-S,93,18,19017,-0.005179513426157545,0.4853528511450843,-0.07065317509772881,0.08408639053654686,958.0,1.8869309621373076,0.5487608977849886,5.292058835331737,-0.009521634076224866,0.024,0.9999999999999541,245.43158944644355,0.46194535671200954,93,2026-10-07 21:16:35.101243,33.8,0.06953414441812424,0.5061668724938942,0.5907646836700494
0248,cdot_cos,T,S-T,94,18,19284,-0.5362336811165546,0.0547348338099382,-0.531054167690397,1.601674845191641e-08,958.0,1.8970486196089333,0.5487608978046888,5.320434687513923,-0.006838536739876618,0.267,0.9999999999999514,136196165.1470519,0.4669125579805173,94,2026-10-07 21:16:35.368243,33.8,0.675467911125692,0.12845586631169098,0.037893848208336106
0248,cdot_cos,P,T-P,95,19,19803,0.03830057105279249,-0.001561941604087017,0.5745342521693471,0.9999999963159669,1039.0,1.9555263947477506,0.5499905728236824,5.360645412245942,-0.040221970136741274,0.519,0.999999999999951,-27.148175640901364,0.471879830734492,95,2026-10-07 21:16:35.887244,33.8,0.43605797896024234,0.0748309704076775,0.11267394053722012
0248,cdot_cos,Q,P-Q,96,19,19933,-0.0058624250518990425,-0.005894359286230347,-0.044162996104691536,0.18351542925174058,1039.0,1.9747231668921026,0.5502161712968066,5.390995923144184,-0.013468836003851063,0.13,0.9999999999999475,118.58739007582581,0.4768469950830039,96,2026-10-07 21:16:36.017244,33.8,0.13720228633685064,0.29991377937449776,0.14766747803347693
0248,cdot_cos,R,Q-R,97,19,19962,0.13622840195278693,0.19090953856842618,0.14209082700468598,0.9918590162726892,1039.0,2.03350397738512,0.5514351197993443,5.431006543148135,-0.04203897526170136,0.029,0.9999999999999467,-23.438348050281675,0.4818141306479237,97,2026-10-07 21:16:36.046243,33.8,0.5068142344167575,1.201751909092732,2.0269244997592213
0248,cdot_cos,S,R-S,98,19,19991,-0.0013459768064647646,-0.0029255346382849054,-0.1375743787592517,0.009470912224696551,1039.0,2.044424777619481,0.5514467561549672,5.459044832208946,-0.007946140284675007,0.029,0.9999999999999435,2929.855023517051,0.48678126662945326,98,2026-10-07 21:16:36.075244,33.8,0.013698212309842002,0.3702319858017454,0.3765793184262427
0248,cdot_cos,T,S-T,99,19,20243,-0.17309919984210487,0.09553682409985104,-0.1717532230356401,0.0030026318624866107,1039.0,2.0549774325616212,0.5514504453012671,5.486863115084049,-0.007718692385127001,0.252,0.9999999999999406,61.653260960343516,0.4917484702019461,99,2026-10-07 21:16:36.327244,33.8,0.9709627690640803,0.13991014707674906,0.041875614849762675
0248,cdot_cos,P,T-P,100,20,20842,0.024657494015365246,0.0022677541971885167,0.1977566938574701,0.9987510174455692,958.0,2.1149394917461626,0.552677231733721,5.526772803143302,-0.044590367823732734,0.599,0.9999999999999399,-30.055496591083894,0.49671578254918775,100,2026-10-07 21:16:36.926244,33.8,0.43740411463290607,0.06335145418756145,0.10010360464864998
0248,cdot_cos,Q,P-Q,101,20,20951,-0.03785056303231342,-0.02895144738452994,-0.06250805704767867,0.10786160244806159,958.0,2.13087247467832,0.5528096822675821,5.55566909421048,-0.012063419219751135,0.109,0.9999999999999356,245.57808606559098,0.5016829425671427,101,2026-10-07 21:16:37.035244,33.8,0.06745266905681546,0.34995844573825097,0.14617415534089248
0248,cdot_cos,R,Q-R,102,20,21009,0.11053630278359894,0.20924420536374658,0.14838686581591237,0.9934092532823778,958.0,2.1912304329171013,0.554029201719604,5.595421212867173,-0.04649574989567706,0.058,0.999999999999935,-28.234343141340048,0.5066500868416901,102,2026-10-07 21:16:37.093244,33.8,0.4768525689023313,0.6286943753581206,1.0406544523927832
0248,cdot_cos,S,R-S,103,20,21051,0.013951202409514874,-0.07502797863064456,-0.09658510037408406,0.036806623143256265,958.0,2.203801022219862,0.5540743735092084,5.623241293578536,-0.009846744344414363,0.042,0.9999999999999319,811.3250741719351,0.5116172263565885,103,2026-10-07 21:16:37.135243,33.8,0.024186965364135993,0.2802277569509866,0.2992997453038228
0248,cdot_cos,T,S-T,104,20,21301,-0.13798609841360365,0.02821172208458671,-0.15193730082311852,0.005849800357276651,958.0,2.214769564500984,0.5540815527313585,5.650545858968733,-0.00863782466583724,0.25,0.9999999999999283,168.39145708289544,0.5165844355236143,104,2026-10-07 21:16:37.385243,33.8,0.8693960562503121,0.14482126975715826,0.04387416912448927
0248,cdot_cos,P,T-P,105,21,21800,0.05351556259260496,-0.0025732693888475193,0.1915016610062086,0.9984574214991365,1019.0,2.276211657098441,0.5553065859213022,5.690199831809109,-0.0491524639680485,0.499,0.9999999999999276,-33.07227888582575,0.5215517312112359,105,2026-10-07 21:16:37.884243,33.8,0.4385573600062096,0.07910585096168704,0.1231304460870878
0248,cdot_cos,Q,P-Q,106,21,21927,-0.002502727561390134,-0.0025134305792962833,-0.05601829015399509,0.13085521866807936,1019.0,2.293717203760748,0.5554670860839906,5.718884314819099,-0.014249246783694897,0.127,0.9999999999999227,217.46530719791298,0.5265188995907473,106,2026-10-07 21:16:38.011244,33.8,0.08633863944393495,0.30601559649460286,0.1378389500969044
0248,cdot_cos,R,Q-R,107,21,21955,0.09310640952780067,0.3457250150814545,0.0956091370891908,0.9620058683627659,1019.0,2.35393961860807,0.5566466747471309,5.757998629365157,-0.04982718371643549,0.028,0.9999999999999222,-30.161307958001075,0.5314860334390226,107,2026-10-07 21:16:38.039244,33.8,0.489668500075409,1.2837675239647754,2.1508005302615096
0248,cdot_cos,S,R-S,108,21,22009,-0.03396505598020263,0.4108527912454815,-0.1270714655080033,0.013452911128699414,1019.0,2.3656081851027753,0.5566631658899541,5.785013969750333,-0.009803671221051235,0.054,0.9999999999999182,2426.9702181625785,0.5364531772682091,108,2026-10-07 21:16:38.093244,33.8,0.016865207228087802,0.20936453351400658,0.21608456471676216
0248,cdot_cos,T,S-T,109,21,22239,-0.2728521060324756,0.1622675417056557,-0.23888705005227298,0.00031131862303889407,1019.0,2.376550988227583,0.556663547515904,5.811738715962209,-0.009237947313633301,0.23,0.999999999999914,1482.404190944702,0.5414203857903402,109,2026-10-07 21:16:38.323244,33.8,0.9405982824249725,0.1606822594590334,0.04757740489046763
0248,cdot_cos,P,T-P,110,22,22819,0.03456203132318251,0.0009782371819306189,0.30741413735565815,0.9999692809803342,1157.0,2.4395220244539306,0.5578889995349345,5.85118987403561,-0.05395821242975793,0.58,0.9999999999999138,-36.49287317793306,0.546387726896996,110,2026-10-07 21:16:38.903244,33.8,0.43657529772379844,0.07343542182531515,0.10857075211439278
0248,cdot_cos,Q,P-Q,111,22,22928,-0.004093284687637693,-0.002757563462740945,-0.0386553160108202,0.21306478006005383,1157.0,2.4617360775449484,0.558150017664328,5.880476084415195,-0.019368933112320116,0.109,0.9999999999999087,132.5167696121704,0.551354890895622,111,2026-10-07 21:16:39.012243,33.8,0.16766081195584234,0.3909334176851291,0.2037986522111721
0248,cdot_cos,R,Q-R,112,22,22987,0.12682769341307648,0.16098153109001026,0.13092097810071418,0.9881689828062749,1157.0,2.5247455095092888,0.5593601663294766,5.919712341050779,-0.055862401938615046,0.059,0.9999999999999077,-30.1561864895456,0.5563220362227813,112,2026-10-07 21:16:39.071244,33.8,0.5203392627760364,0.6349835157624295,1.067956473971871
0248,cdot_cos,S,R-S,113,22,23046,-0.0018855134322891998,-0.005523184939747518,-0.1287132068453657,0.012735980641351678,1157.0,2.536664132404915,0.5593757587157211,5.9462466516740795,-0.01072541579748871,0.059,0.9999999999999031,2894.809391800311,0.5612891821720228,113,2026-10-07 21:16:39.130244,33.8,0.014869938707604807,0.21208989530078837,0.20201055755298788
0248,cdot_cos,T,S-T,114,22,23277,-0.09916257010920634,0.08417523570842941,-0.09727705667691715,0.03598639297196846,1157.0,2.549772117154782,0.5594198154468337,5.972969922965466,-0.011853780481240061,0.231,0.9999999999998984,-25.61162971593892,0.5662563976022665,114,2026-10-07 21:16:39.361243,33.8,0.9091999153953815,0.1668745142773303,0.05674452272669585
0248,cdot_cos,P,T-P,115,23,23976,0.042662577886223504,8.868688234933444e-06,0.14182514799542983,0.991786184594844,1018.0,2.6137601580010417,0.560633649753964,6.012126909708199,-0.058707852280369566,0.699,0.9999999999998979,-38.60005564507437,0.5712238072460086,115,2026-10-07 21:16:40.060243,33.8,0.4501886008945779,0.06002160512138528,0.09154226158263214
0248,cdot_cos,Q,P-Q,116,23,24108,-0.006304734338159499,-0.006676978797835264,-0.048967312224383004,0.16042151355649087,1018.0,2.6336823211144784,0.5608299198306852,6.040324003170453,-0.01857345223887382,0.132,0.9999999999998909,204.485577791411,0.5761909825764135,116,2026-10-07 21:16:40.192243,33.8,0.11522741072474499,0.31979866604446106,0.1509254781320966
0248,cdot_cos,R,Q-R,117,23,24138,0.12889527969071687,0.19648393905337483,0.13520001402887638,0.9897457970511876,1018.0,2.6981870058367794,0.562040415914029,6.079397540688538,-0.06106844520791834,0.03,0.99999999999989,-35.105436154456285,0.5811581151209441,117,2026-10-07 21:16:40.222244,33.8,0.49864620673238363,1.2776392288023075,2.1501561574100325
0248,cdot_cos,S,R-S,118,23,24166,-0.0016002423442317434,-0.003811709942278322,-0.13049552203494863,0.012000324896430273,1018.0,2.710340674842617,0.5620550882584757,6.105481973931067,-0.011671572505554922,0.028,0.9999999999998839,3366.665285269468,0.5861252473040627,118,2026-10-07 21:16:40.250243,33.8,0.014519858684467025,0.4220829716491562,0.4340596073513384
0248,cdot_cos,T,S-T,119,23,24435,-0.23166769548243837,0.09453997611527294,-0.23006745313820662,0.0004193941457658467,1018.0,2.721823652249132,0.56205560103391,6.131303671055276,-0.011075675144706355,0.269,0.9999999999998789,1162.1020062111868,0.5910924857795385,119,2026-10-07 21:16:40.519244,33.8,0.947619384089844,0.14368902637337488,0.04268764835135788
0248,cdot_cos,P,T-P,120,24,24994,0.05795728078294654,-0.00399395783815107,0.2896249762653849,0.9999439563800614,977.0,2.7876453710314926,0.5632778107166445,6.170400228706629,-0.06435042107271358,0.559,0.9999999999998775,-43.58887569014394,0.5960598561418796,120,2026-10-07 21:16:41.078244,33.8,0.43697252296843,0.07519767807485606,0.11774904970010809
0248,cdot_cos,Q,P-Q,121,24,25084,-0.0004747568310356115,-0.0003081445182843596,-0.05843203761398215,0.1218525435216322,977.0,2.8058946563368212,0.5634266962116568,6.197694714938507,-0.018112222419455506,0.09,0.9999999999998704,310.5621447506119,0.6010270152010564,121,2026-10-07 21:16:41.168243,33.8,0.07785768051251084,0.46891775715570067,0.20276983672587395
0248,cdot_cos,R,Q-R,122,24,25143,0.15565679768207313,0.2159253182131676,0.15613155451310876,0.9949194716690183,977.0,2.8720505673195187,0.5646419082692017,6.23667478952209,-0.06660764935457364,0.059,0.9999999999998687,-39.906966552893124,0.6059941606874378,122,2026-10-07 21:16:41.227243,33.8,0.48283710434356764,0.6625909871211886,1.1212866268253807
0248,cdot_cos,S,R-S,123,24,25202,-0.00012999384922341667,-0.0005707784147254357,-0.15578679153129654,0.0051397718908548625,977.0,2.8840803928171215,0.5646481840735019,6.262252372149513,-0.01227871255510423,0.059,0.9999999999998626,8656.888296757905,0.6109613068566768,123,2026-10-07 21:16:41.286243,33.8,0.011978470035495539,0.20112507032093338,0.2038953474169964
0248,cdot_cos,T,S-T,124,24,25433,-0.2932650985063073,0.12906610410850428,-0.29313510465708387,4.977407395926623e-05,977.0,2.895783325617389,0.564648244848928,6.287657830225385,-0.011994306298182607,0.231,0.999999999999856,4679.625887016994,0.6159285353117874,124,2026-10-07 21:16:41.517244,33.8,0.9765671431365682,0.1707577932590075,0.05066204675440412
0248,cdot_cos,P,T-P,125,25,25971,0.057192459508095816,-0.0004137158962892264,0.3504575580144031,0.9999928290515507,978.0,2.962970493302783,0.5658688673568584,6.326607385832407,-0.0697545978592587,0.538,0.999999999999855,-47.320355954282,0.620895914788161,125,2026-10-07 21:16:42.055244,33.8,0.43690043202728146,0.07929849239407084,0.12488321131114148
0248,cdot_cos,Q,P-Q,126,25,26102,-0.0037205073897408907,-0.004160200579873404,-0.06091296689783671,0.11316035677628312,978.0,2.981108503433409,0.5660069444019764,6.353413404734761,-0.019103955031444138,0.131,0.9999999999998473,366.82884388578884,0.625863095807162,126,2026-10-07 21:16:42.186244,33.8,0.07055821895448525,0.3263910558015246,0.13845809260019926
0248,cdot_cos,R,Q-R,127,25,26130,0.14174968190902035,0.22618974033224537,0.14547018929876124,0.9927313708849232,978.0,3.0484849499227824,0.5672178230150633,6.392221460027006,-0.0719382535976967,0.028,0.9999999999998453,-43.63302646130847,0.6308302258418699,127,2026-10-07 21:16:42.214243,33.8,0.47977427335637907,1.4252954522662413,2.4063016603347624
0248,cdot_cos,S,R-S,128,25,26182,-6.578086963033076e-05,-0.00029837859156437867,-0.14181546277865067,0.008216482625887832,978.0,3.0609250487603186,0.5672278416954092,6.417451684733868,-0.013458123130870362,0.052,0.9999999999998385,5837.109124936748,0.6357973688140226,128,2026-10-07 21:16:42.266243,33.8,0.012967089337261624,0.23440822736971928,0.23923266995261852
0248,cdot_cos,T,S-T,129,25,26412,-0.2768646247023058,0.11856255505456077,-0.27679884383267545,8.645492481883658e-05,978.0,3.072863405569233,0.5672279471130062,6.44247228251512,-0.01296685694457359,0.23,0.9999999999998315,4660.191470372939,0.6407646038870467,129,2026-10-07 21:16:42.496243,33.8,0.9628224109884701,0.17490998733042165,0.05190589916919409
0248,cdot_cos,P,T-P,130,26,26949,0.03765429885687445,-0.0007621404643152446,0.3145189235591802,0.9999758388304553,939.0,3.1413836429323125,0.5684468440343431,6.481292497628102,-0.07534874981577276,0.537,0.9999999999998304,-51.178973200438435,0.6457320020754391,130,2026-10-07 21:16:43.033243,33.8,0.4369621076888969,0.08418370587641932,0.127598207380036
0248,cdot_cos,Q,P-Q,131,26,27082,-0.008639437694788596,-0.010652379902978225,-0.046293736551663044,0.1729692140140478,939.0,3.1632767056805076,0.5686575971179773,6.508585067672888,-0.024422254103258323,0.133,0.9999999999998219,241.6405721536937,0.6506991875063562,131,2026-10-07 21:16:43.166244,33.8,0.12427609640747653,0.339156501286908,0.164609494347331
0248,cdot_cos,R,Q-R,132,26,27112,0.11733846152652185,0.21864758283751856,0.12597789922131045,0.9860475986360758,939.0,3.23159927227463,0.5698585626082526,6.547177826656468,-0.07725368021610626,0.03,0.9999999999998208,-43.990794523774376,0.6556663178503024,132,2026-10-07 21:16:43.196243,33.8,0.5046604882055779,1.3589823377365622,2.27741888647075
0248,cdot_cos,S,R-S,133,26,27141,-0.0019471594905267878,-0.006590031972806168,-0.11928562101704863,0.017432136417920754,939.0,3.2448156459447013,0.5698797868842057,6.5721757163665915,-0.015134379508999894,0.029,0.9999999999998129,2926.804233248371,0.6606334482146228,133,2026-10-07 21:16:43.225244,33.8,0.016498004269495273,0.43988107703336454,0.45573702310590425
0248,cdot_cos,T,S-T,134,26,27390,-0.1842352730754006,0.032664968856003083,-0.18228811358487382,0.002104988140331267,939.0,3.257112374742565,0.5698823497683615,6.5968665385323675,-0.014136723577053228,0.249,0.9999999999998054,389.2707868569155,0.6656007016004876,134,2026-10-07 21:16:43.474244,33.8,0.9318607040739917,0.16490511812293904,0.04938445300346956
0248,cdot_cos,P,T-P,135,27,27888,0.054686759239035515,-0.002928166892253039,0.23892203231443612,0.9996890491483131,959.0,3.326938394769925,0.5710990745983521,6.635573067596561,-0.08123130243477775,0.498,0.9999999999998042,-55.143593032653115,0.6705680982062262,135,2026-10-07 21:16:43.972243,33.8,0.4378103262874436,0.08977116331215895,0.14021289162120423
0248,cdot_cos,Q,P-Q,136,27,28016,-0.0026721795689378697,-0.0029558631707632664,-0.05735893880797339,0.12578721124818074,959.0,3.3465244534014755,0.571252110087776,6.6618887053753095,-0.023092589790258654,0.128,0.9999999999997953,379.90346463670755,0.6755352844584787,136,2026-10-07 21:16:44.100243,33.8,0.08065011769622465,0.35016975915526555,0.15301608305898912
0248,cdot_cos,R,Q-R,137,27,28042,0.14737153823682758,0.22933261737690555,0.15004371780576545,0.9937659633043116,959.0,3.416581853113673,0.5724606663246075,6.700481890559287,-0.08365010109094087,0.026,0.9999999999997937,-50.107317686307034,0.6805024118645748,137,2026-10-07 21:16:44.126244,33.8,0.4848390533431054,1.594228928559649,2.694515373546053
0248,cdot_cos,S,R-S,138,27,28099,-0.0001492632300184907,-0.0007672728919196327,-0.14752080146684607,0.006785200644487552,959.0,3.4294243576865773,0.5724689151079425,6.7249886373670655,-0.015522124642987122,0.057,0.999999999999785,8259.154554157596,0.6854695584344492,138,2026-10-07 21:16:44.183244,33.8,0.012412039491828904,0.22148503792770854,0.22530709777025204
0248,cdot_cos,T,S-T,139,27,28329,-0.2857625312576386,0.11080267824100729,-0.2856132680276201,6.418168662138754e-05,959.0,3.4418311474374317,0.5724689931335675,6.74931147849126,-0.015050802268321152,0.23,0.9999999999997765,6040.610054724511,0.6904368089586953,139,2026-10-07 21:16:44.413243,33.8,0.969169817702273,0.1816012891747883,0.0539425641341496
0248,cdot_cos,P,T-P,140,28,28847,0.04265457166067414,-0.002741652329542454,0.3284171029183128,0.9999848954295831,1038.0,3.51296095070698,0.5736842340087268,6.787925034850987,-0.08727393978027959,0.518,0.999999999999776,-59.43112924216664,0.6954042369881364,140,2026-10-07 21:16:44.931243,33.8,0.4371209771376113,0.08996025902178882,0.13731622252808534
0248,cdot_cos,Q,P-Q,141,28,28974,-0.0060058663632057115,-0.005292443519143119,-0.04866043802387986,0.1618234536809508,1038.0,3.535029975784005,0.573880808230246,6.8144587907318215,-0.02743758018663251,0.127,0.9999999999997661,304.3957601928168,0.7003714261159499,141,2026-10-07 21:16:45.058244,33.8,0.1129491381598868,0.3677850193489037,0.173771851000197
0248,cdot_cos,R,Q-R,142,28,28999,0.14515092367734464,0.18511861230744098,0.15115679004055035,0.9939947599390273,1038.0,3.6063783456216014,0.5750877439863517,6.852963161799886,-0.08981436434336526,0.025,0.9999999999997645,-51.68194234132287,0.7053385520091889,142,2026-10-07 21:16:45.083244,33.8,0.49932011081614985,1.6889555753303487,2.8539347935038606
0248,cdot_cos,S,R-S,143,28,29057,-0.0009152033282690499,-0.002969805252951168,-0.1460661270056137,0.007124716725012163,1038.0,3.6194777545505223,0.5750963918005957,6.877154386797553,-0.016684631234344823,0.058,0.9999999999997556,8456.441251553599,0.7103056997349351,143,2026-10-07 21:16:45.141243,33.8,0.012487094596344978,0.22379311856829207,0.22585187808484342
0248,cdot_cos,T,S-T,144,28,29286,-0.16559694687345125,0.10718045099905811,-0.1646817435451822,0.0038102500602636823,1038.0,3.6323383473755233,0.5751010165739892,6.901213989161415,-0.016439255321318933,0.229,0.999999999999746,53.05685103888637,0.7152729577774207,144,2026-10-07 21:16:45.370244,33.8,0.9851846255534003,0.18603530947182875,0.05615979399563738
0248,cdot_cos,P,T-P,145,29,29885,0.03895603053780624,-0.0020876746792925847,0.2045529774112575,0.999007103398121,959.0,3.70468192628862,0.5763131271213835,6.939730870348586,-0.09349055509234222,0.599,0.9999999999997453,-63.56788160672271,0.720240459917396,145,2026-10-07 21:16:45.969243,33.8,0.4386026833100547,0.07919866980353016,0.12077392139081239
0248,cdot_cos,Q,P-Q,146,29,30013,-0.009448347847918087,-0.0095829729196437,-0.048404378385724325,0.16300080224932686,959.0,3.7272183538001524,0.5765108117678546,6.9660086379556025,-0.02949709545305819,0.128,0.9999999999997341,323.71487002986646,0.7252076529683565,146,2026-10-07 21:16:46.097243,33.8,0.1142366135730825,0.37117567883061636,0.17606583993384772
0248,cdot_cos,R,Q-R,147,29,30039,0.13317533070630982,0.2052648622464002,0.14262367855422792,0.9920031640141687,959.0,3.7997029000692577,0.5777133663531793,7.004404341087836,-0.09601233977896681,0.026,0.9999999999997323,-55.31162172397267,0.7301747782139214,147,2026-10-07 21:16:46.123244,33.8,0.5001845847726123,1.6543833383121633,2.787867164196357
0248,cdot_cos,S,R-S,148,29,30096,-0.0010039833659217499,-0.005179157760422822,-0.13417931407223158,0.010610323570665743,959.0,3.813246287392385,0.5777262237525822,7.028344875625185,-0.018144331182065144,0.057,0.9999999999997223,6056.279824296524,0.7351419254494348,148,2026-10-07 21:16:46.180243,33.8,0.013683168115657562,0.23312218029126616,0.23760328637065278
0248,cdot_cos,T,S-T,149,29,30325,-0.1745070173067771,0.05201211003756669,-0.17350303394085534,0.0028306830268961833,959.0,3.826278828622462,0.5777296539055988,7.0520911832174,-0.017520853455360752,0.229,0.9999999999997117,181.7638232703941,0.7401091915268064,149,2026-10-07 21:16:46.409244,33.8,0.965040803823406,0.18922717453113477,0.056910660393349924
0248,cdot_cos,P,T-P,150,30,30844,0.06289792930566929,-0.0003837595268898574,0.23740494661244638,0.9996726938397568,1017.0,3.8999123333276446,0.5789405618394314,7.090546929060085,-0.10003749533929425,0.519,0.9999999999997107,-68.14443904315891,0.7450766627545814,150,2026-10-07 21:16:46.928244,33.8,0.4382976050037751,0.08921552708397539,0.14187573160921502
0248,cdot_cos,Q,P-Q,151,30,30974,-0.0027069638870877532,-0.002832621889642581,-0.06560489319275704,0.09819478950642478,1017.0,3.9188845457356285,0.5790594546607823,7.115603939693355,-0.026082328032848552,0.13,0.999999999999698,622.0322342941658,0.7500438609260855,151,2026-10-07 21:16:47.058244,33.8,0.058692040290831235,0.3425506868511516,0.14594009544602968
0248,cdot_cos,R,Q-R,152,30,31004,0.07521216654203071,0.36084238512386013,0.07791913042911847,0.932997126127579,1017.0,3.988975511908944,0.5801886547117948,7.153048396994532,-0.09738429519151051,0.03,0.9999999999996957,-63.14378669637045,0.7550109880572037,152,2026-10-07 21:16:47.088243,33.8,0.48086384935259613,1.4812475730401342,2.3363655391105187
0248,cdot_cos,S,R-S,153,30,31033,0.007656763659196303,0.39924524186191535,-0.0675554028828344,0.09250942766551636,1017.0,4.0077594001180366,0.5803005727070116,7.177923931171972,-0.026389678399356367,0.029,0.9999999999996856,634.3449652990905,0.7599781151151382,153,2026-10-07 21:16:47.117243,33.8,0.06786452549816492,0.5493089658484102,0.6477202830721549
0248,cdot_cos,T,S-T,154,30,31283,-0.3782004615081446,0.12330701401550799,-0.38585722516734094,2.167412760358594e-06,1017.0,4.020835431928152,0.5803005753290531,7.2013430215803895,-0.01844384349045495,0.25,0.9999999999996744,3030400.163852769,0.7649454051898471,154,2026-10-07 21:16:47.367244,33.8,0.6499808910868147,0.1759004151620509,0.052304127240461185
0248,cdot_cos,P,T-P,155,31,31861,0.04879329984161322,2.8949436478427396e-05,0.42699376134975786,0.9999994603740773,1037.0,4.095709607699062,0.5815098462031266,7.2397415342828815,-0.10668173565389721,0.578,0.999999999999673,-72.96784703513636,0.7699129425061297,155,2026-10-07 21:16:47.945244,33.8,0.43730980843921297,0.08392104117653111,0.12954009648946394
0248,cdot_cos,Q,P-Q,156,31,31995,-0.003890138312935403,-0.004039224819445271,-0.05268343815454862,0.1442166939210511,1037.0,4.117848155528222,0.5816841629093618,7.265235372583716,-0.03191659201120194,0.134,0.9999999999996603,428.9040635144029,0.7748801473672287,156,2026-10-07 21:16:48.079243,33.8,0.09608553378318363,0.3619393416532399,0.16521304350119256
0248,cdot_cos,R,Q-R,157,31,32025,0.1355272961594176,0.2031553657841564,0.13941743447235302,0.9910959867422087,1037.0,4.19270935126213,0.5828815603262727,7.303487556995241,-0.10911164872529504,0.03,0.999999999999658,-64.46903561329026,0.7798472734305005,157,2026-10-07 21:16:48.109244,33.8,0.49288132670360096,1.4801424689788365,2.495373191130283
0248,cdot_cos,S,R-S,158,31,32051,-0.0008260519152372737,-0.0018524225792385998,-0.13635334807465488,0.009866025591677157,1037.0,4.206656703666952,0.582893475125099,7.326859911978354,-0.02054560816449109,0.026,0.9999999999996458,7433.280397903999,0.7848143970320919,158,2026-10-07 21:16:48.135243,33.8,0.013424092264293799,0.524377900643943,0.5364366309546807
0248,cdot_cos,T,S-T,159,31,32321,-0.22784165847801474,0.1257913452857126,-0.22701560656277747,0.000464944481362952,1037.0,4.219977002095615,0.5828940366172972,7.350016678862157,-0.01968559860409856,0.27,0.9999999999996336,1531.650062420091,0.7897817123094609,159,2026-10-07 21:16:48.405244,33.8,0.957253296843194,0.16554455017411548,0.04933443862467902
0248,cdot_cos,P,T-P,160,32,32898,0.04581770675949912,0.00014185796541033922,0.2736593652375139,0.9999038674588951,980.0,4.296050760760974,0.5841010751555755,7.388361747803409,-0.11352519017699084,0.577,0.9999999999996317,-77.74365821553899,0.7947492742055013,160,2026-10-07 21:16:48.982244,33.8,0.43753565138278994,0.08542054932789035,0.13184360253961705
0248,cdot_cos,Q,P-Q,161,32,33030,-0.006838435087766427,-0.007766476316969266,-0.05265614184726555,0.14433059884404345,980.0,4.318552316020001,0.5842752215747293,7.413624262776798,-0.033963755365152455,0.132,0.9999999999996174,456.8651781554489,0.7997164813043077,161,2026-10-07 21:16:49.114244,33.8,0.09608333500731028,0.37275132567934655,0.1704663277198971
0248,cdot_cos,R,Q-R,162,32,33060,0.12574310623563312,0.20818647232050388,0.13258154132339955,0.9888075037212195,980.0,4.394457110740322,0.5854677289343807,7.451790467082083,-0.11578257081771869,0.03,0.9999999999996153,-68.6107425588432,0.8046836061688563,162,2026-10-07 21:16:49.144243,33.8,0.4932894436118702,1.504800756982198,2.5301598240107026
0248,cdot_cos,S,R-S,163,32,33089,-0.00175764981749448,-0.004878082835976188,-0.1275007560531276,0.01326168849889666,980.0,4.408840361438933,0.5854837158329484,7.474958536842781,-0.022166819438046194,0.029,0.9999999999996009,5855.779404803308,0.8096507308965546,163,2026-10-07 21:16:49.173243,33.8,0.014651129123334435,0.48238976370679004,0.49597416202106187
0248,cdot_cos,T,S-T,164,32,33339,-0.19516462871970433,0.06559245501634461,-0.19340697890220984,0.0014465072212795356,980.0,4.422435717035316,0.5854854595792152,7.497875121220343,-0.02101911659082271,0.25,0.9999999999995881,658.1822534229949,0.8146180402057034,164,2026-10-07 21:16:49.423244,33.8,0.9468611562630316,0.1817030953524359,0.05438142238553212
0248,cdot_cos,P,T-P,165,33,33878,0.06191093267788298,-0.0007399274239994164,0.2570755613975873,0.9998316259160022,978.0,4.499691909115151,0.5866902293345022,7.536175374339026,-0.120567634975076,0.539,0.9999999999995863,-82.62866655424527,0.8195855961539834,165,2026-10-07 21:16:49.962244,33.8,0.4379435103232045,0.09017831469435429,0.1433324528382837
0248,cdot_cos,Q,P-Q,166,33,34008,-0.003401320872874912,-0.0037580292814354214,-0.0653122535507579,0.09907417026865249,978.0,4.51964794027583,0.5868095547540956,7.560515350906625,-0.031480447050568454,0.13,0.9999999999995702,746.5901919984724,0.8245528056294991,166,2026-10-07 21:16:50.092243,33.8,0.05901749763402428,0.3742728811288428,0.15350793200522317
0248,cdot_cos,R,Q-R,167,33,34037,0.14465515026025638,0.2295176657868125,0.1480564711331313,0.9933357329191579,978.0,4.59700285820865,0.5880053675087336,7.598707127814887,-0.12323684689731541,0.029,0.9999999999995681,-76.73141090933183,0.8295199286541856,167,2026-10-07 21:16:50.121243,33.8,0.4749464157180284,1.5789386898624171,2.6674109632006937
0248,cdot_cos,S,R-S,168,33,34088,-1.9789617776437238e-05,-8.748177076652199e-05,-0.14467493987803282,0.0074651769174192495,978.0,4.61122638428785,0.588014350439871,7.621540215968309,-0.02288747857077936,0.051,0.9999999999995536,11171.116286054781,0.8344870718175218,168,2026-10-07 21:16:50.172243,33.8,0.012469546887814422,0.2737961207836439,0.2788926682196094
0248,cdot_cos,T,S-T,169,33,34317,-0.38415924059260176,0.08553869703570402,-0.3841394509748253,2.2969790843631846e-06,978.0,4.624930062528581,0.5880143532038427,7.64418975360966,-0.022117854149093813,0.229,0.9999999999995381,278448.74371939426,0.8394543724684926,169,2026-10-07 21:16:50.401243,33.8,0.9658019146946504,0.20115847212773227,0.05984138969751789
0248,cdot_cos,P,T-P,170,34,34856,0.04637920968647079,0.0002856674280328963,0.43053845027907256,0.9999995213040007,999.0,4.703356964522351,0.5892171316144358,7.682454721367422,-0.12773182779548622,0.539,0.9999999999995371,-87.80833835744575,0.8444219529518936,170,2026-10-07 21:16:50.940243,33.8,0.4374287337003889,0.09460542011711902,0.14550445638918327
0248,cdot_cos,Q,P-Q,171,34,34989,-0.004937602813640187,-0.005469526648761962,-0.05131681250011098,0.15001183147700375,999.0,4.726914705414836,0.5893974711082592,7.70737547904289,-0.03878218210260362,0.133,0.9999999999995198,493.2344202981972,0.8493891692688968,171,2026-10-07 21:16:51.073244,33.8,0.10090559479185665,0.38245967295818456,0.1771258713720641
0248,cdot_cos,R,Q-R,172,34,35021,0.12607746963084285,0.20857100395515843,0.13101507244448304,0.9882061072032053,999.0,4.805091237529228,0.5905848588261748,7.745451286855382,-0.12997247419169478,0.032,0.9999999999995176,-76.79908652682644,0.854356294029236,172,2026-10-07 21:16:51.105243,33.8,0.49578528328632904,1.4529265365194055,2.443016628574768
0248,cdot_cos,S,R-S,173,34,35046,-0.0015505087653981374,-0.003959641255380745,-0.127627978396241,0.013205535598421176,999.0,4.819902003752078,0.5906007189357217,7.768143101864774,-0.024863573383018457,0.025,0.9999999999995022,6627.249357756338,0.8593234129873569,173,2026-10-07 21:16:51.130244,33.8,0.014589905901389337,0.5765390516915758,0.5924306489139752
0248,cdot_cos,T,S-T,174,34,35315,-0.19165625557625157,0.07494125314781395,-0.19010574681085343,0.0016169840942254132,999.0,4.833918190113807,0.5906026609526599,7.790587639121824,-0.02360010996183256,0.269,0.9999999999994864,650.5934095453504,0.86429076064521,174,2026-10-07 21:16:51.399244,33.8,0.9478714983332354,0.1739364557862599,0.052104782013863975
0248,cdot_cos,P,T-P,175,35,35855,0.05016312996987172,-0.0007558409071020276,0.24181938554612328,0.9997180489890706,958.0,4.9134798169650855,0.5918027908123135,7.828818626486485,-0.13513998424254953,0.54,0.9999999999994846,-92.93983762133423,0.8692583678378007,175,2026-10-07 21:16:51.939244,33.8,0.43807486753700403,0.09453192843814505,0.14733634602088597
0248,cdot_cos,Q,P-Q,176,35,35985,-0.0062894400511519085,-0.00719090173323052,-0.05645257002102363,0.12919481027065693,958.0,4.936012672827004,0.5919578055692372,7.853211522901206,-0.03866966641119389,0.13,0.9999999999994664,622.3298977841179,0.874225585576265,176,2026-10-07 21:16:52.069243,33.8,0.08251885446001646,0.3922645773986215,0.173329660476294
0248,cdot_cos,R,Q-R,177,35,36014,0.13105879921222324,0.21941214785712715,0.13734823926337514,0.9904571128153111,958.0,5.015468607088727,0.5931455984725842,7.891292769230204,-0.13764450023964436,0.029,0.999999999999464,-83.32667550846082,0.8791927064051258,177,2026-10-07 21:16:52.098243,33.8,0.48720938288179727,1.626768032769349,2.7398598021283918
0248,cdot_cos,S,R-S,178,35,36044,-0.0012461713619595061,-0.003584704178033111,-0.13230497057418275,0.011296427852153831,958.0,5.030365218727626,0.5931591393163853,7.913733808104572,-0.026050365125545944,0.03,0.9999999999994472,8241.298456221715,0.8841598289677952,178,2026-10-07 21:16:52.128243,33.8,0.013790381599619494,0.4837848955175694,0.49655372129662945
0248,cdot_cos,T,S-T,179,35,36294,-0.24103621284698287,0.06465949912415524,-0.23979004148502336,0.0003019631973812671,958.0,5.044495700819781,0.5931595012728018,7.935937097903704,-0.024781994204742436,0.25,0.9999999999994296,3504.208968162029,0.8891271694497811,179,2026-10-07 21:16:52.378243,33.8,0.9501065447481165,0.1896800232518725,0.05652192836862113
0248,cdot_cos,P,T-P,180,36,36813,0.053330399755627624,-0.0027530507923232564,0.2943666126026105,0.9999522551453071,978.0,5.125205230353562,0.5943575643058719,7.974147433877283,-0.14274754048637814,0.519,0.9999999999994286,-98.46355577747848,0.8940947818751831,180,2026-10-07 21:16:52.897243,33.8,0.437625023382266,0.09976097457902786,0.15550969081653365
0248,cdot_cos,Q,P-Q,181,36,36941,-0.0031577749631245956,-0.0033998501159532217,-0.05648817471875222,0.12905947958842445,978.0,5.148047592432812,0.594512111575328,7.998346592656961,-0.0408067572414491,0.128,0.9999999999994094,659.6090866160749,0.8990620020217196,181,2026-10-07 21:16:53.025243,33.8,0.08223824058351595,0.3876613669858281,0.1784559537441402
0248,cdot_cos,R,Q-R,182,36,36968,0.07255114390160616,0.35478245431376926,0.07570891886473076,0.9281732513200287,978.0,5.224446540301934,0.5956230352223286,8.035398250061126,-0.13768065548523556,0.027,0.999999999999406,-87.20122080877232,0.9040291197900492,182,2026-10-07 21:16:53.052243,33.8,0.49479438123375397,1.6884604716226943,2.829590661819335
0248,cdot_cos,S,R-S,183,36,37023,-0.07570906323394128,0.41004946521330654,-0.14826020713554744,0.006618835450954223,978.0,5.239224457900438,0.5956309537538009,8.057550389193741,-0.02686562939333082,0.055,0.9999999999993875,13994.39106600281,0.908996267442567,183,2026-10-07 21:16:53.107244,33.8,0.01616692139692912,0.2643289158381311,0.26868941088188075
0248,cdot_cos,T,S-T,184,36,37252,-0.37281310867834766,0.08486440662199882,-0.2971040454444064,4.3525644596844686e-05,978.0,5.253522721044129,0.5956310058261176,8.079536269976769,-0.026065867442878265,0.229,0.9999999999993687,15358.678112113621,0.913963596568126,184,2026-10-07 21:16:53.336244,33.8,0.9697835802787582,0.20985925628656016,0.062437830321794674
0248,cdot_cos,P,T-P,185,37,37791,0.05306071550317934,-0.004238091520835936,0.42587382418152697,0.9999994395556119,939.0,5.335339997279682,0.5968267941190463,8.117726341750519,-0.15037608065369457,0.539,0.9999999999993673,-103.95670700736063,0.9189312550533126,185,2026-10-07 21:16:53.875243,33.8,0.43750718791070276,0.09765377633484042,0.15179457557616616
0248,cdot_cos,Q,P-Q,186,37,37881,-0.002243427565961185,-0.001535939940792653,-0.05530414306914053,0.1336250503777382,939.0,5.358793491933087,0.5969864946885557,8.141814829565966,-0.04352930856413119,0.09,0.9999999999993471,669.0444023949332,0.9238984386681307,186,2026-10-07 21:16:53.965244,33.8,0.08589807784742787,0.5852053358402505,0.2605943850378267
0248,cdot_cos,R,Q-R,187,37,37941,0.1475303565534892,0.22510730889432326,0.1497737841194504,0.9937091846429069,939.0,5.440676957730927,0.5981734686994633,8.179903730143431,-0.1533235538361648,0.06,0.9999999999993447,-92.49928327249545,0.9288655911802569,187,2026-10-07 21:16:54.025243,33.8,0.48865669183638133,0.8072420358696819,1.3647244299640113
0248,cdot_cos,S,R-S,188,37,38000,-0.0002769707644205689,-0.001633821214332311,-0.14780732731790977,0.006720245506692396,939.0,5.4556625362374485,0.5981814920544097,8.201855984331441,-0.028311415736893806,0.059,0.9999999999993254,15581.030495841014,0.9338327435858643,188,2026-10-07 21:16:54.084243,33.8,0.012087192505091366,0.2502024250602288,0.2539928560427315
0248,cdot_cos,T,S-T,189,37,38229,-0.21518724601192776,0.06736357669750996,-0.2149102752475072,0.0006998340080683049,939.0,5.470200843888034,0.598182327588815,8.223651992510526,-0.027540814202781747,0.229,0.9999999999993054,922.2858200674333,0.9388000827623275,189,2026-10-07 21:16:54.313244,33.8,0.9724074774768736,0.2127647900514972,0.06348605960954513
0248,cdot_cos,P,T-P,190,38,38730,0.04053127032485284,-0.0015206497681223867,0.2557185163367806,0.999823724446657,938.0,5.553108810081034,0.5993754362047627,8.261824936997161,-0.1583030292051918,0.501,0.9999999999993043,-109.59791359693946,0.9437677265335851,190,2026-10-07 21:16:54.814244,33.8,0.43778615533811743,0.10867863908886755,0.16548496246107763
0248,cdot_cos,Q,P-Q,191,38,38860,-0.0072356440783807865,-0.008591182881661844,-0.04776691440323363,0.16596178012933427,938.0,5.57909684025508,0.5995733679859355,8.286273746194265,-0.05010307236889404,0.13,0.9999999999992841,546.6527719560527,0.9487349577296518,191,2026-10-07 21:16:54.944243,33.8,0.11537733551844408,0.41780288233611146,0.1999079244157337
0248,cdot_cos,R,Q-R,192,38,38889,0.12527837426108773,0.22099596224129917,0.13251401833946852,0.9887822170526354,938.0,5.661737559488423,0.6007519485072589,8.324268170974314,-0.1607219031502966,0.029,0.9999999999992815,-93.85767775730356,0.9537020754759606,192,2026-10-07 21:16:54.973243,33.8,0.5024484028313595,1.694827896597308,2.849679973563572
0248,cdot_cos,S,R-S,193,38,38919,-0.0015981015549550739,-0.005074197183669695,-0.1268764758160428,0.013540662869849156,938.0,5.6773968582577234,0.6007680802582713,8.346141898333062,-0.030720540770019556,0.03,0.9999999999992609,8058.726066373828,0.9586691951717516,193,2026-10-07 21:16:55.003244,33.8,0.014527081388911577,0.5059266916153179,0.5219766256433427
0248,cdot_cos,T,S-T,194,38,39169,-0.2734716091354904,0.055472017533786715,-0.2718735075805353,0.00010211339210650203,938.0,5.692093160985342,0.600768201910851,8.367737776591419,-0.028908508140004868,0.25,0.9999999999992399,14895.143488386546,0.9636365694267003,194,2026-10-07 21:16:55.253243,33.8,0.9392424456001989,0.1974186203981816,0.05878521091047517
0248,cdot_cos,P,T-P,195,39,39668,0.04889193443961401,-0.0011114897578106931,0.32236354357510444,0.9999814660487845,999.0,5.776106168456814,0.6019589292811686,8.405904096328896,-0.1665255753605195,0.499,0.9999999999992388,-115.57395139393944,0.9686042374627359,195,2026-10-07 21:16:55.752243,33.8,0.43762102094138733,0.1087295780258245,0.1683627404237916
0248,cdot_cos,Q,P-Q,196,39,39799,-0.004917757851438281,-0.005289145879419887,-0.05380969229105229,0.13958181697573882,999.0,5.800605279855115,0.6021250406710528,8.429755933914345,-0.04901323002147821,0.131,0.9999999999992161,707.4309920647729,0.9735714747619622,196,2026-10-07 21:16:55.883244,33.8,0.09093923105919466,0.4138895224596635,0.18701611754428132
0248,cdot_cos,R,Q-R,197,39,39828,0.13778541978789532,0.21255377771815775,0.1427031776393336,0.9920244520718289,999.0,5.884545223341246,0.6033049342480468,8.467793688553193,-0.16933279726321554,0.029,0.9999999999992147,-101.9749319665545,0.9785385915349786,197,2026-10-07 21:16:55.912243,33.8,0.49137343760553603,1.7154941290914705,2.8944808098665855
0248,cdot_cos,S,R-S,198,39,39855,-0.0006904810711719898,-0.001693399158123722,-0.1384759008590673,0.009189284377514506,999.0,5.90010393934242,0.603315858201836,8.48941204810984,-0.031653703401911634,0.027,0.9999999999991924,12603.412328354136,0.9835057066898547,198,2026-10-07 21:16:55.939244,33.8,0.01291273281804811,0.5640347834109342,0.5762487407842337
0248,cdot_cos,T,S-T,199,39,40107,-0.24409643059635472,0.11943748821550318,-0.24340594952518274,0.00026723333616145026,999.0,5.9150031016454365,0.6033161758795058,8.510827426744637,-0.030390197023989842,0.252,0.9999999999991707,3977.3219772473185,0.9884730953636506,199,2026-10-07 21:16:56.191243,33.8,0.9592763156176034,0.19837779507151218,0.059123659932603705
0248,cdot_cos,P,T-P,200,40,40667,0.031063788558856185,5.274065072360509e-05,0.2751602191552109,0.9999086220896268,978.0,6.0000863480584625,0.6045042201388507,8.548986211188868,-0.1748344334215346,0.56,0.9999999999991688,-121.5815280124233,0.9934408650038478,200,2026-10-07 21:16:56.751244,33.8,0.4377193713915717,0.10333936586056713,0.15193436859468928
0248,cdot_cos,Q,P-Q,201,40,40776,-0.005939664125355638,-0.005006110236156733,-0.037003452684211825,0.22257609915581397,978.0,6.030743191409272,0.6047685072805585,8.574079233471227,-0.06359283424994493,0.109,0.9999999999991468,420.9118856587653,0.9984080797232024,201,2026-10-07 21:16:56.860243,33.8,0.17389930789643046,0.5275966102191211,0.28125544358540555
0248,cdot_cos,R,Q-R,202,40,40836,0.11359495684206734,0.2107495284491882,0.11953462096742298,0.9827114344459585,978.0,6.115102409086231,0.6059346463601013,8.611955305684125,-0.17648132268533293,0.06,0.9999999999991447,-96.80533858761524,1.003375234439625,202,2026-10-07 21:16:56.920243,33.8,0.5274704022297422,0.841155365328472,1.4059869612826534
0248,cdot_cos,S,R-S,203,40,40895,-0.0005761233171663355,-0.01512386589117673,-0.11417108015923368,0.02065386826573661,978.0,6.131681835248688,0.6059591424775591,8.633594732433213,-0.03497201763744108,0.059,0.9999999999991213,5776.805458727779,1.0083423889339578,203,2026-10-07 21:16:56.979244,33.8,0.017485941762706937,0.27957441854394804,0.2810072230924991
0248,cdot_cos,T,S-T,204,40,41124,-0.11775672747627053,0.03131827757614987,-0.1171806041591042,0.018693583587174028,978.0,6.148092190474417,0.6059813131784859,8.655150287598484,-0.03470794803178177,0.229,0.999999999999098,11.910746824429445,1.0133097606425474,204,2026-10-07 21:16:57.208243,33.8,0.9924205376936008,0.22353206406325987,0.07166093985034246
0248,cdot_cos,P,T-P,205,41,41645,0.0556148359905797,-0.0007954498046192196,0.17337156346685023,0.9971567461158007,978.0,6.234059520589661,0.6071633124718463,8.693261716253419,-0.1831435081718254,0.521,0.9999999999990964,-125.58007519450099,1.0182775119663403,205,2026-10-07 21:16:57.729243,33.8,0.44464116321965486,0.10535222537727891,0.1650044723901048
0248,cdot_cos,Q,P-Q,206,41,41774,-0.003070682831384816,-0.0033282459870788536,-0.058685518821964516,0.12093873101718393,978.0,6.257869209317541,0.6073065845413252,8.71649562840383,-0.05116692351642012,0.129,0.99999999999907,921.1605942133441,1.0232447564990257,206,2026-10-07 21:16:57.858243,33.8,0.07582448757180105,0.39452218271450035,0.1845712304486824
0248,cdot_cos,R,Q-R,207,41,41801,0.05555390921151385,0.3894155291648013,0.05862459204289866,0.8788421659110314,978.0,6.3358462437300025,0.6083471632885594,8.752597922840684,-0.16877874597880232,0.027,0.9999999999990652,-113.02539358505098,1.0282118679956347,207,2026-10-07 21:16:57.885243,33.8,0.4981568739650808,1.8056716592391802,2.888038311572632
0248,cdot_cos,S,R-S,208,41,41832,-0.026253729699393213,0.4269855833164593,-0.08180763891090706,0.05923960290080212,978.0,6.355375478916457,0.6084172696759383,8.774725066398869,-0.04259496200266902,0.031,0.999999999999041,1799.8899771302906,1.0331789856370905,208,2026-10-07 21:16:57.916243,33.8,0.051694132258348006,0.5611019477638918,0.6299753285953117
0248,cdot_cos,T,S-T,209,41,42084,-0.4239213834815361,0.09418249808699239,-0.39766765378214286,1.4540349356493822e-06,978.0,6.370634564491364,0.6084172713966435,8.795792878013616,-0.03337262557340869,0.252,0.9999999999990158,5359626.264480977,1.038146398751024,209,2026-10-07 21:16:58.168243,33.8,0.7585516806173759,0.2032994315766543,0.06055192688455011
0248,cdot_cos,P,T-P,210,42,42623,0.04375934275846247,-0.0035013132682744155,0.46768072623999857,0.9999998635910781,939.0,6.457838392431091,0.6096000319459512,8.833950287579409,-0.19204794330413355,0.539,0.9999999999990143,-134.15675541730917,1.0431142021477944,210,2026-10-07 21:16:58.707244,33.8,0.4376973305642254,0.10603882570432958,0.16178817799578318
0248,cdot_cos,Q,P-Q,211,42,42713,-0.004686129435253746,-0.0032110407948780445,-0.04844547219371622,0.1628113915255406,939.0,6.484944418600631,0.6097924773580609,8.857754268968122,-0.060216523367380696,0.09,0.9999999999989874,685.0328022455873,1.0480813980153179,211,2026-10-07 21:16:58.797244,33.8,0.11199626098436351,0.6349107545790804,0.30117806855044627
0248,cdot_cos,R,Q-R,212,42,42772,0.14264378937110106,0.21476673276507385,0.1473299188063548,0.9931711807542657,939.0,6.572122328255325,0.6109656780216155,8.895801476101965,-0.19516466543365046,0.059,0.9999999999989853,-115.0256271228103,1.053048552622896,212,2026-10-07 21:16:58.856243,33.8,0.5008453737276612,0.8747896552078853,1.4775916890626153
0248,cdot_cos,S,R-S,213,42,42831,-0.0007367478599849339,-0.004390218781288029,-0.14338053723108599,0.0077964315695620194,939.0,6.5881695979151615,0.6109748826290573,8.916891800627326,-0.03620863968280059,0.059,0.9999999999989584,17269.180326901263,1.058015708312158,213,2026-10-07 21:16:58.915244,33.8,0.01240069581385542,0.26766928042315224,0.2719876213531553
0248,cdot_cos,T,S-T,214,42,43062,-0.19854545579754607,0.05978714798841728,-0.19780870793756114,0.001246791412666894,939.0,6.603707303345257,0.610976354606103,8.937820502121461,-0.0351429664569384,0.231,0.9999999999989315,723.9740789282517,1.0629831046822584,214,2026-10-07 21:16:59.146244,33.8,0.9701312177936916,0.22458070393099522,0.0672627940696788
0248,cdot_cos,P,T-P,215,43,43562,0.036543915227701465,0.0012234674742359834,0.23508937102524752,0.9996460570253198,899.0,6.691925883131281,0.6121558956419474,8.975974505369972,-0.20087814825015726,0.5,0.9999999999989299,-140.5081949307302,1.067950883912128,215,2026-10-07 21:16:59.646244,33.8,0.4382116293126087,0.11283688639533374,0.17643715957204797
0248,cdot_cos,Q,P-Q,216,43,43696,-0.021223447846263347,-0.02175110496477929,-0.05776736307396481,0.12427700150114043,899.0,6.716544189740591,0.6123024458538742,8.998978795730586,-0.05652504612038793,0.134,0.9999999999989011,985.0078019804882,1.0729181454001302,216,2026-10-07 21:16:59.780244,33.8,0.07778629023818598,0.4193368487264778,0.18371870603962498
0248,cdot_cos,R,Q-R,217,43,43726,0.1073438405199334,0.23143948043926288,0.12856728836619674,0.987201855671195,899.0,6.804308158589977,0.6134658526343713,9.036923813935294,-0.2029751887305264,0.03,0.9999999999988981,-125.88042726342425,1.0778852585467427,217,2026-10-07 21:16:59.810244,33.8,0.48601418903052634,1.7536208003831266,2.9254656283128773
0248,cdot_cos,S,R-S,218,43,43752,-0.001718892678391907,-0.00698641158133825,-0.10906273319832531,0.024451212114286087,899.0,6.821761437763579,0.6134946517533867,9.058147485623413,-0.04067789291667642,0.026,0.9999999999988702,5635.495159656816,1.0828523667397933,218,2026-10-07 21:16:59.836244,33.8,0.01850312392588868,0.6400653469609787,0.6712799682154342
0248,cdot_cos,T,S-T,219,43,44019,-0.1761237746511386,0.010387451783053649,-0.1744048819727467,0.0027459320426343093,899.0,6.837591556631948,0.6134978859166238,9.078947128063502,-0.0369848438428147,0.267,0.9999999999988419,1141.8870363398153,1.087819827532412,219,2026-10-07 21:17:00.103244,33.8,0.9049704031491634,0.1967778895631269,0.059288834712994766
0248,cdot_cos,P,T-P,220,44,44461,0.06807884777752529,0.0016129514610846675,0.2442026224286639,0.9997398647336899,958.0,6.9268408307902885,0.61467471364237,9.117107034398428,-0.20988442921852524,0.442,0.99999999999884,-146.92004750829105,1.0927875498614499,220,2026-10-07 21:17:00.545243,33.8,0.43876789522885856,0.1263341439296891,0.20192143474737592
0248,cdot_cos,Q,P-Q,221,44,44570,-8.841262224429231e-05,-7.620670716813688e-05,-0.06816726039976959,0.09078781596588284,958.0,6.9492709398657935,0.6147815168989471,9.139392266358033,-0.05317060103607261,0.109,0.9999999999988093,1467.3132000366472,1.097754779806739,221,2026-10-07 21:17:00.654243,33.8,0.05247715187593805,0.369537618908489,0.2057808172064681
0248,cdot_cos,R,Q-R,222,44,44627,0.00864110559204215,0.45797180039044766,0.008729518214286441,0.5732338921095241,958.0,7.007400031712339,0.6154556165567064,9.170090183882616,-0.13850420744906855,0.057,0.9999999999987947,-126.58900717534863,1.1027219326730942,222,2026-10-07 21:17:00.711244,33.8,0.5400419779250157,0.6974094936138542,1.0198086288867645
0248,cdot_cos,S,R-S,223,44,44651,-0.06541416253165531,0.48372969763146373,-0.07405526812369746,0.07564337712186768,958.0,7.028775622137773,0.6155445370394574,9.192048205366998,-0.051217327670669915,0.024,0.9999999999987661,981.6284963592238,1.1076890364509915,223,2026-10-07 21:17:00.735244,33.8,0.18190965774129603,0.7732810443183783,0.8906496010597416
0248,cdot_cos,T,S-T,224,44,44918,-0.5163410161071977,0.007960261492067333,-0.4509268535755424,2.4031196796820784e-07,958.0,7.044517521839621,0.6155445373219373,9.212635111339734,-0.03781838127158314,0.267,0.999999999998737,47433287.54046959,1.1126565085203006,224,2026-10-07 21:17:01.002244,33.8,0.7016664047083685,0.19842055037805525,0.05895842584961933
0248,cdot_cos,P,T-P,225,45,45419,0.040812470506758,-0.0019681162257987115,0.5571534866139557,0.9999999933708408,958.0,7.134732196039654,0.6167193320137471,9.2507982041027,-0.21811185034492156,0.501,0.9999999999987355,-153.46806580781387,1.1176243416228182,225,2026-10-07 21:17:01.503244,33.8,0.4375299366830059,0.11852525909458118,0.1800692099801061
0248,cdot_cos,Q,P-Q,226,45,45549,-0.006058903150714898,-0.006961803744203815,-0.046871373657472896,0.1701940771153185,958.0,7.1632798314523916,0.6169191398779033,9.274336850578536,-0.06958392656274998,0.13,0.999999999998705,743.3537434045596,1.1225916067910937,226,2026-10-07 21:17:01.633244,33.8,0.1183019719961151,0.4556454873102983,0.2195971954825938
0248,cdot_cos,R,Q-R,227,45,45579,0.12990335674422188,0.22017548129236314,0.13596225989493677,0.9900040040959575,958.0,7.253200022740332,0.6180806197392852,9.312332158112083,-0.22073825868046842,0.03,0.9999999999987025,-130.13943430570956,1.127558717649713,227,2026-10-07 21:17:01.663244,33.8,0.5042075662304382,1.7793638677819543,2.9973397095980125
0248,cdot_cos,S,R-S,228,45,45606,-0.0011632115670269108,-0.0033184234005488172,-0.1310665683112488,0.011773624148507798,958.0,7.270041663519309,0.6180944245522304,9.333029795884887,-0.04164887928144858,0.027,0.9999999999986711,12972.966755124758,1.1325258246808396,228,2026-10-07 21:17:01.690243,33.8,0.013568820134636218,0.6095478907802586,0.6237644732954398
0248,cdot_cos,T,S-T,229,45,45858,-0.18535477686307048,0.056380963620609126,-0.18419156529604355,0.0019740836918755557,958.0,7.286115608842466,0.6180967391867052,9.353509583673498,-0.03984039044563007,0.252,0.99999999999864,781.3280479246694,1.1374932876775554,229,2026-10-07 21:17:01.942244,33.8,0.95562151301617,0.21284074367914194,0.06378549731411544
0248,cdot_cos,P,T-P,230,46,46377,0.05218321291088553,-0.002647725888920275,0.23753798977395602,0.9996741619064601,919.0,7.377313398333596,0.6192681772413898,9.391675735722007,-0.2274375276653556,0.519,0.9999999999986385,-160.14260119816856,1.1424611799374802,230,2026-10-07 21:17:02.461244,33.8,0.43830980463481006,0.11233023115526365,0.17571828418329566
0248,cdot_cos,Q,P-Q,231,46,46507,-0.005594964069596764,-0.006800962533127744,-0.0577781769804823,0.1242372276915544,919.0,7.40271438878163,0.6194136642621164,9.414281860582172,-0.06384168186882486,0.13,0.9999999999986044,1124.4703821654014,1.1474284505044892,231,2026-10-07 21:17:02.591244,33.8,0.07710986471067353,0.4473555654451015,0.19539223421564025
0248,cdot_cos,R,Q-R,232,46,46534,0.13053833666593087,0.23522487867804837,0.13613330073552762,0.9900610533284642,919.0,7.493625845349323,0.6205722992678497,9.452284945213519,-0.23001912052077605,0.027,0.999999999998602,-143.4251837978729,1.152395555225278,232,2026-10-07 21:17:02.618243,33.8,0.48556090866888235,1.9987962883271875,3.367090983988636
0248,cdot_cos,S,R-S,233,46,46565,-0.0005869326087902237,-0.0020306692639190565,-0.1311252692747211,0.011750561567730461,919.0,7.510649388351298,0.6205860423303178,9.472844105022672,-0.04338352239490098,0.031,0.999999999998569,13580.349980936648,1.1573626674325723,233,2026-10-07 21:17:02.649244,33.8,0.013541547403339476,0.5342636793745269,0.5491465484508048
0248,cdot_cos,T,S-T,234,46,46817,-0.33795118165876653,-0.02630271068069325,-0.3373642490499763,1.1162810667854832e-05,919.0,7.526750193470543,0.6205860553858746,9.493150517725244,-0.04112256333017369,0.252,0.9999999999985352,173179.82598135882,1.1623301438847313,234,2026-10-07 21:17:02.901243,33.8,0.946503144915715,0.2149045617895037,0.06389208380653064
0248,cdot_cos,P,T-P,235,47,47296,0.058459146495535956,0.0002529849322733172,0.3964103281543025,0.9999984828403291,978.0,7.618961287493208,0.6217549092968975,9.531331750896326,-0.2369243460980599,0.479,0.9999999999985343,-167.51604364017095,1.1672980008845573,235,2026-10-07 21:17:03.380243,33.8,0.4376080339257893,0.12215221067823588,0.19250750317883955
0248,cdot_cos,Q,P-Q,236,47,47426,-0.002527420237406825,-0.0028686844788962888,-0.06098656673294278,0.11291094612848497,978.0,7.643772011300293,0.6218867973440666,9.553616110245025,-0.064231693319109,0.13,0.9999999999984986,1309.3882007176799,1.1722652770863253,236,2026-10-07 21:17:03.510243,33.8,0.06797675664036477,0.4486700310982015,0.19085172159296784
0248,cdot_cos,R,Q-R,237,47,47460,0.13198770729000614,0.22698501445594552,0.13451512752741296,0.9895081715341619,978.0,7.73561549557874,0.6230418402758987,9.591617142360128,-0.23929964452360244,0.034,0.9999999999984963,-151.56834986800368,1.1772323924751387,237,2026-10-07 21:17:03.544243,33.8,0.4811459286649273,1.6030071436291864,2.7012789493660754
0248,cdot_cos,S,R-S,238,47,47485,-0.000569514287179111,-0.0015417040703736894,-0.13255722157718525,0.011201597275600345,978.0,7.752776497067078,0.6230549078170743,9.612032904313578,-0.04502958077045278,0.025,0.9999999999984615,14866.611946565865,1.1821994934199462,238,2026-10-07 21:17:03.569243,33.8,0.013376223199602858,0.6689957127318635,0.686440059533524
0248,cdot_cos,T,S-T,239,47,47735,-0.24688905653506607,0.08979378257323606,-0.24631954224788696,0.00024217674816968789,978.0,7.769065281215333,0.6230551903332563,9.632209431205876,-0.04283322250958069,0.25,0.9999999999984267,7774.274185964578,1.1871669802775655,239,2026-10-07 21:17:03.819244,33.8,0.9500154995284544,0.21894705682291615,0.0651551365930203
0248,cdot_cos,P,T-P,240,48,48274,0.05412684039157206,0.0007483067204237992,0.3010158969266381,0.9999618649004522,1017.0,7.862250025478536,0.6242210009402019,9.670400285050356,-0.24646514891235022,0.539,0.9999999999984255,-174.6698178842894,1.1921349702102308,240,2026-10-07 21:17:04.358243,33.8,0.437705127443045,0.11100159235211476,0.1728844977053859
0248,cdot_cos,Q,P-Q,241,48,48384,-0.0018235173028049246,-0.0014649896511860618,-0.055950357694376986,0.13111658237849907,1017.0,7.888724997770913,0.6243737575062953,9.692897852391386,-0.0705485265642258,0.11,0.9999999999983883,1151.614145611244,1.1971022167688388,241,2026-10-07 21:17:04.468243,33.8,0.08261575524828702,0.5414714453921307,0.24068156629433382
0248,cdot_cos,R,Q-R,242,48,48442,0.12726779846968111,0.21018417886402763,0.12909131577248603,0.9874237165844957,1017.0,7.981373743464805,0.625523352705859,9.730870326137147,-0.24844583576837506,0.058,0.9999999999983862,-154.74778362998157,1.2020693735026051,242,2026-10-07 21:17:04.526243,33.8,0.4886833155958879,0.9494906801709206,1.5973921671360694
0248,cdot_cos,S,R-S,243,48,48465,-0.0004720308982692422,-0.0011501195791322918,-0.12773982936795036,0.013156361076330707,1017.0,7.99886591667074,0.6255386603029949,9.75119333280961,-0.04723160724261676,0.023,0.9999999999983488,13144.729818789054,1.207036469072083,243,2026-10-07 21:17:04.549243,33.8,0.014120035663785984,0.7382024788945128,0.7605292698232509
0248,cdot_cos,T,S-T,244,48,48733,-0.24009081941653843,0.11551691793176623,-0.23961878851826918,0.00030371560215672284,1017.0,8.015331057493952,0.6255390136770802,9.771242413707977,-0.044552916230031374,0.268,0.9999999999983123,7580.326695740626,1.2120040016114144,244,2026-10-07 21:17:04.817244,33.8,0.9416479421562644,0.2063753826044414,0.06143709262392843
0248,cdot_cos,P,T-P,245,49,49291,0.04598466072372595,0.0002772039214715752,0.2860754801402644,0.9999368131543916,940.0,8.10948312174672,0.626701715802009,9.809444330310015,-0.25620388779843173,0.558,0.9999999999983108,-182.0337015221077,1.2169720591417132,245,2026-10-07 21:17:05.375243,33.8,0.43775159315771633,0.10932969602271526,0.16873129794402827
0248,cdot_cos,Q,P-Q,246,49,49427,-0.006424706452920557,-0.008041895153909188,-0.05240936717664651,0.14536376335146875,940.0,8.137342998255303,0.6268706197582077,9.832092832506143,-0.0763711775031014,0.136,0.9999999999982714,1064.7039556832074,1.2219393566985048,246,2026-10-07 21:17:05.511244,33.8,0.09492011622503072,0.44540919363890996,0.2048520331513416
0248,cdot_cos,R,Q-R,247,49,49456,0.11432520229257902,0.2220944488499426,0.12074990874549957,0.983395651523224,940.0,8.230634422416504,0.6280124518893807,9.870001859378434,-0.25732243691837586,0.029,0.9999999999982684,-158.4744854126497,1.226906460208899,247,2026-10-07 21:17:05.540244,33.8,0.4949946890880978,1.921997810876323,3.216945660731071
0248,cdot_cos,S,R-S,248,49,49483,-0.0012898546576933622,-0.004360893361528827,-0.11561505695027238,0.019689402228204467,940.0,8.24881887128613,0.6280352989474544,9.89032121511412,-0.050497890806814404,0.027,0.9999999999982299,9052.567969357118,1.2318735609837366,248,2026-10-07 21:17:05.567244,33.8,0.016643981012314797,0.6449893970822694,0.6734981062824322
0248,cdot_cos,T,S-T,249,49,49750,-0.2329842029863916,0.04162360794479749,-0.23169434832869826,0.00039696358143629463,940.0,8.265463849858946,0.6280357595675405,9.91024856629436,-0.046320481062369384,0.267,0.9999999999981906,9069.100262317976,1.23684110662577,249,2026-10-07 21:17:05.834244,33.8,0.913762179668445,0.20928705700762743,0.06234074371841528
0248,cdot_cos,P,T-P,250,50,50231,0.05490246806448572,0.0008328566463135508,0.28788667105087734,0.9999405650973935,938.0,8.360578159728203,0.6291953090789758,9.948463003913549,-0.2661397107861157,0.481,0.9999999999981889,-189.57295704575728,1.241809055681,250,2026-10-07 21:17:06.315244,33.8,0.4378169987738482,0.12655761770543658,0.19774284796103156
0248,cdot_cos,Q,P-Q,251,50,50341,-0.0023569253340693544,-0.002124180241807139,-0.05725939339855507,0.1261576686969009,938.0,8.387212278091576,0.6293414984213103,9.970656555573644,-0.07505862169344375,0.11,0.999999999998148,1307.0794768028275,1.24677631042076,251,2026-10-07 21:17:06.425244,33.8,0.07841358938850226,0.5495845648109404,0.24212834875794378
0248,cdot_cos,R,Q-R,252,50,50397,0.11936393117567495,0.23688593999747537,0.1217208565097443,0.983923110527687,938.0,8.48148676398661,0.6304808367936336,10.008585156633028,-0.2672568564901217,0.056,0.9999999999981446,-168.69284794186268,1.2517434642980487,252,2026-10-07 21:17:06.481244,33.8,0.4871653210009053,1.003836665412372,1.6834729624113047
0248,cdot_cos,S,R-S,253,50,50421,-0.0006687466655750793,-0.0022111412033105913,-0.12003267784125003,0.017004868015165438,938.0,8.499641984617762,0.6305005149256632,10.028736804967979,-0.05180979627580126,0.024,0.999999999998104,10948.552428203238,1.2567105578795124,253,2026-10-07 21:17:06.505243,33.8,0.015632186909507573,0.7281349714613657,0.756467526298025
0248,cdot_cos,T,S-T,254,50,50689,-0.2558360459085088,0.052609798384545915,-0.2551672992429337,0.000179589957336053,938.0,8.516437242616755,0.6305007227458901,10.048540184660306,-0.048027491471462166,0.268,0.9999999999980632,18199.887760990852,1.2616781209412953,254,2026-10-07 21:17:06.773243,33.8,0.9242682719297522,0.21056095777114656,0.06266887313057071
0248,cdot_cos,P,T-P,255,51,51169,0.04989404515035841,-0.0035760325486294013,0.30573009105886717,0.9999674817665447,840.0,8.612502657983097,0.631657125947892,10.086767824239725,-0.2761693326395393,0.48,0.9999999999980616,-197.28572246524595,1.2666460987368984,255,2026-10-07 21:17:07.253243,33.8,0.4377558057365321,0.12886525004496646,0.2001362820132117
0248,cdot_cos,Q,P-Q,256,51,51297,-0.004921393092927456,-0.006906151972901728,-0.054815438243285865,0.135548954555379,840.0,8.640147882659923,0.631813764214057,10.109033085005576,-0.08003445099755667,0.128,0.9999999999980193,1252.1517662575538,1.2716133931596874,256,2026-10-07 21:17:07.381243,33.8,0.08623917940394475,0.48077080891600205,0.2159783177877045
0248,cdot_cos,R,Q-R,257,51,51323,0.12256813337853785,0.26516551272808353,0.1274895264714653,0.9867333437328503,840.0,8.735579985065593,0.6329531783830123,10.147024307319743,-0.2778911800903222,0.026,0.9999999999980165,-173.64776960265976,1.2765804882048242,257,2026-10-07 21:17:07.407244,33.8,0.4906650542423031,2.1857309916311416,3.6704654771411676
0248,cdot_cos,S,R-S,258,51,51379,4.48154564009897e-06,-0.0029772246783928507,-0.12256365183289775,0.015632435224221666,840.0,8.753805894224742,0.6329712177685948,10.167036164846008,-0.05341858284300153,0.056,0.999999999997974,12443.472435448137,1.2815476440154145,258,2026-10-07 21:17:07.463244,33.8,0.014963455179956783,0.3140925481351126,0.3254626635562323
0248,cdot_cos,T,S-T,259,51,51609,-0.2923149673256381,-0.016548513189354158,-0.2923194488712782,5.1165323105143154e-05,840.0,8.770758350456726,0.6329712768113105,10.186721625481189,-0.04978614029963147,0.23,0.999999999997931,61522.280933155285,1.2865151470396374,259,2026-10-07 21:17:07.693243,33.8,0.9296371605843868,0.24774030755790152,0.07370633144340696
0248,cdot_cos,P,T-P,260,52,52009,0.0382053285879262,-3.211252747322271e-05,0.3305202959135643,0.9999859318906453,838.0,8.867766435701377,0.6341244561196574,10.22496279343475,-0.28636654536080697,0.4,0.9999999999979294,-205.1549168015471,1.2914829952408327,260,2026-10-07 21:17:08.093244,33.8,0.43773332409229093,0.16024082513528048,0.24252021311162775
0248,cdot_cos,Q,P-Q,261,52,52139,-0.0074085205783373485,-0.011505245268188805,-0.04561384916626354,0.1762812958953322,838.0,8.89895101056495,0.6343275840409245,10.247889304371796,-0.09270372245935385,0.13,0.9999999999978888,953.4032627981791,1.2964503003886285,261,2026-10-07 21:17:08.223244,33.8,0.12380454552419323,0.48395694752757595,0.2398813451044099
0248,cdot_cos,R,Q-R,262,52,52174,0.09100737110873966,0.2580180125185428,0.09841589168707701,0.9653253773358285,838.0,8.993595242058547,0.635439074120958,10.285493613968661,-0.2829792066503062,0.035,0.9999999999978859,-171.18954780524237,1.3014174130979825,262,2026-10-07 21:17:08.258244,33.8,0.5104814705410121,1.647744305637693,2.7041208998170414
0248,cdot_cos,S,R-S,263,52,52218,-1.716980958106769e-05,-0.006079551679004191,-0.09102454091832073,0.04408162565783604,838.0,9.014293111959589,0.6354897959950085,10.30592627963969,-0.06228036998742074,0.044,0.9999999999978433,4351.156986885414,1.3063845454653862,263,2026-10-07 21:17:08.302243,33.8,0.028908083974187038,0.43106081802741175,0.47040613411459214
0248,cdot_cos,T,S-T,264,52,52448,-0.1940453317402666,-0.03135611702640877,-0.19402816193068553,0.0014164955602682318,838.0,9.031528594044959,0.6354914258148858,10.325527183351651,-0.051971120679367315,0.23,0.9999999999977994,6325.3918127795905,1.3113520629220885,264,2026-10-07 21:17:08.532243,33.8,0.8200705050584807,0.25037325188609105,0.07493687863204426
0248,cdot_cos,P,T-P,265,53,52847,0.06474920148696724,-0.0002567255364760324,0.25879453322723384,0.9998411283806441,918.0,9.12946480782719,0.6366410660271737,10.363779587939842,-0.2967956860299499,0.399,0.9999999999977992,-212.9575520530492,1.316319936227121,265,2026-10-07 21:17:08.931243,33.8,0.43828206108728335,0.15373932028836793,0.24545416988028
0248,cdot_cos,Q,P-Q,266,53,52977,-0.0026213860659612216,-0.003242339702897232,-0.06737058755292846,0.09303518857886578,918.0,9.154212571635076,0.6367479608910374,10.385059257827942,-0.07549523506675965,0.13,0.999999999997754,2070.2627138899898,1.3212872481680382,266,2026-10-07 21:17:09.061243,33.8,0.05332677113425867,0.35670437268840405,0.19036741390681464
0248,cdot_cos,R,Q-R,267,53,53006,0.012611008481702077,0.42039702864787715,0.0152323945476633,0.6259438933050085,918.0,9.222207944726176,0.6374668015037284,10.41630776347985,-0.20830027302140894,0.029,0.9999999999977354,-184.74893545244828,1.3262543477259543,267,2026-10-07 21:17:09.090244,33.8,0.5285777568233557,1.5449515944184868,2.3446680376241087
0248,cdot_cos,S,R-S,268,53,53034,-0.07233695760005505,0.44167103290308457,-0.08494796608175713,0.05359365901853605,918.0,9.243819764111349,0.6375283205229653,10.436802814696188,-0.06652468484138849,0.028,0.9999999999976923,2304.581411385408,1.3312214460154839,268,2026-10-07 21:17:09.118243,33.8,0.11869802223070164,0.6936102348847102,0.7718506923276104
0248,cdot_cos,T,S-T,269,53,53286,-0.42322603251882535,0.0399921051389303,-0.3508890749187703,7.067117997681645e-06,918.0,9.26105011787972,0.6375283286348625,10.456256442399503,-0.053149395708250655,0.252,0.9999999999976469,1648848.4378147733,1.3361890217899384,269,2026-10-07 21:17:09.370244,33.8,0.7775132562398444,0.23025332372411578,0.06837441971575665
0248,cdot_cos,P,T-P,270,54,53765,0.04107090381017301,-0.0025084272757778855,0.4642969363289984,0.9999998470625161,1019.0,9.359867439268303,0.6386753791879091,10.494522006801429,-0.306306380568372,0.479,0.9999999999976477,-220.7025524618275,1.3411570886379516,270,2026-10-07 21:17:09.849244,33.8,0.43758561659502165,0.1357236202637674,0.20629920957950665
0248,cdot_cos,Q,P-Q,271,54,53894,-0.005877223058139671,-0.005962288810221052,-0.04694812686831268,0.16982800844839072,1019.0,9.391073346092409,0.6388700239648725,10.517143082063043,-0.09738234966883905,0.129,0.9999999999976028,1073.3605810486945,1.3461244031673918,271,2026-10-07 21:17:09.978244,33.8,0.1170212937930477,0.5030155870770531,0.24190625445043032
0248,cdot_cos,R,Q-R,272,54,53921,0.13655919326546748,0.19043088424788426,0.14243641632360715,0.9919527964164269,1019.0,9.489645460734183,0.6400060169634927,10.55526488459518,-0.30931147880895504,0.027,0.9999999999976018,-186.55848178424188,1.3510914969944334,272,2026-10-07 21:17:10.005243,33.8,0.5040075018875724,2.162582599942632,3.6508190608064512
0248,cdot_cos,S,R-S,273,54,53975,-0.0009395120261569744,-0.003333323375525004,-0.13749870529162445,0.009494937278920547,1019.0,9.50785280648931,0.6400168830977361,10.574829657150424,-0.05748587403192924,0.054,0.9999999999975547,23175.270904660294,1.3560586513464516,273,2026-10-07 21:17:10.059244,33.8,0.012517195679317578,0.33184456730427236,0.3371730695394064
0248,cdot_cos,T,S-T,274,54,54203,-0.1742694033757685,0.09306050686049616,-0.17332989134961152,0.0028472500683272067,1019.0,9.525484674003044,0.6400201415011351,10.594233716801282,-0.05577372387627473,0.228,0.9999999999975072,525.4567792885533,1.3610261896977163,274,2026-10-07 21:17:10.287244,33.8,0.969768253204165,0.2572512553844419,0.07733275225321697
0248,cdot_cos,P,T-P,275,55,54784,0.03783495526658187,-0.0023208972177310317,0.21210435864235036,0.9992305980400025,939.0,9.625159378944616,0.641162865891157,10.632498782837562,-0.3167949248070935,0.581,0.9999999999975074,-228.42008380149,1.3659945164149665,275,2026-10-07 21:17:10.868243,33.8,0.4386981191169192,0.11381854501608657,0.17155715136243038
0248,cdot_cos,Q,P-Q,276,55,54911,-0.006444083710181434,-0.007335965133461314,-0.0442790389767633,0.18292845856876758,939.0,9.657741823311737,0.6413718906924878,10.65528625742037,-0.10424484547438687,0.127,0.9999999999974603,1016.8653575053338,1.3709618320278696,276,2026-10-07 21:17:10.995244,33.8,0.13016524823214112,0.5193298958712443,0.2565546800560673
0248,cdot_cos,R,Q-R,277,55,54939,0.12964531674983765,0.21110356687413248,0.13608940046001908,0.9900464415821704,939.0,9.757069172495912,0.642502242540607,10.693384733976869,-0.31951708934164413,0.028,0.9999999999974585,-190.44711098182202,1.375928925914425,277,2026-10-07 21:17:11.023244,33.8,0.5097970854648082,2.1056426823722645,3.5474053280062683
0248,cdot_cos,S,R-S,278,55,54994,-0.0008886634453089468,-0.005284958286546183,-0.1305339801951466,0.011984922810406423,939.0,9.775657813524584,0.6425159162410475,10.712897444360317,-0.06015831129012934,0.055,0.9999999999974087,18967.70952226558,1.3808960824355179,278,2026-10-07 21:17:11.078244,33.8,0.01341648747420185,0.32906380135226954,0.33797529143038735
0248,cdot_cos,T,S-T,279,55,55223,-0.2253844112966676,0.05580233404524514,-0.22449574785135867,0.0005062587456605851,939.0,9.793266190644662,0.6425164938308523,10.732157605948574,-0.05709145472615116,0.229,0.9999999999973588,5309.748438584179,1.3858636363873318,279,2026-10-07 21:17:11.307244,33.8,0.9476990245737047,0.25816232598906413,0.07689247650689233
0248,cdot_cos,P,T-P,280,56,55723,0.018127198738207822,0.001046778205129947,0.24351161003487543,0.9997337190851459,978.0,9.893896158827575,0.6436562790648637,10.770446113553676,-0.3277763979036019,0.5,0.9999999999973579,-237.48767320383664,1.3908318173898022,280,2026-10-07 21:17:11.807244,33.8,0.43787493441520137,0.14275800490638524,0.20125993636582606
0248,cdot_cos,Q,P-Q,281,56,55856,-0.007801376646121787,-0.008930779845097537,-0.02592857538432961,0.29392727942445174,978.0,9.936024195551047,0.6439910736274747,10.795274637411216,-0.13815835224378575,0.133,0.9999999999973156,566.3713418193805,1.3957991533824758,281,2026-10-07 21:17:11.940243,33.8,0.25348036148336645,0.5339598043399408,0.31675215581558047
0248,cdot_cos,R,Q-R,282,56,55888,0.11797259891140076,0.20628899772792406,0.12577397555752254,0.9859524534474112,978.0,10.035929466782,0.6451130823361243,10.833308064286367,-0.3295177932329786,0.032,0.9999999999973122,-170.5507626758946,1.400766255198622,282,2026-10-07 21:17:11.972243,33.8,0.5594922129489354,1.8609230831513335,3.1220397259672517
0248,cdot_cos,S,R-S,283,56,55913,-0.0021766340544215512,-0.005968828067376314,-0.1201492329658223,0.016939140599109614,978.0,10.055123272872732,0.6451323450930242,10.85282308848502,-0.06368300256434163,0.025,0.9999999999972609,13800.454008225192,1.4057333415389865,283,2026-10-07 21:17:11.997243,33.8,0.015385273597435144,0.7501095951591452,0.7677522436293316
0248,cdot_cos,T,S-T,284,56,56180,-0.15000030041279097,0.04683552033243809,-0.1478236663583694,0.006716560131853687,978.0,10.073434946539956,0.6451399828629573,10.87210946418786,-0.06086901329578472,0.267,0.9999999999972095,368.4307452590556,1.4107010006454623,284,2026-10-07 21:17:12.264243,33.8,0.9548220958906944,0.2243312732046343,0.0685830474427864
0248,cdot_cos,P,T-P,285,57,56701,0.050846306075878936,0.0010476544320997538,0.20084660648866992,0.9988747400381942,939.0,10.174916172764007,0.6462750330670654,10.910395795363412,-0.3388461297832724,0.521,0.9999999999972079,-244.90292630352772,1.415669269175846,285,2026-10-07 21:17:12.785243,33.8,0.44027143142810543,0.12573735493839372,0.19478162423042372
0248,cdot_cos,Q,P-Q,286,57,56834,-0.0030392382604091913,-0.0037644654159663237,-0.05388554433628813,0.1392741923736832,939.0,10.204453270385763,0.6464331638110568,10.932194924407193,-0.09924257366890404,0.133,0.9999999999971546,1515.224364766129,1.4206366116855589,286,2026-10-07 21:17:12.918243,33.8,0.08942792604052123,0.4893900286353686,0.22208344076507888
0248,cdot_cos,R,Q-R,287,57,56867,0.11912735950500569,0.23367715700286135,0.12216659776541489,0.9841597023296831,939.0,10.305093920381015,0.647549655845423,10.97020513635925,-0.3398165805692376,0.033,0.9999999999971512,-215.4731063861895,1.4256037143095184,287,2026-10-07 21:17:12.951244,33.8,0.4926518569503267,1.8184463028246396,3.049716666522805
0248,cdot_cos,S,R-S,288,57,56891,-0.0007806505987880332,-0.002564388624670585,-0.11990801010379372,0.01707544767429539,939.0,10.324470726372189,0.6475690131201524,10.989628856754566,-0.06580772803501657,0.024,0.999999999997097,14155.342441815425,1.4305707960526366,288,2026-10-07 21:17:12.975244,33.8,0.015548684363332684,0.7776928224212387,0.8073669162989017
0248,cdot_cos,T,S-T,289,57,57159,-0.22463206182497675,0.04649042941683288,-0.2238514112261887,0.0005173995112427756,939.0,10.342423175857235,0.6475695996532569,11.008701480319619,-0.06108059807517645,0.268,0.9999999999970424,8059.4427208524285,1.4355384742258284,289,2026-10-07 21:17:13.243244,33.8,0.9255272742117243,0.22465364310180896,0.06698675180987246
0248,cdot_cos,P,T-P,290,58,57640,0.0647021687282722,-5.586025795322367e-06,0.2893342305532489,0.9999434029441763,919.0,10.444885079074758,0.6487023199299905,11.047021030776795,-0.35012686875447663,0.481,0.9999999999970406,-255.1788615569003,1.440506680683956,290,2026-10-07 21:17:13.724244,33.8,0.437995237693167,0.13311916456271883,0.21301850980774178
0248,cdot_cos,Q,P-Q,291,58,57770,-0.0038456134345768024,-0.004768149853532777,-0.068547782162849,0.08973172019614065,919.0,10.47048381216657,0.64880388502298,11.067784379689412,-0.08800178859720237,0.13,0.9999999999969823,2580.857974346503,1.44547402216775,291,2026-10-07 21:17:13.854244,33.8,0.0508622870691814,0.49064544233583013,0.19691333147547468
0248,cdot_cos,R,Q-R,292,58,57800,0.1308540272884164,0.24713625077684032,0.1346996407229932,0.9895727205287314,919.0,10.572452894082074,0.6499230625563717,11.105909479193125,-0.3521634802260353,0.03,0.9999999999969786,-236.03198218990198,1.4504411160171233,292,2026-10-07 21:17:13.884243,33.8,0.47231413461438376,2.0175963214947563,3.398969397183471
0248,cdot_cos,S,R-S,293,58,57829,-0.00028061028498565057,-0.000968869557099487,-0.13113463757340207,0.011746885059982995,919.0,10.591539591456256,0.6499363380568888,11.125137408434979,-0.06629652216552387,0.029,0.9999999999969219,21533.422238365987,1.455408208427966,293,2026-10-07 21:17:13.913243,33.8,0.013407446573478572,0.640440354892103,0.6581619784200423
0248,cdot_cos,T,S-T,294,58,58079,-0.4237087476123154,0.012609961185099041,-0.42342813732732976,6.087417893229668e-07,919.0,10.609598434665816,0.6499363387448398,11.144106099578035,-0.06283642875479727,0.25,0.999999999996865,5029563.53355418,1.4603758579799826,294,2026-10-07 21:17:14.163244,33.8,0.9464235461611403,0.24280348708783706,0.072235372838243
0248,cdot_cos,P,T-P,295,59,58559,0.0441367793309557,0.0017893730061405613,0.46784552694327114,0.9999998643487993,938.0,10.712941335000174,0.6510656147781354,11.18243877707161,-0.36110383846607613,0.48,0.9999999999968631,-264.1226776422731,1.4653440951697736,295,2026-10-07 21:17:14.643244,33.8,0.4378022635933958,0.1413727566149381,0.21529770902991205
0248,cdot_cos,Q,P-Q,296,59,58668,-0.0035117704160623846,-0.0031417451654457943,-0.047648549747018085,0.1665162947170004,938.0,10.745316281016157,0.6512534934646422,11.204609010364223,-0.11381714392785597,0.109,0.9999999999968072,1316.2040843267002,1.4703113894275954,296,2026-10-07 21:17:14.752243,33.8,0.11387356904901581,0.6177843294364485,0.29701785335764025
0248,cdot_cos,R,Q-R,297,59,58724,0.11692843083163369,0.22937551208671603,0.12044020124769608,0.9832238536551036,938.0,10.84761831881732,0.6523618955087939,11.242621666804862,-0.3613731568259003,0.056,0.9999999999968039,-223.34496242067326,1.4752785492696734,297,2026-10-07 21:17:14.808243,33.8,0.504068747452943,1.0902797928250076,1.826822103592196
0248,cdot_cos,S,R-S,298,59,58749,-0.0010195500306762527,-0.0033191558127820646,-0.11794798086230994,0.018223678245439166,938.0,10.867427617812558,0.6523824237878555,11.2618871183506,-0.07036850549778206,0.025,0.9999999999967453,14175.793813719576,1.480245629868217,298,2026-10-07 21:17:14.833244,33.8,0.015995643929125072,0.764421291394477,0.7923719598095147
0248,cdot_cos,T,S-T,299,59,59016,-0.1813342006336767,0.034138920482302895,-0.18031465060300045,0.0022498593306123083,938.0,10.885839383387044,0.6523849581293798,11.28081086700817,-0.06551895515815183,0.267,0.999999999996686,1913.5346570765403,1.4852133399465055,299,2026-10-07 21:17:15.100243,33.8,0.9286554269747901,0.22956921693665153,0.0689579234999475
0248,cdot_cos,P,T-P,300,60,59497,0.04208562885120003,-0.003564033875667903,0.2234198294848767,0.9994750016156643,879.0,10.99001757965673,0.6535099558721675,11.319145171071987,-0.37224497106371157,0.481,0.9999999999966835,-272.6458945113035,1.4901816145352886,300,2026-10-07 21:17:15.581243,33.8,0.4386779722290659,0.14218265679032788,0.2165866866313637
0248,cdot_cos,Q,P-Q,301,60,59587,-0.005693034140160814,-0.004231091045410465,-0.04777866299136084,0.16590682113129712,879.0,11.02261909921934,0.6536965331634715,11.341232333231344,-0.11718908254337176,0.09,0.9999999999966257,1367.0253584331508,1.495148863514527,301,2026-10-07 21:17:15.671244,33.8,0.11344382212770639,0.757501438053243,0.36223910625121647
0248,cdot_cos,R,Q-R,302,60,59645,0.13015815837395955,0.22584837061180463,0.13585119251412037,0.9899667850388736,879.0,11.126367838506313,0.6548088568893183,11.379386122539866,-0.374675092286824,0.058,0.9999999999966228,-231.4847771024856,1.50011602946262,302,2026-10-07 21:17:15.729243,33.8,0.5029699838060844,1.061964081003085,1.7887713670167975
0248,cdot_cos,S,R-S,303,60,59704,-0.0004665351596973628,-0.006249617680327236,-0.1306246935336569,0.011948670393013852,879.0,11.145806932615697,0.6548222720634569,11.398444126850944,-0.07059100428343677,0.059,0.9999999999965612,22667.174116621238,1.5050831994139355,303,2026-10-07 21:17:15.788243,33.8,0.013464631313865291,0.321602689764273,0.32947617134548485
0248,cdot_cos,T,S-T,304,60,59936,-0.19217290175684473,0.02067484359373415,-0.19170636659714738,0.0015319584581982538,879.0,11.164316955898498,0.6548239920269142,11.417267952967277,-0.06733155892866527,0.232,0.9999999999964989,1895.066631148488,1.510050833278902,304,2026-10-07 21:17:16.020243,33.8,0.9527441494205117,0.26634708827233783,0.07978458311551984
0248,cdot_cos,P,T-P,305,61,60376,0.0543209169288557,-0.0010160159154508081,0.24649381868570042,0.9997592452687364,918.0,11.269391981574062,0.6559455777661669,11.455618832952203,-0.38374211321091667,0.44,0.9999999999964969,-282.11000123189297,1.515019032483387,305,2026-10-07 21:17:16.460243,33.8,0.438436818587115,0.1521810112948587,0.23880687653537305
0248,cdot_cos,Q,P-Q,306,61,60506,-0.00477007056582258,-0.005884178348717487,-0.059090987494678275,0.11948928686063509,918.0,11.298236245837973,0.6560795115840273,11.476726636898416,-0.1059507840228185,0.13,0.9999999999964346,2074.0940087110644,1.5199863940310268,306,2026-10-07 21:17:16.590244,33.8,0.07266537611520284,0.5131855039578248,0.2218789558762424
0248,cdot_cos,R,Q-R,307,61,60535,0.13037604758997237,0.24309642852154592,0.13514611815579494,0.9897272922126599,918.0,11.402820212603096,0.6571879271672214,11.51488526192215,-0.3858342387430258,0.029,0.999999999996431,-252.50768661486887,1.5249534812665866,307,2026-10-07 21:17:16.619244,33.8,0.48413175879393056,2.1409026455007734,3.606343681555963
0248,cdot_cos,S,R-S,308,61,60563,-0.0005188064704573893,-0.0017769776479367434,-0.13089485406042975,0.011841344749831884,918.0,11.422408599277018,0.6572011781847794,11.533856424717394,-0.07266009550105439,0.028,0.9999999999963677,23633.969381682717,1.5299205668436613,308,2026-10-07 21:17:16.647244,33.8,0.0134318614251312,0.6806592510045307,0.6995852383543547
0248,cdot_cos,T,S-T,309,61,60815,-0.34301105665384,0.06670945403686081,-0.34249225018338264,9.38641203508625e-06,918.0,11.44093713065935,0.6572011886885155,11.552565199108548,-0.06884350477589958,0.252,0.9999999999963042,363355.5420363125,1.53488827119145,309,2026-10-07 21:17:16.899244,33.8,0.9460700665988182,0.24699059419685734,0.07352591818385631
0248,cdot_cos,P,T-P,310,62,61294,0.056589548677829705,0.0012945990505782894,0.39960060533166974,0.999998637925731,959.0,11.546891858752234,0.6583193480817539,11.590931079209783,-0.3952020532279826,0.479,0.9999999999963028,-291.8712219613925,1.5398566106972382,310,2026-10-07 21:17:17.378243,33.8,0.43788377693905733,0.1409430527615169,0.22119984988076058
0248,cdot_cos,Q,P-Q,311,62,61425,-0.0025339288644030504,-0.002992202333514949,-0.05912347754223275,0.11937379558467456,959.0,11.575960575204883,0.6584527099784846,11.611963602441394,-0.10904027674649475,0.131,0.9999999999962377,2145.753648504606,1.5448239816310974,311,2026-10-07 21:17:17.509243,33.8,0.07248557770995163,0.5123932241579715,0.2218985988751821
0248,cdot_cos,R,Q-R,312,62,61459,0.12517705161006312,0.2311600214058937,0.12771098047446616,0.9868309730202388,959.0,11.681138883481623,0.6595542155259227,11.650073931214111,-0.396208741829593,0.034,0.9999999999962336,-260.70541882515766,1.5497910814398257,312,2026-10-07 21:17:17.543243,33.8,0.4844258829835648,1.8400123389505263,3.0934796551982258
0248,cdot_cos,S,R-S,313,62,61484,-0.0005152292415749936,-0.0015397045260196575,-0.1256922808516381,0.014085842246169062,959.0,11.701081414253519,0.6595699257712858,11.669006905400508,-0.07552648535531703,0.025,0.9999999999961676,20412.300957959444,1.5547581568383757,313,2026-10-07 21:17:17.568243,33.8,0.01432201197606478,0.7726005275447179,0.7977012308758447
0248,cdot_cos,T,S-T,314,62,61734,-0.2671249076933684,0.0932633137837216,-0.2666096784517934,0.0001219951663279093,959.0,11.719768909858859,0.6595700618336086,11.68763500175935,-0.07089032795629566,0.25,0.9999999999961012,34073.77814512748,1.5597258719712292,314,2026-10-07 21:17:17.818244,33.8,0.9366936369281673,0.2509852119308569,0.0747499824213591
0248,cdot_cos,P,T-P,315,63,62253,0.05652638755901005,0.0014355373069319657,0.32365129525237846,0.9999822554392257,918.0,11.826574020218947,0.6606844655047824,11.726010079668459,-0.40668409007036166,0.519,0.9999999999961005,-301.3214787423938,1.5646943608733033,315,2026-10-07 21:17:18.337244,33.8,0.4379340329019283,0.13132069352540052,0.2057901933720398
0248,cdot_cos,Q,P-Q,316,63,62388,-0.0019506571400084345,-0.0025098916053342213,-0.05847704469901849,0.12168985766742199,918.0,11.856079789738224,0.6608199584127543,11.747017367039843,-0.1129782851390368,0.135,0.9999999999960323,2167.683972007464,1.5696617496776355,316,2026-10-07 21:17:18.472243,33.8,0.07429839083950568,0.5012403734172965,0.21856125569834872
0248,cdot_cos,R,Q-R,317,63,62417,0.12124467129333459,0.24914791036792178,0.12319532843334302,0.9846927350754027,918.0,11.961908921041617,0.6619153726146768,11.785093133919341,-0.406894692507517,0.029,0.9999999999960283,-268.3153156610944,1.5746288334054575,317,2026-10-07 21:17:18.501244,33.8,0.48561447367541594,2.174509981570381,3.649280389772172
0248,cdot_cos,S,R-S,318,63,62443,-0.00013935052704947763,-0.0005069330045366054,-0.12138402182038407,0.016257978163811266,918.0,11.982201368669307,0.6619334441596605,11.803989202019876,-0.07843215579606762,0.026,0.9999999999959589,18175.67546151247,1.579595909491741,318,2026-10-07 21:17:18.527244,33.8,0.015178800607935245,0.7522587798079761,0.7804787549111198
0248,cdot_cos,T,S-T,319,63,62710,-0.4570323458410457,-0.08698389958070786,-0.4568929953139962,1.9642533782106063e-07,918.0,12.001026377591632,0.6619334443779941,11.822534333537407,-0.07287925070852878,0.267,0.9999999999958901,25433125.102908537,1.5845636904178635,319,2026-10-07 21:17:18.794244,33.8,0.9266371405553883,0.23684871833197366,0.07050565139447804
0248,cdot_cos,P,T-P,320,64,63171,0.05212256749554206,-0.0009763369641714925,0.5091549133365878,0.9999999664233887,978.0,12.10867858425858,0.6630440835284077,11.860918489060046,-0.41828676581678625,0.461,0.9999999999958882,-310.9988649145068,1.5895320466220215,320,2026-10-07 21:17:19.255244,33.8,0.43789888270338406,0.1498879141286536,0.23351888647928049
0248,cdot_cos,Q,P-Q,321,64,63302,-0.003921824212132706,-0.004372266934747522,-0.056044391707674765,0.13075491315785276,978.0,12.13922303441825,0.6631891723789044,11.882036872256476,-0.11933673067381673,0.131,0.9999999999958189,2060.461807503208,1.594499430705409,321,2026-10-07 21:17:19.386244,33.8,0.0816677106408964,0.5261913763362144,0.23316374167687276
0248,cdot_cos,R,Q-R,322,64,63331,0.13886710727029625,0.22380906354023383,0.14278893148242897,0.9920473519925627,978.0,12.246540724858669,0.6642889691448146,11.920265568579495,-0.42099225424534104,0.029,0.9999999999958149,-274.2829702011981,1.5994665129092709,322,2026-10-07 21:17:19.415244,33.8,0.4884419651041368,2.191677373636952,3.7006100151868218
0248,cdot_cos,S,R-S,323,64,63359,-0.0004284688504469471,-0.0011365272037868854,-0.1392955761207432,0.008940434290064274,978.0,12.266340322089194,0.6642988725519617,11.938938902233794,-0.07807491756522165,0.028,0.9999999999957435,34626.19799283889,1.6044335932401634,323,2026-10-07 21:17:19.443244,33.8,0.012374003181360112,0.6926118188402671,0.7071284725187635
0248,cdot_cos,T,S-T,324,64,63611,-0.26106699887688,0.11420410522577976,-0.26063853002643306,0.0001492733156172419,978.0,12.285326986713724,0.6642990379022576,11.95740889218336,-0.07498776706742609,0.252,0.9999999999956724,18670.365728683602,1.6094013472331288,324,2026-10-07 21:17:19.695244,33.8,0.9596671998047124,0.2529283718503051,0.07534390724019675
0248,cdot_cos,P,T-P,325,65,64149,0.0440909987147295,-0.0029309269456507187,0.3051579975916095,0.9999668468715182,1020.0,12.393816221501748,0.6654057972110592,11.995800157653496,-0.4299970484963248,0.538,0.9999999999956702,-320.7646672638501,1.6143699708833303,325,2026-10-07 21:17:20.233243,33.8,0.43796834320139433,0.1328688842883224,0.20165285276584421
0248,cdot_cos,Q,P-Q,326,65,64276,-0.0024139987110427153,-0.002356674671106114,-0.046504997425772215,0.17195012660235276,1020.0,12.428293906207958,0.665595928087712,12.017674785845356,-0.13740518122693926,0.127,0.9999999999956005,1538.8971661018045,1.619337349202873,326,2026-10-07 21:17:20.360243,33.8,0.11890751481051702,0.5620254235321548,0.2714778323323678
0248,cdot_cos,R,Q-R,327,65,64300,0.14594424895111133,0.1916925757644585,0.14835824766215405,0.9934029170889304,1020.0,12.536570679078915,0.6666933119674024,12.055936926441742,-0.43328970405550843,0.024,0.9999999999955959,-269.627181795326,1.6243044139791631,327,2026-10-07 21:17:20.384243,33.8,0.5051604428319207,2.667881959452889,4.511532202956525
0248,cdot_cos,S,R-S,328,65,64359,-0.0007616005267134601,-0.002693116229829784,-0.14670584947782478,0.006973378035601316,1020.0,12.556352240261697,0.6667010088943238,12.074496363466146,-0.0795648849929116,0.059,0.9999999999955219,45956.62953227453,1.62927158798532,328,2026-10-07 21:17:20.443244,33.8,0.01172841976784505,0.3312812863920303,0.33528069801325544
0248,cdot_cos,T,S-T,329,65,64589,-0.18405482795540676,0.10960968887922447,-0.1832932274286933,0.002034819869913496,1020.0,12.575661870873175,0.6667032548277777,12.092929357094025,-0.07778743346922944,0.23,0.9999999999954468,791.4088107153185,1.6342392906642655,329,2026-10-07 21:17:20.673243,33.8,0.9774089752146318,0.27955107056293577,0.0839549157020761
0248,cdot_cos,P,T-P,330,66,65169,0.03920299135277603,0.0018264233545368725,0.22325781930818278,0.9994721203899914,997.0,12.684945732720648,0.6678055063351704,12.131317391549326,-0.4417595638413518,0.58,0.9999999999954449,-330.20787717774226,1.6392080863046419,330,2026-10-07 21:17:21.253243,33.8,0.43871093476101913,0.12404926148470824,0.1884204514611603
0248,cdot_cos,Q,P-Q,331,66,65313,-0.007613495604685654,-0.008855696668858203,-0.046816486957461684,0.170456239555753,997.0,12.719559014195436,0.6679933083027124,12.15310195424927,-0.14067487366059564,0.144,0.9999999999953707,1603.203066088518,1.6441755237068643,331,2026-10-07 21:17:21.397243,33.8,0.1176210083029473,0.49623540792093085,0.24037001024158747
0248,cdot_cos,R,Q-R,332,66,65338,0.11519766283426826,0.20287112848345923,0.1228111584389539,0.9844957767723186,997.0,12.827861530201876,0.6690769403640948,12.191191106904961,-0.4419085138023041,0.025,0.9999999999953644,-277.98516754609653,1.6491425885254338,332,2026-10-07 21:17:21.422244,33.8,0.5057740932694285,2.5877766483512943,4.332100640257579
0248,cdot_cos,S,R-S,333,66,65397,-0.00046339679411291565,-0.003548663771180013,-0.11566105962838118,0.01965941255496409,997.0,12.848947846613001,0.6690985612255422,12.209932030098372,-0.08647189598321464,0.059,0.9999999999952867,16439.52155577096,1.6541097624191392,333,2026-10-07 21:17:21.481244,33.8,0.016400731622225783,0.3426847989796093,0.35739519340890236
0248,cdot_cos,T,S-T,334,66,65626,-0.21160698104310496,0.07455498635891439,-0.21114358424899204,0.0007947775917848884,997.0,12.86829833648147,0.669099435284263,12.228267512101326,-0.07947840393548786,0.229,0.9999999999952076,8001.169580288173,1.6590774764896248,334,2026-10-07 21:17:21.710243,33.8,0.9157678764307382,0.282754782386391,0.08449995575750505
0248,cdot_cos,P,T-P,335,67,66166,0.04935441653860415,-0.0026015917576797326,0.2609613975817091,0.9998523465970406,1079.0,12.978449536945968,0.6701980998298636,12.266668762301077,-0.453936538323637,0.54,0.9999999999952044,-340.8302706113532,1.664046188936469,335,2026-10-07 21:17:22.250243,33.8,0.438273137222635,0.1320752722618388,0.20398370456388598
0248,cdot_cos,Q,P-Q,336,67,66294,-0.003332039651996564,-0.003073036276049181,-0.052686456190600715,0.14420410453047716,1079.0,13.010939630524256,0.6703564022455594,12.287866196822431,-0.13459890780475145,0.128,0.999999999995126,2017.263154925674,1.6690135823396002,336,2026-10-07 21:17:22.378243,33.8,0.09324612356001698,0.5566665866740191,0.25382885608037087
0248,cdot_cos,R,Q-R,337,67,66321,0.14960229820820933,0.18485458955149173,0.1529343378602059,0.99434295566629,1079.0,13.120956183134517,0.671446905585748,12.326157200914531,-0.45749863919095224,0.027,0.9999999999951193,-296.1015519038517,1.67398065111545,337,2026-10-07 21:17:22.405244,33.8,0.49371647592210627,2.4081799205246996,4.074687133713387
0248,cdot_cos,S,R-S,338,67,66377,-0.0002755173343803831,-0.0007610717933574963,-0.14987781554258972,0.00626887247097427,1079.0,13.14098134623259,0.671453774860537,12.344557970680029,-0.08368737362193475,0.056,0.999999999995038,54417.86462934474,1.678947815593403,338,2026-10-07 21:17:22.461244,33.8,0.011484485535464417,0.3536890172125233,0.3575921981798632
