record_id,input,event,transition,event_index,k,peak,value_cos,value_sin,value_return,x_input,rr,knowledge,decision,decision_norm,entropy,delta_t,cosine_similarity,delta_h_over_delta_d,frobenius_norm,matrix_size,timestamp,scale,P,zdot,zdot_back
0942,cdot_cos,Q,P-Q,1,0,1469,-0.0016470146631699302,-0.001031256806031085,-0.050616239746367454,0.22004468440925343,1022.0,0.001092993090409663,0.5002732482453998,0.5002732482453998,,,1.0,,0.004967141530112327,1,2026-10-07 23:46:17.553244,25.0,,,
0942,cdot_cos,R,Q-R,2,0,1524,0.0830527148305133,0.09830833140428274,0.08469972949368322,0.8925918384529945,1022.0,0.007815825314749489,0.5013816522534438,0.7090607325418511,-1.0800742577576477e-05,,0.9999999999999999,,0.009934283060224654,2,2026-10-07 23:46:17.608243,25.0,,,
0942,cdot_cos,S,R-S,3,0,1545,-0.032339422420803565,-0.06789507807580435,-0.11539213725131686,0.05290991668780533,1022.0,0.010027594051856476,0.5014473544886454,0.8685322952953354,-7.1170285925563755e-06,0.021,1.0,0.056066798545208914,0.014901424592975507,3,2026-10-07 23:46:17.629244,25.0,0.5959541362491779,0.11067464986692602,0.10532232081461845
0942,cdot_cos,T,S-T,4,0,1820,-0.125319045125303,0.058665482788184196,-0.09297962270449944,0.08911487144531448,1022.0,0.012464160609160382,0.501558015033398,1.0031160300670512,-9.882844265410794e-06,0.275,0.9999999999999999,-0.02499369291048987,0.019868566166985662,4,2026-10-07 23:46:17.904243,25.0,0.7558893385593297,0.0270038415717304,0.008860242026559656
0942,cdot_cos,P,T-P,5,1,2402,0.04307343641513367,0.003193659032723948,0.16839248154043668,0.9853681120863728,1016.0,0.024879706916308197,0.5027816070971702,1.1242538513108746,-8.360961785173595e-05,0.582,0.9999999999999999,-0.06025437379761461,0.024835707899190457,5,2026-10-07 23:46:18.486243,25.0,0.41403790217151787,0.015272889799803319,0.0213325537923502
0942,cdot_cos,Q,P-Q,6,1,2509,-0.0018287037945070269,-0.001442664441036035,-0.044902140209640694,0.24553794179689253,1016.0,0.030241804336131443,0.503086502015372,1.2323052264418495,-5.3299583891791e-05,0.107,0.9999999999999998,0.09941141078609254,0.029802849468929447,6,2026-10-07 23:46:18.593244,25.0,0.5662763924015112,0.0899258435062955,0.050113059998348086
0942,cdot_cos,R,Q-R,7,1,2557,0.07490223023459901,0.10239225048293679,0.07673093402910604,0.8719457661133068,1016.0,0.04412383742665543,0.5041692140960503,1.3339063592256117,-0.00018615716659767728,0.048,0.9999999999999999,-0.12270813734954227,0.03476999101534071,7,2026-10-07 23:46:18.641243,25.0,0.48983580872286475,0.18723836797212315,0.28920902271924975
0942,cdot_cos,S,R-S,8,1,2575,-0.025893374890653898,-0.061567559585190286,-0.1007956051252529,0.07447551816069495,1016.0,0.04821668766145527,0.5042616901319174,1.42626744237893,-6.815083688083452e-05,0.018,0.9999999999999998,1.2760746998985792,0.039737132537810596,8,2026-10-07 23:46:18.659244,25.0,0.17701048621343551,0.2083610615440107,0.2273805685999908
0942,cdot_cos,T,S-T,9,1,2859,-0.16171620646946894,0.06828431153039038,-0.13582283157881503,0.032434175578679676,1016.0,0.05162483564223982,0.5043019634633154,1.512905890432559,-6.135953262963702e-05,0.284,0.9999999999999998,0.16863030733868742,0.044704274538471186,9,2026-10-07 23:46:18.943244,25.0,0.8952247202473016,0.038331772334229415,0.012000521059100534
0942,cdot_cos,P,T-P,10,2,3418,0.02799410082353693,0.0014010090539102434,0.18971030729300586,0.9913607068470297,999.0,0.06998913434729757,0.5055329010024127,1.5986353994553752,-0.0004027070035519909,0.559,1.0000000000000002,-0.2773068982628282,0.04967141731436078,10,2026-10-07 23:46:19.502244,25.0,0.4284281135337959,0.024230137913490993,0.03285205492854697
0942,cdot_cos,Q,P-Q,11,2,3527,-0.0017426821262327074,-0.001419116696074575,-0.029736782949769638,0.32225683017522394,999.0,0.07871412982952275,0.5059330221923677,1.6779900040015043,-0.0002339424911689047,0.109,1.0000000000000002,0.4217834911519056,0.05463855902194693,11,2026-10-07 23:46:19.611244,25.0,0.4860746055393349,0.12370277474365532,0.08004583011215757
0942,cdot_cos,R,Q-R,12,2,3568,0.06980493006215459,0.09337316442094386,0.0715476121883873,0.8567666289796686,999.0,0.09695633924141443,0.506996764201384,1.7562883101400855,-0.0005777975532560404,0.041,0.9999999999999999,-0.32325043024777034,0.059605700543674436,12,2026-10-07 23:46:19.652243,25.0,0.5515000263642467,0.28692118554653895,0.4449319368754069
0942,cdot_cos,S,R-S,13,2,3588,-0.03123411603201558,-0.09226047360317177,-0.10103904609417017,0.07405710000307514,999.0,0.10224166704433894,0.5070887089798658,1.8283343418602844,-0.00018982533095306315,0.02,1.0,4.219622133078328,0.06457284200818875,13,2026-10-07 23:46:19.672243,25.0,0.1295306188190063,0.3043817797665597,0.26426639014622555
0942,cdot_cos,T,S-T,14,2,3878,-0.09666117809498098,0.03667684599701755,-0.0654270620629654,0.16305421376517545,999.0,0.10913161043207682,0.5072911454477966,1.8981096620439486,-0.0002625777528581318,0.29,0.9999999999999999,-0.3593839719132329,0.06953998494339166,14,2026-10-07 23:46:19.962244,25.0,0.7580014238348418,0.05059655834214393,0.023758425474958204
0942,cdot_cos,P,T-P,15,3,4417,0.03996568507043627,-0.003269305063155763,0.13662686316541725,0.9681907371722067,979.0,0.13158767088278242,0.5084931304317744,1.9693854266313462,-0.0009745489825452913,0.539,1.0,-0.5923295541771556,0.07450712974136423,15,2026-10-07 23:46:20.501244,25.0,0.48163686143334067,0.029529903486459154,0.04166244981578033
0942,cdot_cos,Q,P-Q,16,3,4506,-0.002970059757914341,-0.0019328870040605534,-0.04293574482835061,0.25475824722963425,979.0,0.1409648463904798,0.5088093907791956,2.0352375647525474,-0.0004607570178496869,0.089,1.0,1.6245854685387213,0.07947427154984048,16,2026-10-07 23:46:20.590244,25.0,0.32788119807561733,0.18130111722263187,0.10536152255839744
0942,cdot_cos,R,Q-R,17,3,4554,0.08768511551801628,0.10119517125539527,0.09065517527593062,0.9060540531232445,979.0,0.1638592697484109,0.5099341197051585,2.1025122394325315,-0.0012580332343236356,0.048,1.0,-0.7088607735338889,0.08444141311083977,17,2026-10-07 23:46:20.638243,25.0,0.5305993112382187,0.2974468899916444,0.4769671532902312
0942,cdot_cos,S,R-S,18,3,4587,-0.0362451504436744,-0.07260193872964064,-0.12393026596169068,0.043179223765456076,979.0,0.16951974782967766,0.5099877177535896,2.1636946431304316,-0.0003401751629870453,0.033,0.9999999999999996,17.124841261989683,0.08940855459595831,18,2026-10-07 23:46:20.671244,25.0,0.06732709697214762,0.2174216167334173,0.17152963882626568
0942,cdot_cos,T,S-T,19,3,4857,-0.09508688825104322,0.041713909631001175,-0.05884173780736882,0.1867840672460217,979.0,0.17820909645281643,0.5102195687623972,2.223995541163648,-0.0005446669492773903,0.27,0.9999999999999997,-0.8819965345077092,0.09437569870660471,19,2026-10-07 23:46:20.941243,25.0,0.6869843815679347,0.064531186564671,0.03218277267829176
0942,cdot_cos,P,T-P,20,4,5396,0.042772614895880696,0.0012864737679007924,0.1378595031469239,0.9691262199181561,1059.0,0.2043665885746,0.5114224512877673,2.287150735339208,-0.0018037290785992306,0.539,0.9999999999999996,-1.0467041483825699,0.09934284653255197,20,2026-10-07 23:46:21.480243,25.0,0.4975631285432492,0.03409432296296327,0.048529669984756135
0942,cdot_cos,Q,P-Q,21,4,5487,-0.002506809429720877,-0.0015032227171145407,-0.04527942432560157,0.24379485013074692,1059.0,0.21496277660689084,0.5117250299493898,2.345018689418637,-0.0008008489277143407,0.091,0.9999999999999996,3.3144444010264857,0.1043099886209485,21,2026-10-07 23:46:21.571244,25.0,0.2858547887314229,0.2007141927791169,0.1164416267284708
0942,cdot_cos,R,Q-R,22,4,5547,0.08363854737315643,0.09993442480961683,0.08614535680287731,0.8960078650480239,1059.0,0.24089657166039927,0.512837007704726,2.4054187881482476,-0.0021305666752489054,0.06,0.9999999999999992,-1.195813262588725,0.10927713038162859,22,2026-10-07 23:46:21.631244,25.0,0.5357355640749095,0.2719326024442264,0.43222991755847384
0942,cdot_cos,S,R-S,23,4,5566,-0.03096845515105072,-0.061727854108453904,-0.11460700252420715,0.053902179084114515,1059.0,0.247594688900198,0.5129038982919945,2.459800689058109,-0.0005896641712062655,0.019,0.9999999999999991,23.03616348676208,0.11424427152709493,23,2026-10-07 23:46:21.650244,25.0,0.073300592367062,0.3709403383652205,0.35253248630519685
0942,cdot_cos,T,S-T,24,4,5836,-0.12593476811569268,0.06611671119919815,-0.09496631296464196,0.0851646373765667,1059.0,0.25499230451827765,0.5130095834772097,2.513223430559239,-0.0006700287575972775,0.27,0.9999999999999991,-0.7604148701384175,0.11921141731608118,24,2026-10-07 23:46:21.920243,25.0,0.8869718833706959,0.0688100829194913,0.02739857636325792
0942,cdot_cos,P,T-P,25,5,6455,0.045878191973579924,0.0009698209994717161,0.1718129600892726,0.9865511822235333,1059.0,0.2847521336767233,0.5142337584430469,2.571168799008645,-0.0028943501307870253,0.619,0.9999999999999992,-1.8169962915951647,0.12417857055901428,25,2026-10-07 23:46:22.539244,25.0,0.4637059786278944,0.033459791708502606,0.04807726843044533
0942,cdot_cos,Q,P-Q,26,5,6544,-0.0007017965106453267,-0.00041542874943802934,-0.04657998848422525,0.23785062572002785,1059.0,0.29641552665340387,0.5145288735170813,2.623592777152238,-0.0012213609980492074,0.089,0.9999999999999981,5.668938254717816,0.1291457128634628,26,2026-10-07 23:46:22.628243,25.0,0.2541642708135045,0.2268024226490681,0.13104935928854566
0942,cdot_cos,R,Q-R,27,5,6601,0.08437276494808951,0.09488445181954154,0.08507456145873483,0.8934869328995925,1059.0,0.32512296490825743,0.5156373824080976,2.6793304451306397,-0.003214563614652038,0.057,0.9999999999999982,-1.7980934864450069,0.13411285459152522,27,2026-10-07 23:46:22.685244,25.0,0.5379154581409074,0.31589441291513803,0.5036392676290098
0942,cdot_cos,S,R-S,28,5,6622,-0.032633429657915394,-0.06200818876744343,-0.1170061946060049,0.050923984986205234,1059.0,0.3324274897257296,0.5157005569655871,2.7288308610137704,-0.0008653208428813271,0.021,0.9999999999999983,37.186533077991676,0.13907999550049416,28,2026-10-07 23:46:22.706244,25.0,0.06621285814712739,0.3824176255322741,0.34783451511772284
0942,cdot_cos,T,S-T,29,5,6895,-0.11733566280391591,0.07230123340136745,-0.08470223314600052,0.10740216096259306,1059.0,0.34118450518061294,0.5158337947727252,2.777850009543845,-0.001062709921798273,0.273,0.9999999999999979,-1.4814794926222048,0.14404714338365246,29,2026-10-07 23:46:22.979244,25.0,0.8304884485260914,0.07561786405326416,0.03207697968821733
0942,cdot_cos,P,T-P,30,6,7514,0.0411020064705137,0.0007555369137609454,0.15843766927442962,0.9813107691854958,1039.0,0.37371484349881184,0.5170510537514192,2.83200526939467,-0.004189022325333008,0.619,0.9999999999999974,-2.5683214979352917,0.1490143020761693,30,2026-10-07 23:46:23.598243,25.0,0.4741124484418418,0.03700672563394742,0.0525530505948286
0942,cdot_cos,Q,P-Q,31,6,7623,-0.0013712730374874907,-0.001058847357517028,-0.04247327950800119,0.2569595151508087,1039.0,0.38699883151543985,0.5173697642565677,2.8805929564377983,-0.0018201610317103403,0.109,0.9999999999999967,7.432642650167721,0.1539814453654532,31,2026-10-07 23:46:23.707244,25.0,0.2721350066657858,0.2015404496586292,0.12187144969383487
0942,cdot_cos,R,Q-R,32,6,7664,0.0748416663642065,0.09138006090891214,0.07621293940169399,0.8704928535521462,1039.0,0.417650661524393,0.5184493422480434,2.9327923864931904,-0.0044417693367247955,0.041,0.9999999999999963,-2.428363977141511,0.15894858654155228,32,2026-10-07 23:46:23.748243,25.0,0.5542069423356032,0.47576189511163386,0.7476056099744673
0942,cdot_cos,S,R-S,33,6,7683,-0.031110106854570198,-0.06962075685657344,-0.10595177321877669,0.06606335917805518,1039.0,0.4260113069145938,0.5185312665713068,2.978735366894274,-0.001270269459849916,0.019,0.9999999999999961,38.71255508182955,0.16391572704758745,33,2026-10-07 23:46:23.767244,25.0,0.08235515201415991,0.49613028835864065,0.44003396790530613
0942,cdot_cos,T,S-T,34,6,7974,-0.1033681641408226,0.04920953672954106,-0.0722580572862524,0.14106754940792643,1039.0,0.43650361248202135,0.5187061992867418,3.0245509174485115,-0.0016297230032016313,0.291,0.9999999999999957,-2.054810287817584,0.16888287811811517,34,2026-10-07 23:46:24.058244,25.0,0.802068608789761,0.0781020132372909,0.03605603287775783
0942,cdot_cos,P,T-P,35,7,8553,0.03990064188938622,0.00027556770572092067,0.1432688060302088,0.9729256307670302,1019.0,0.4714666786186971,0.5199125616561991,3.075844221031284,-0.005715791083029924,0.579,0.9999999999999949,-3.3870984235576196,0.17385004175681892,35,2026-10-07 23:46:24.637243,25.0,0.48925395545458544,0.04249150514227866,0.0603852610305281
0942,cdot_cos,Q,P-Q,36,7,8642,-0.003306057312632322,-0.0020549340826797047,-0.04320669920201854,0.25347432392608227,1019.0,0.48570877543678004,0.5202268152231881,3.1213609265085003,-0.002454362659795808,0.089,0.9999999999999937,10.378333822852994,0.17881718482905162,36,2026-10-07 23:46:24.726244,25.0,0.26478712999827314,0.26878466097035375,0.16002355975374064
0942,cdot_cos,R,Q-R,37,7,8699,0.08047816189910613,0.09861648361447464,0.08378421921173845,0.890377753345158,1019.0,0.5193103482714201,0.5213305633612425,3.171130053065415,-0.006078933044691736,0.057,0.9999999999999937,-3.2838745180446347,0.18378432667663366,37,2026-10-07 23:46:24.783243,25.0,0.5508729491936982,0.3717031116187766,0.5895012778007026
0942,cdot_cos,S,R-S,38,7,8721,-0.030413296042943416,-0.06564552471718575,-0.11089145794204955,0.05884026651912186,1019.0,0.5280829301613206,0.5214034969090622,3.214147054569527,-0.0016539608190744759,0.022,0.9999999999999927,60.67128719087907,0.1887514669577126,38,2026-10-07 23:46:24.805243,25.0,0.0688807100153632,0.4306966358523588,0.39875372226820405
0942,cdot_cos,T,S-T,39,7,8993,-0.11588613284712555,0.05342122626120585,-0.08547283680418213,0.10556919585803828,1019.0,0.5382610002489239,0.5215343494994584,3.2569810057503132,-0.001953623918707518,0.272,0.999999999999992,-2.290081523992801,0.19371862021377506,39,2026-10-07 23:46:25.077244,25.0,0.8577965536918041,0.08782008320057826,0.037419375322070944
0942,cdot_cos,P,T-P,40,8,9572,0.03679570141426111,-0.0012976358936668793,0.15268183426138665,0.978480594736421,1059.0,0.5758570554224351,0.5227470292542389,3.3061425476930526,-0.0075380366998373345,0.579,0.9999999999999917,-4.605018562498247,0.19868579095421446,40,2026-10-07 23:46:25.656243,25.0,0.47671750275435537,0.046150036231334894,0.06493273777808511
0942,cdot_cos,Q,P-Q,41,8,9661,-0.0023252669688373557,-0.0013834940965630062,-0.03912096838309847,0.2732839995324915,1059.0,0.5917027422048097,0.5230856764447533,3.349382628677873,-0.0033292617158148276,0.089,0.9999999999999899,12.428199913983224,0.20365293455092623,41,2026-10-07 23:46:25.745243,25.0,0.28247176836868637,0.29246351875694815,0.17804142452106209
0942,cdot_cos,R,Q-R,42,8,9710,0.08652161892520319,0.08931466182246474,0.08884688589404054,0.9021347306378772,1059.0,0.6279155617611719,0.5242034285086956,3.3972265506206174,-0.007946062602007874,0.049,0.9999999999999896,-4.1304337832397024,0.2086200760106821,42,2026-10-07 23:46:25.794244,25.0,0.5593289978407534,0.4593166952255765,0.739037133803311
0942,cdot_cos,S,R-S,43,8,9743,-0.0385352436432154,-0.06797897215689079,-0.12505686256841858,0.04203045292673134,1059.0,0.6367157783369162,0.5242554987480458,3.437773262021828,-0.002002251443913336,0.033,0.9999999999999887,114.14987202426971,0.21358721664891553,43,2026-10-07 23:46:25.827244,25.0,0.05137704500046802,0.33810293174938644,0.26667322956800776
0942,cdot_cos,T,S-T,44,8,10012,-0.09738303883297011,0.06889452404900255,-0.05884779518975471,0.1867610660665749,1059.0,0.6502303552566314,0.5244868649127638,3.4790523350571636,-0.003128992348414659,0.269,0.9999999999999875,-4.869946761121203,0.21855437312910028,44,2026-10-07 23:46:26.096244,25.0,0.697608622017287,0.09852358953239614,0.05024006289856969
0942,cdot_cos,P,T-P,45,9,10631,0.03490741625094705,0.00012723007231458662,0.13229045508391718,0.9646770803036224,1059.0,0.6897214695053453,0.5256817711939608,3.526380590642442,-0.009517564917045508,0.619,0.9999999999999872,-5.346505135307392,0.223521555137394,45,2026-10-07 23:46:26.715244,25.0,0.5110743292212278,0.0456409974113914,0.06379824595915004
0942,cdot_cos,Q,P-Q,46,9,10720,-0.003118506687585144,-0.0018562391034075954,-0.03802592293853219,0.2787545078469276,1059.0,0.706733910051934,0.5260269989096689,3.567688771831754,-0.004272675059184178,0.089,0.9999999999999838,15.192551522415783,0.2284886993024187,46,2026-10-07 23:46:26.804243,25.0,0.2930117951341769,0.30747025928053784,0.19115101737740092
0942,cdot_cos,R,Q-R,47,9,10776,0.07781706295399266,0.08831318573285682,0.0809355696415778,0.8832310093545023,1059.0,0.744451175657281,0.5271206837664053,3.613757428093696,-0.009841650202505834,0.056,0.9999999999999838,-5.091937690295433,0.23345584125880395,47,2026-10-07 23:46:26.860243,25.0,0.5678727811933034,0.4242689470089995,0.673522600095483
0942,cdot_cos,S,R-S,48,9,10797,-0.03526862453210373,-0.07927630939573918,-0.11308568748609638,0.05587496478989754,1059.0,0.7542520321169419,0.5271898638211961,3.6524786061917602,-0.002641058607014724,0.021,0.9999999999999818,104.08479174035678,0.23842298058649186,48,2026-10-07 23:46:26.881243,25.0,0.06545426904453117,0.6022938937950588,0.4667074504600423
0942,cdot_cos,T,S-T,49,9,11071,-0.08569577007995954,0.04915530358040529,-0.050427145547855816,0.22085709046964058,1059.0,0.7697475191966735,0.5274633017235125,3.692243200703178,-0.004245828085434231,0.274,0.9999999999999803,-5.868862600338197,0.2433901413290733,49,2026-10-07 23:46:27.155244,25.0,0.6852552804579145,0.10323071355907129,0.056552872553764906
0942,cdot_cos,P,T-P,50,10,11690,0.029591259597175693,-0.0004650989894971199,0.11528702967713524,0.9469582537974373,1038.0,0.810822463147313,0.5286355193872955,3.7380177044173335,-0.01166939780696936,0.619,0.9999999999999795,-6.332927706939673,0.24835733357801748,50,2026-10-07 23:46:27.774244,25.0,0.5293226793580819,0.048368156293815474,0.06635693691541113
0942,cdot_cos,Q,P-Q,51,10,11779,-0.0037923422237881896,-0.002315940465022585,-0.03338360182096388,0.3026754048272559,1038.0,0.8296272966884171,0.5290101282792867,3.7778880942023085,-0.005544374086692569,0.089,0.9999999999999762,16.35044936525356,0.2533244784005583,51,2026-10-07 23:46:27.863244,25.0,0.3313010780143022,0.3280453187450188,0.21129026450678734
0942,cdot_cos,R,Q-R,52,10,11837,0.07561769009967577,0.09058657494015675,0.07941003232346396,0.8792397892347744,1038.0,0.8692145298839263,0.5300981403485794,3.8225921802663323,-0.01208414925340974,0.058,0.9999999999999751,-6.010756085609283,0.25829162063589023,52,2026-10-07 23:46:27.921243,25.0,0.5820573892625767,0.4332678266758988,0.6825385033708495
0942,cdot_cos,S,R-S,53,10,11858,-0.030968405410127905,-0.06109471082686622,-0.10658609550980368,0.06509164017620708,1038.0,0.8798863645828213,0.5301786765170458,3.859759155901087,-0.0033539259904223078,0.021,0.9999999999999721,108.40127397707977,0.2632587593921805,53,2026-10-07 23:46:27.942244,25.0,0.07405210900341537,0.5562085242381024,0.5081826047092851
0942,cdot_cos,T,S-T,54,10,12130,-0.11018219999612623,0.055732301949963224,-0.07921379458599832,0.12128207992162962,1038.0,0.8925752879019266,0.5303287314381411,3.8971044937071806,-0.0040409670898294645,0.272,0.9999999999999704,-4.578597585418189,0.26822592423765723,54,2026-10-07 23:46:28.214243,25.0,0.8436488047039684,0.10435601100314558,0.04665045337906366
0942,cdot_cos,P,T-P,55,11,12728,0.03367026912640542,-0.0018475620817869653,0.14385246912253163,0.9733073516534149,1022.0,0.9366560345685325,0.5315327444170045,3.9419524784701565,-0.014483428423977485,0.598,0.9999999999999698,-8.673047149380157,0.273193125244442,55,2026-10-07 23:46:28.812243,25.0,0.48626878744903196,0.052028081388298786,0.07371362318830416
0942,cdot_cos,Q,P-Q,56,11,12818,-0.00814812899992474,-0.004349132336588376,-0.041818398126330154,0.26009786697347326,1022.0,0.954800873242332,0.5318544323995152,3.9800343072894298,-0.0061640734253812874,0.09,0.9999999999999648,25.861566023275586,0.278160270897227,56,2026-10-07 23:46:28.902244,25.0,0.25933045106754915,0.33905508290631253,0.20160931859777176
0942,cdot_cos,R,Q-R,57,11,12862,0.08807271258668067,0.09138350219738042,0.09622084158660542,0.9172473426689847,1022.0,0.9976859494916688,0.5329886670719787,4.023976372121379,-0.01503433536323636,0.044,0.9999999999999633,-7.820482086471455,0.2831274115982953,57,2026-10-07 23:46:28.946244,25.0,0.5543271345398278,0.6027278194941202,0.9746608238485636
0942,cdot_cos,S,R-S,58,11,12880,-0.04107159722304051,-0.07520458575786097,-0.1291443098097212,0.03810324233429986,1022.0,1.0078409213578146,0.5330357768598915,4.059479715003689,-0.0036567201095102715,0.018,0.9999999999999598,241.51276746969833,0.2880945494088157,58,2026-10-07 23:46:28.964243,25.0,0.044537384719663786,0.688791710749068,0.5641651036747656
0942,cdot_cos,T,S-T,59,11,13168,-0.10829799185105418,0.06280063339106011,-0.06722639462801366,0.15700811156005776,1022.0,1.0224824510786352,0.5332298910932919,4.095816691406278,-0.00533720314247778,0.288,0.9999999999999574,-8.657186047253344,0.2930617209255113,59,2026-10-07 23:46:29.252243,25.0,0.7298895131589017,0.10545434170962954,0.050838644863960655
0942,cdot_cos,P,T-P,60,12,13750,0.03648921430945895,-0.0009235260503625708,0.14478720616051313,0.973907798351591,1056.0,1.0685826221825612,0.5344337379606623,4.139706132483288,-0.017301748462858566,0.582,0.9999999999999558,-9.938594055999209,0.29802893165138356,60,2026-10-07 23:46:29.834244,25.0,0.5008130882697204,0.05623356726932491,0.07920991598612706
0942,cdot_cos,Q,P-Q,61,12,13837,-0.0032279974455267733,-0.0018895765037618203,-0.03971721175498572,0.27033367843445555,1056.0,1.0879383233801294,0.5347678267562609,4.176670484104872,-0.007491040460349676,0.087,0.9999999999999499,29.365570266823056,0.3029960777615092,61,2026-10-07 23:46:29.921243,25.0,0.269912100737657,0.36345998899395465,0.2224793241099798
0942,cdot_cos,R,Q-R,62,12,13889,0.08249116698669666,0.08739838234393053,0.08571916443222344,0.8950108764218644,1056.0,1.1318246602675093,0.5358736915255776,4.219473909690569,-0.01747749153162892,0.052,0.9999999999999488,-9.030445085477716,0.3079632194695157,62,2026-10-07 23:46:29.973243,25.0,0.5647403184955572,0.5267981186240586,0.8439680170649974
0942,cdot_cos,S,R-S,63,12,13920,-0.03888258080024976,-0.08743306646457862,-0.12137374778694643,0.0458982341165145,1056.0,1.1427253277170315,0.5359303934214883,4.253815868472226,-0.0044482033450142415,0.031,0.999999999999944,229.78575896546982,0.31293035846856115,63,2026-10-07 23:46:30.004243,25.0,0.05344444705526294,0.4863389471266282,0.35163443385555576
0942,cdot_cos,T,S-T,64,12,14188,-0.08131382181393759,0.052833934877918876,-0.04243124101368783,0.25716022803281824,1056.0,1.1619776749893602,0.5362480675588064,4.2899847864904705,-0.007959662769505948,0.268,0.9999999999999408,-11.053652192578822,0.31789753264199333,64,2026-10-07 23:46:30.272243,25.0,0.6432918250083651,0.12386830966287869,0.07183711668779372
0942,cdot_cos,P,T-P,65,13,14806,0.03761770475148392,-0.001792706236449782,0.11893152656542151,0.9513526817753115,1000.0,1.2091187416963345,0.5374230310214962,4.332843262703807,-0.020044417481421717,0.618,0.9999999999999393,-10.285217451996317,0.32286476191135827,65,2026-10-07 23:46:30.890244,25.0,0.5472230591278849,0.05436955366407144,0.07628004321516872
0942,cdot_cos,Q,P-Q,66,13,14896,-0.002678118131923948,-0.0017334765837955569,-0.04029582288340787,0.2674898507199534,1000.0,1.2291784433181525,0.5377533187707779,4.3687289333722,-0.008770261598941967,0.09,0.9999999999999318,34.13434469488874,0.3278319093368509,66,2026-10-07 23:46:30.980243,25.0,0.2765127785467925,0.36472400209350464,0.22288557357575586
0942,cdot_cos,R,Q-R,67,13,14944,0.08225641089045303,0.0930000575361868,0.08493452902237698,0.8931533083744124,1000.0,1.2747690620731653,0.5388559137260687,4.41072607255483,-0.020462304458542906,0.048,0.9999999999999294,-10.60411423387822,0.33279905037170315,67,2026-10-07 23:46:31.028243,25.0,0.5647375111661602,0.595055351466367,0.9498045573961
0942,cdot_cos,S,R-S,68,13,14976,-0.03534217256204631,-0.07172414914004537,-0.11759858345249935,0.05021296209951119,1000.0,1.2863037570589237,0.5389178902853476,4.444031098206338,-0.005295091348635467,0.032,0.9999999999999242,244.72499419716308,0.33776618904040473,68,2026-10-07 23:46:31.060243,25.0,0.057017832511031936,0.4092749257638556,0.360459218304951
0942,cdot_cos,T,S-T,69,13,15247,-0.11249351183529775,0.0485904353009958,-0.07715133927325143,0.1268852914292157,1000.0,1.300962657322052,0.539074496150113,4.477889402356759,-0.006797772202247844,0.271,0.9999999999999192,-9.595303827627488,0.34273336914347,69,2026-10-07 23:46:31.331244,25.0,0.8016726673444025,0.11909504051174748,0.05409188288977242
0942,cdot_cos,P,T-P,70,14,15806,0.03319012701663082,0.0018148979997617673,0.1456836388519286,0.9744712804281737,1019.0,1.3508532690162909,0.5402769602628067,4.520281713593258,-0.02370388105048629,0.559,0.9999999999999175,-14.059553769440136,0.3477006019269677,70,2026-10-07 23:46:31.890244,25.0,0.49006309500788175,0.0631766701146805,0.08924975258361145
0942,cdot_cos,Q,P-Q,71,14,15898,-0.007445542828175016,-0.005159400202326462,-0.040635669844805836,0.2658284106971782,1019.0,1.3715941745102649,0.5406049026001417,4.555218289082028,-0.010115750117828268,0.092,0.9999999999999084,41.43451267402745,0.352667750752887,71,2026-10-07 23:46:31.982244,25.0,0.26099219207646285,0.36564867224602077,0.22544462493450004
0942,cdot_cos,R,Q-R,72,14,15958,0.07068623346211564,0.09258581397724042,0.07813177629029065,0.8758054192970468,1019.0,1.4181326247095587,0.5416850999474829,4.596350908411068,-0.02325032322601041,0.06,0.9999999999999054,-12.159419887959743,0.3576348940661952,72,2026-10-07 23:46:32.042243,25.0,0.5684056048871379,0.49478578600832085,0.7756408366548969
0942,cdot_cos,S,R-S,73,14,15977,-0.03205009560924829,-0.104200539489913,-0.10273632907136393,0.0711994964294427,1019.0,1.4309684688312634,0.5417728986132082,4.628910098201812,-0.006548998383263981,0.019,0.9999999999998987,190.22299148604827,0.3626020297115503,73,2026-10-07 23:46:32.061243,25.0,0.07806522675711387,0.8937686435864556,0.6755707432476151
0942,cdot_cos,T,S-T,74,14,16265,-0.07268102438020871,0.02878875028091171,-0.04063092877096042,0.2658515434731174,1019.0,1.452095833165844,0.542100706765236,4.663327029851843,-0.010906719308771951,0.288,0.9999999999998936,-13.293509934243941,0.3675692193499704,74,2026-10-07 23:46:32.349244,25.0,0.670625371803951,0.1236947525989606,0.07335890393951605
0942,cdot_cos,P,T-P,75,15,16825,0.03586361634113327,-0.0011228065062145857,0.10854464072134198,0.9378253290551167,1079.0,1.5022166463282647,0.5432567990144499,4.704742342889549,-0.026503079288188326,0.56,0.9999999999998911,-13.490584328388794,0.37253646683963654,75,2026-10-07 23:46:32.909244,25.0,0.555174108370325,0.06439066734303725,0.08950145207575119
0942,cdot_cos,Q,P-Q,76,15,16915,-0.002419630419175702,-0.0014298482275278018,-0.03828324676030897,0.277462973893209,1079.0,1.5242133805900457,0.5435987492238094,4.738984552529795,-0.011914029150778556,0.09,0.9999999999998804,42.664252683857654,0.3775036164491015,76,2026-10-07 23:46:32.999244,25.0,0.293896686416175,0.39728791385759876,0.244408158464234
0942,cdot_cos,R,Q-R,77,15,16965,0.08854272765350699,0.08980248816052755,0.09096235807268269,0.9067057036704377,1079.0,1.5737284708226325,0.5447159009337967,4.779863165801189,-0.02744150385586369,0.05,0.9999999999998774,-13.899163888188895,0.38247075789125734,77,2026-10-07 23:46:33.049243,25.0,0.5678834593688096,0.6140012336893474,0.9903018046517342
0942,cdot_cos,S,R-S,78,15,16994,-0.03992413312977103,-0.07329532861976246,-0.12846686078327801,0.03872885756698285,1079.0,1.5856135039589805,0.5447636088029546,4.811222459181168,-0.0067171745903908345,0.029,0.9999999999998692,434.4006477609871,0.3874378949941122,78,2026-10-07 23:46:33.078244,25.0,0.045717470547892575,0.5382696641220975,0.4098287288395873
0942,cdot_cos,T,S-T,79,15,17264,-0.09329612496907302,0.06734458279857682,-0.053371991839301997,0.20844901796477255,1079.0,1.6049481113417141,0.5450203711170533,4.844247558265499,-0.011034476129548543,0.27,0.9999999999998622,-16.81438942592971,0.3924050875668659,79,2026-10-07 23:46:33.348243,25.0,0.6762072365090229,0.13437961832080125,0.0716096569730875
0942,cdot_cos,P,T-P,80,16,17904,0.04604759683569233,0.0019200354652515223,0.13934372180476534,0.9702173192478133,1099.0,1.6581784978522132,0.5462151435376473,4.88549734015918,-0.031056450252498986,0.64,0.9999999999998592,-16.757981501611013,0.39737236924352265,80,2026-10-07 23:46:33.988243,25.0,0.5248219814511592,0.05792546315711664,0.08317247892265477
0942,cdot_cos,Q,P-Q,81,16,18013,-0.000782218313282811,-0.0005585036996212995,-0.04682981514897514,0.23672027999241027,1099.0,1.6790927041828234,0.5465065720815581,4.918559818448696,-0.012477966428240481,0.109,0.9999999999998458,63.74970541646496,0.40233952449872823,81,2026-10-07 23:46:34.097243,25.0,0.22561998566634084,0.3267365690225225,0.191873452574406
0942,cdot_cos,R,Q-R,82,16,18051,0.08239257249847304,0.09026775655128653,0.08317479081175586,0.8888818001590931,1099.0,1.729407069899123,0.5476005966193747,4.9587349872590725,-0.030646842830981957,0.038,0.9999999999998413,-16.60737558867015,0.40730666266758153,82,2026-10-07 23:46:34.135243,25.0,0.5527515835219925,0.834028958812446,1.3240622556920962
0942,cdot_cos,S,R-S,83,16,18073,-0.030191003077217664,-0.05121670277521485,-0.11258357557569071,0.056540865602297784,1099.0,1.7424789050525693,0.5476701709625599,4.98951340103482,-0.008110000344611937,0.022,0.9999999999998308,323.92461724536844,0.4122737971403179,83,2026-10-07 23:46:34.157243,25.0,0.062107074240070545,0.7212215439731283,0.5941743251566469
0942,cdot_cos,T,S-T,84,16,18344,-0.09083258760939619,0.06418087400417596,-0.06064158453217853,0.18004544698408445,1099.0,1.7611408178339407,0.5478917070342993,5.021511125101219,-0.011683012889546419,0.271,0.999999999999822,-16.128355607643,0.41724099657583164,84,2026-10-07 23:46:34.428244,25.0,0.7365120230441972,0.13458939066713502,0.06886314679472846
0942,cdot_cos,P,T-P,85,17,19003,0.033437555141581914,0.0023329704547331,0.12427014275097811,0.9571704651446785,1079.0,1.8154263547941565,0.549069132244426,5.062168002567607,-0.034676244037105924,0.659,0.9999999999998185,-19.528400572539358,0.42220830137220317,85,2026-10-07 23:46:35.087244,25.0,0.5152602877257179,0.05946517436893455,0.08237562512931071
0942,cdot_cos,Q,P-Q,86,17,19112,-0.0020284446534016144,-0.0014883250869772075,-0.03546599979498353,0.29180163436037676,1079.0,1.8395159176521965,0.5494279717802941,5.095186242186959,-0.015722766633487904,0.109,0.9999999999998022,52.818810384882944,0.42717545821337927,86,2026-10-07 23:46:35.196243,25.0,0.2995482450812484,0.3438127101419156,0.2210051638352292
0942,cdot_cos,R,Q-R,87,17,19154,0.07317782178514319,0.08605050882567816,0.0752062664385448,0.867629119822611,1079.0,1.890377525605094,0.5504946230950144,5.134672872777427,-0.0338624996641396,0.042,0.9999999999997967,-17.006244477754848,0.4321425968909643,87,2026-10-07 23:46:35.238244,25.0,0.5852665174524092,0.7717517508120002,1.2109906655451814
0942,cdot_cos,S,R-S,88,17,19173,-0.032027789525418834,-0.07858432058884224,-0.10520561131056202,0.06722365367440962,1079.0,1.9043430647204045,0.5505772476805104,5.164873258809114,-0.00945922083204083,0.019,0.9999999999997836,295.3513011363356,0.4371097293573288,88,2026-10-07 23:46:35.257244,25.0,0.07578610831690015,0.8710467118333624,0.735028374490021
0942,cdot_cos,T,S-T,89,17,19463,-0.09320489764250861,0.05753251491678165,-0.061177108117089776,0.17807743510887197,1079.0,1.9234773006547619,0.5507961091369026,5.196200959880483,-0.013071986258709787,0.29,0.9999999999997731,-16.507088485217437,0.44207694140355497,89,2026-10-07 23:46:35.547244,25.0,0.7585287063724198,0.1302682161641016,0.06598012391157713
0942,cdot_cos,P,T-P,90,18,20082,0.04402571727625614,0.0008237701244835691,0.13723061491876476,0.9686523166447839,1039.0,1.9798986300955834,0.551986259578328,5.236602364480194,-0.03928690574634271,0.619,0.9999999999997687,-22.02655947951849,0.44704425418435256,90,2026-10-07 23:46:36.166244,25.0,0.5131081574984854,0.0638107296976611,0.09114915903202192
0942,cdot_cos,Q,P-Q,91,18,20171,-0.0010024182250236138,-0.0006118894868438426,-0.04502813550127976,0.24495489686789862,1039.0,2.0024749840204663,0.5522871336326699,5.268484507968155,-0.016036324682957893,0.089,0.9999999999997491,77.27678983235334,0.45201140660365846,91,2026-10-07 23:46:36.255244,25.0,0.2346008574288366,0.42208085793550926,0.253666898032392
0942,cdot_cos,R,Q-R,92,18,20230,0.0760242132949044,0.09103864121861173,0.07702663151992802,0.8727689115971856,1039.0,2.055029022808104,0.5533588286017103,5.307632476963337,-0.038016766802741325,0.059,0.9999999999997429,-20.509979756147995,0.4569785502857698,92,2026-10-07 23:46:36.314244,25.0,0.5609196685008303,0.5659975990184534,0.8907464201294536
0942,cdot_cos,S,R-S,93,18,20250,-0.03087525061943283,-0.06862316689080449,-0.10689946391433723,0.0646165127913958,1039.0,2.069262700704644,0.5534381532594317,5.337165324514076,-0.010465542839345034,0.02,0.9999999999997268,347.3223176096359,0.4619456818655773,93,2026-10-07 23:46:36.334244,25.0,0.07189380292512312,0.8159782439571273,0.7116838948269866
0942,cdot_cos,T,S-T,94,18,20541,-0.0996990404765185,0.05651719865805794,-0.06882378985708566,0.15179457242237587,1039.0,2.087668152566389,0.5536244889167943,5.367589622557538,-0.013638903997429267,0.291,0.9999999999997132,-17.03034836702879,0.4669129022312396,94,2026-10-07 23:46:36.625243,25.0,0.7924151804334385,0.13119334323041876,0.06324897546991533
0942,cdot_cos,P,T-P,95,19,21121,0.036925196622827824,0.002026836043162926,0.13662423709934632,0.9681887152076694,1059.0,2.1456172264647475,0.5548126337465734,5.4076457581606485,-0.04370767900329048,0.58,0.999999999999708,-25.307331439931176,0.4718802212225246,95,2026-10-07 23:46:37.205244,25.0,0.5026044665151361,0.07109089616260897,0.09991219637647993
0942,cdot_cos,Q,P-Q,96,19,21212,-0.0023923552579450283,-0.0014428406783856577,-0.03931755188077285,0.2723090514432231,1059.0,2.1701335921150156,0.5551466945503811,5.43930578492557,-0.01884870692386556,0.091,0.9999999999996868,74.4145131547188,0.4768473755973871,96,2026-10-07 23:46:37.296243,25.0,0.2674376479254758,0.4350651332953333,0.2694106115414071
0942,cdot_cos,R,Q-R,97,19,21272,0.08002036330180749,0.09654561656374112,0.08241271855975252,0.8869860471329272,1059.0,2.224799080724498,0.5562344761176998,5.478275524058661,-0.0427780955409319,0.06,0.99999999999968,-21.99833986528237,0.48181451989495455,97,2026-10-07 23:46:37.356243,25.0,0.571560951237376,0.5753883764348822,0.9110914768247103
0942,cdot_cos,S,R-S,98,19,21291,-0.03015449570048063,-0.05825684742662614,-0.11017485900228813,0.05984023993581693,1059.0,2.2391801972872014,0.556307843675171,5.507167954827323,-0.01143026367611281,0.019,0.9999999999996616,427.27103021131774,0.4867816500005544,98,2026-10-07 23:46:37.375243,25.0,0.06440724209383573,0.804220163151047,0.7569008717212234
0942,cdot_cos,T,S-T,99,19,21580,-0.11948825162664053,0.06972047095494109,-0.08933375592615991,0.09679590140520075,1059.0,2.255359446924238,0.5564265157872901,5.536375200469302,-0.012946772657163843,0.289,0.9999999999996446,-12.778983654812222,0.4917488781979198,99,2026-10-07 23:46:37.664243,25.0,0.8894658790734081,0.13212180397085976,0.055983562757911914
0942,cdot_cos,P,T-P,100,20,22180,0.042702125377170115,0.00010235872939167499,0.16219037700381064,0.9829558877934503,1099.0,2.3155465999823583,0.5576312561558537,5.576313902723845,-0.04895332094526458,0.6,0.9999999999996397,-29.88739252676421,0.49671622350708206,100,2026-10-07 23:46:38.264243,25.0,0.47925224862981614,0.0700205541752815,0.10031192176353398
0942,cdot_cos,Q,P-Q,101,20,22269,-0.002066326494650391,-0.0011823582158934835,-0.044768451871820505,0.2461576092016341,1099.0,2.3393841119345757,0.5579328487593629,5.607157230550205,-0.019741895507051736,0.089,0.9999999999996141,96.85723422367262,0.5016833784075917,101,2026-10-07 23:46:38.353244,25.0,0.2277135719608285,0.45307391753752335,0.2678372129462629
0942,cdot_cos,R,Q-R,102,20,22323,0.08678801870649319,0.08992046823004184,0.08885434520114359,0.9021511935221967,1099.0,2.3961937573040375,0.5590377986489622,5.646006520605655,-0.0478390025612784,0.054,0.9999999999996072,-25.428399349780193,0.5066505205654119,102,2026-10-07 23:46:38.407244,25.0,0.5558113415283393,0.6563275162267052,1.0520304698048475
0942,cdot_cos,S,R-S,103,20,22344,-0.03382142479448958,-0.05493993664590419,-0.12060944350098277,0.04674228451730208,1099.0,2.41026748368706,0.5590950325108981,5.674196380100617,-0.012028451223718976,0.021,0.9999999999995854,625.6881874870711,0.5116176502091768,103,2026-10-07 23:46:38.428244,25.0,0.05093759759598742,0.8280311346505594,0.6701774468105904
0942,cdot_cos,T,S-T,104,20,22619,-0.09493911268785298,0.06975334521784737,-0.061117687893363394,0.17829496640316633,1099.0,2.430971064959361,0.559313332385242,5.703900711377136,-0.01782097953138192,0.275,0.9999999999995675,-26.53473037982106,0.5165848816981868,104,2026-10-07 23:46:38.703244,25.0,0.7224985698552321,0.1481500997952337,0.0752857500810949
0942,cdot_cos,P,T-P,105,21,23279,0.037794429829738414,-0.0008084975860290594,0.1327335425175914,0.9650526009860938,1098.0,2.4917500385744384,0.5604945184388374,5.743361327981375,-0.0531665862021387,0.66,0.9999999999995615,-29.9238266174651,0.521552272690946,105,2026-10-07 23:46:39.363244,25.0,0.5143719407244051,0.06530019334969395,0.09208935396223855
0942,cdot_cos,Q,P-Q,106,21,23369,-0.0029024002278870693,-0.001646268047931794,-0.040696830057625484,0.2655301112764356,1098.0,2.517167320180957,0.5608193971583739,5.773990874518632,-0.02261953471215484,0.09,0.9999999999995324,94.02601541140753,0.5265194292192906,106,2026-10-07 23:46:39.453243,25.0,0.2591178913642106,0.4618955623186446,0.2824142400724286
0942,cdot_cos,R,Q-R,107,21,23418,0.08193139369720756,0.08047247682358695,0.08483379392509463,0.8929127403557595,1098.0,2.5748912397917945,0.5619115008752736,5.812459565786247,-0.052194349431756826,0.049,0.9999999999995237,-27.08059157930483,0.5314865691080609,107,2026-10-07 23:46:39.502244,25.0,0.5674352299090427,0.7378184487084899,1.1780391757313764
0942,cdot_cos,S,R-S,108,21,23450,-0.03589399901159451,-0.055016829039344683,-0.11782539270880207,0.049943228225913204,1098.0,2.589473528154389,0.5619725678276054,5.840192051727837,-0.013372221275284403,0.032,0.9999999999994983,635.7305657822528,0.5364537021789734,108,2026-10-07 23:46:39.534244,25.0,0.0548478564041076,0.5235247129827397,0.45569651133108013
0942,cdot_cos,T,S-T,109,21,23718,-0.11044547323086377,0.08482653383758275,-0.07455147421926926,0.13426227338910468,1098.0,2.60839682142269,0.5621367246710388,5.868881519757825,-0.01746413871322179,0.268,0.9999999999994763,-24.92687695714246,0.5414209392073839,109,2026-10-07 23:46:39.802243,25.0,0.7911212838634419,0.15197056739497802,0.07060930323992827
0942,cdot_cos,P,T-P,110,22,24377,0.030263459980701988,0.001418036384087819,0.14070893321156577,0.971187866608336,1100.0,2.6709297522780973,0.5633237480180343,5.908191207701535,-0.058580012054104354,0.659,0.9999999999994695,-34.63779667430461,0.5463883536485482,110,2026-10-07 23:46:40.461244,25.0,0.4956548470352816,0.06882357588507342,0.09489063862732541
0942,cdot_cos,Q,P-Q,111,22,24467,-0.0023159428796446597,-0.0013365827815347946,-0.03257940286034665,0.30693557852774345,1100.0,2.6991062944392166,0.5636987463979326,5.938936922832408,-0.02684373504297237,0.09,0.9999999999994379,84.63043765612892,0.5513555114823748,111,2026-10-07 23:46:40.551244,25.0,0.3065850405908204,0.4769276906465139,0.3130726906791035
0942,cdot_cos,R,Q-R,112,22,24525,0.07243248518480057,0.07975992641698493,0.07474842806444523,0.8663090244046842,1100.0,2.7567767365944698,0.5647567647694157,5.976825934481578,-0.055789993440076346,0.058,0.9999999999994269,-27.35893740344745,0.5563226552852096,112,2026-10-07 23:46:40.609244,25.0,0.5952086907752624,0.6325762108106942,0.9943179681940204
0942,cdot_cos,S,R-S,113,22,24546,-0.03425621175385306,-0.07802369067916362,-0.10668869693865363,0.06493571967276653,1100.0,2.772485134893257,0.5648360467679913,6.004291680240328,-0.015399935968149751,0.021,0.9999999999993984,509.44802348091383,0.5612897820556045,113,2026-10-07 23:46:40.630244,25.0,0.07260351736280123,0.9144184467222743,0.748018966608921
0942,cdot_cos,T,S-T,114,22,24817,-0.09042030164880367,0.06000740958602947,-0.056164089894950614,0.19716595360632058,1100.0,2.7951823113568053,0.5650767523524102,6.033370844233244,-0.022403181956337115,0.271,0.9999999999993747,-29.09465521996085,0.5662570295134323,114,2026-10-07 23:46:40.901243,25.0,0.7315421017751531,0.15855841408002438,0.08375341868467964
0942,cdot_cos,P,T-P,115,23,25477,0.03427447133349758,-0.0012618254131152055,0.12469477298230125,0.9576035538753188,1038.0,2.8584237953246303,0.5662453825837974,6.072307464031717,-0.0633462467322549,0.66,0.9999999999993658,-35.03508952298409,0.5712244704254221,115,2026-10-07 23:46:41.561243,25.0,0.5239611920829302,0.06898457379726176,0.09582043025428034
0942,cdot_cos,Q,P-Q,116,23,25566,-0.001898070105020774,-0.001154886214858581,-0.03617254143851835,0.2881648716468215,1038.0,2.886241948769191,0.5665969066834372,6.10243791848863,-0.028307647672348717,0.089,0.9999999999993298,99.67623584218188,0.5761916291940405,116,2026-10-07 23:46:41.650244,25.0,0.2900277853776194,0.4930797410964494,0.31256352184899455
0942,cdot_cos,R,Q-R,117,23,25615,0.07963192732211916,0.08447975047450748,0.08152999742713993,0.8847549451581245,1038.0,2.9461919892397983,0.5676757737908459,6.140354829208283,-0.06190044081183983,0.049,0.9999999999993175,-31.13710011993731,0.5811587684638659,117,2026-10-07 23:46:41.699244,25.0,0.5811823631667323,0.7694436390681861,1.2234702136858668
0942,cdot_cos,S,R-S,118,23,25649,-0.035218974223909315,-0.06548631250215453,-0.11485090154602848,0.05359207221793454,1038.0,2.961647425397873,0.5677411032693888,6.167249488449408,-0.016163996896875782,0.034,0.999999999999285,700.0889175159701,0.586125900569132,118,2026-10-07 23:46:41.733243,25.0,0.0590408527327059,0.4599952640801374,0.4545716517080813
0942,cdot_cos,T,S-T,119,23,25916,-0.14462692917800204,0.07252241865979316,-0.10940795495409272,0.06092802520720486,1038.0,2.9774716671972477,0.5678153725142164,6.194136944374108,-0.016636652197661955,0.267,0.9999999999992534,-6.3640784537781405,0.5910931550811072,119,2026-10-07 23:46:42.000243,25.0,0.9719893011998691,0.15385782656596306,0.059266823218631394
0942,cdot_cos,P,T-P,120,24,26515,0.037939482182132014,0.000739781176959608,0.18256641136013407,0.9896888042537371,1079.0,3.0438075047840973,0.5690213411696364,6.233319096530335,-0.07065872501842992,0.599,0.9999999999992448,-44.79558616882452,0.5960605888382206,120,2026-10-07 23:46:42.599244,25.0,0.46554374332275444,0.07805493496746711,0.11074430314999949
0942,cdot_cos,Q,P-Q,121,24,26607,-0.0027249705348512125,-0.0015997318615144122,-0.040664452716983226,0.26568800009103044,1079.0,3.0709814792882733,0.5693449520942907,6.26279732687502,-0.0293889563543642,0.092,0.999999999999205,127.52897235517028,0.601027750789442,121,2026-10-07 23:46:42.691243,25.0,0.24554842110848255,0.4832249620635491,0.29536928808886864
0942,cdot_cos,R,Q-R,122,24,26662,0.08277503537416009,0.09328490097087767,0.0855000059090113,0.894494922581937,1079.0,3.1327208978037904,0.5704340199225697,6.300652567317769,-0.06770071862042637,0.055,0.9999999999991928,-35.178490513859316,0.6059948932428779,122,2026-10-07 23:46:42.746243,25.0,0.5678494767929706,0.7055276943463731,1.1225348821003112
0942,cdot_cos,S,R-S,123,24,26684,-0.030617951630627027,-0.05485446878280327,-0.11339298700478712,0.055471070928867335,1079.0,3.1485895256663743,0.5705015348728505,6.327170993141638,-0.017617837359673223,0.022,0.9999999999991552,741.8043122665791,0.6109620177457882,123,2026-10-07 23:46:42.768243,25.0,0.05826596317605386,0.809085711106464,0.7213012664810872
0942,cdot_cos,T,S-T,124,24,26955,-0.10816426290290646,0.0714754010829002,-0.07754631127227943,0.12579538734698045,1079.0,3.168320669092475,0.5706546332331139,6.354543952637925,-0.022028331570551216,0.271,0.9999999999991228,-28.80823937819131,0.6159292841061806,124,2026-10-07 23:46:43.039244,25.0,0.818551333478349,0.15923510135238167,0.07280864732878412
0942,cdot_cos,P,T-P,125,25,27594,0.029797824633476657,-0.000546852016188392,0.13796208753638312,0.9692028623016137,1119.0,3.234894950599365,0.5718337391407907,6.393298566189827,-0.07528896387052486,0.639,0.9999999999991135,-45.170354887725296,0.620896765709468,125,2026-10-07 23:46:43.678244,25.0,0.49291615303757835,0.07445891885651834,0.10418510407964066
0942,cdot_cos,Q,P-Q,126,25,27683,-0.007775888240943605,-0.003777493593110763,-0.03757371287442026,0.28103310861729425,1119.0,3.263479167391105,0.5721754844977998,6.422657174292959,-0.03279974163921344,0.089,0.9999999999990687,124.3300643589658,0.6258639275221917,126,2026-10-07 23:46:43.767244,25.0,0.2737846800971607,0.5179659620986197,0.32117097518809057
0942,cdot_cos,R,Q-R,127,25,27734,0.08263550510683688,0.08050147706476364,0.09041139334778049,0.9055339991583219,1119.0,3.3270928918529195,0.5732761732049859,6.460497686643153,-0.07398253414181183,0.051,0.9999999999990559,-37.415476540937334,0.630831067574918,127,2026-10-07 23:46:43.818244,25.0,0.5731226090775985,0.7738937658194976,1.2473279306238085
0942,cdot_cos,S,R-S,128,25,27766,-0.04444099865275075,-0.09682162985008819,-0.12707650375958762,0.04004384648943376,1119.0,3.342416331504694,0.573324830367169,6.486433336237326,-0.018034030209459758,0.032,0.9999999999990138,1149.8513563505649,0.6357981967301216,128,2026-10-07 23:46:43.850244,25.0,0.044941890259627755,0.7747627271824375,0.47885748911795367
0942,cdot_cos,T,S-T,129,25,28034,-0.06464866834986241,0.051405705276108216,-0.020207669697111658,0.3763213679973685,1119.0,3.3766777063925955,0.5737820279092554,6.516914426521132,-0.04061053410806806,0.268,0.9999999999989861,-49.38019525560364,0.6407654719635104,129,2026-10-07 23:46:44.118243,25.0,0.5735401803291281,0.18516405984942444,0.12784095107425927
0942,cdot_cos,P,T-P,130,26,28713,0.03134913337803718,-0.0003451055672938445,0.0959978017278996,0.9168231126791541,1118.0,3.4416642675839855,0.5748953584874964,6.5548190513809175,-0.0781144652341273,0.679,0.9999999999989743,-33.68624904321967,0.6457330090103884,130,2026-10-07 23:46:44.797244,25.0,0.6187121989755182,0.0696264879092321,0.09570922119497792
0942,cdot_cos,Q,P-Q,131,26,28802,-0.004924868956033082,-0.0029962906061510508,-0.036274002334070264,0.2876448449656681,1118.0,3.4712304769733326,0.5752444997953815,6.583978030446912,-0.03602397005449452,0.089,0.9999999999989239,120.55432636886391,0.6507001725354149,131,2026-10-07 23:46:44.886244,25.0,0.31086316156897886,0.523545665496614,0.3322045998803054
0942,cdot_cos,R,Q-R,132,26,28856,0.07598849122666533,0.07690975467101821,0.08091336018269842,0.883173733413904,1118.0,3.5348553960423827,0.5763160194404383,6.621370782565787,-0.0785145065888716,0.054,0.9999999999989075,-39.65446338795258,0.6556673143362444,132,2026-10-07 23:46:44.940243,25.0,0.5820606008827879,0.7403914285963588,1.1782392420194463
0942,cdot_cos,S,R-S,133,26,28877,-0.040217468194213714,-0.08398817820419076,-0.11620595942087905,0.0518996164980578,1118.0,3.5511927512617394,0.5763789649671661,6.647130333842412,-0.02038994326620359,0.021,0.9999999999988607,923.4105478855089,0.660634434990897,133,2026-10-07 23:46:44.961244,25.0,0.05780681493832744,0.9871963954325382,0.77796929615984
0942,cdot_cos,T,S-T,134,26,29152,-0.09437802921826587,0.06947808862624578,-0.05416056102405215,0.20521490249542806,1118.0,3.5763176446505494,0.5766278319150068,6.6749535748509015,-0.03153584649768669,0.275,0.9999999999988228,-44.7865951191706,0.665601725603039,134,2026-10-07 23:46:45.236243,25.0,0.7022709411946215,0.17030872802761235,0.09136324868658169
0942,cdot_cos,P,T-P,135,27,29831,0.029615228544468197,0.001455453681602608,0.12399325776273407,0.9568857917565292,1099.0,3.644862551676926,0.5777877453599652,6.713290924031302,-0.0871017742839677,0.679,0.9999999999988096,-47.90523640173035,0.6705692934096359,135,2026-10-07 23:46:45.915244,25.0,0.5283784199212516,0.07360119197264328,0.10094978943501742
0942,cdot_cos,Q,P-Q,136,27,29923,-0.0024790637342104057,-0.0014242382934023768,-0.032094292278678604,0.3095214940044132,1099.0,3.676268063349399,0.5781627567747128,6.742482797851649,-0.04045046748518918,0.092,0.9999999999987542,124.3996981536583,0.6755364605681227,136,2026-10-07 23:46:46.007244,25.0,0.3155952860112395,0.5183429871249592,0.34136425730948633
0942,cdot_cos,R,Q-R,137,27,29983,0.07294066285631616,0.08368935915328797,0.07541972659052656,0.8682408095439578,1099.0,3.7402376613079187,0.5792142215240722,6.779533036482557,-0.08340991661595058,0.06,0.9999999999987353,-40.85676591339473,0.6805036064079029,137,2026-10-07 23:46:46.067244,25.0,0.5974766544081608,0.6817213575173509,1.0661599659753294
0942,cdot_cos,S,R-S,138,27,30019,-0.02921135233867033,-0.05189917828389034,-0.10215201519498648,0.07217158696264411,1099.0,3.758074626251481,0.5793015911994955,6.8052572363647705,-0.023512813092640857,0.036,0.9999999999986838,685.5594144431733,0.6854707359100624,138,2026-10-07 23:46:46.103244,25.0,0.07828306651286251,0.5444088017740139,0.4954712484322875
0942,cdot_cos,T,S-T,139,27,30291,-0.10431657951277354,0.06638716534979039,-0.0751052271741032,0.1326612557060743,1099.0,3.7794350950356477,0.5794621756610375,6.831762711556085,-0.028301752307966534,0.272,0.9999999999986356,-29.821934011177287,0.6904380353576922,139,2026-10-07 23:46:46.375243,25.0,0.8443315838687755,0.16912662328304265,0.07853113523590677
0942,cdot_cos,P,T-P,140,28,30930,0.03625773578020446,-0.002244345009239625,0.140574315292978,0.9710935451804087,1039.0,3.8500795093174562,0.5806371556967241,6.870196042771589,-0.09467034579975236,0.639,0.9999999999986218,-56.48486908375649,0.6954056054037681,140,2026-10-07 23:46:47.014244,25.0,0.4960644376038133,0.07872651882004301,0.11055463893866754
0942,cdot_cos,Q,P-Q,141,28,31019,-0.0024475220700550535,-0.001477074514274496,-0.038705257850259515,0.275352856854618,1039.0,3.8800475860876626,0.5809701546981348,6.898643312187162,-0.04068073248540467,0.089,0.9999999999985602,162.1314571083636,0.7003727720896942,141,2026-10-07 23:46:47.103244,25.0,0.2652309282940133,0.5417881074057578,0.33671996371018437
0942,cdot_cos,R,Q-R,142,28,31067,0.08157014575622559,0.08571624664807277,0.08401766782628065,0.8909461018715776,1039.0,3.946517792435681,0.5820471168588476,6.935896869560136,-0.09129104070114169,0.048,0.9999999999985402,-46.99358070504819,0.7053399090096562,142,2026-10-07 23:46:47.151244,25.0,0.5744258985542309,0.8687700465912218,1.3847959655837183
0942,cdot_cos,S,R-S,143,28,31101,-0.03494938317302534,-0.06052964841524435,-0.11651952892925094,0.051515230829510664,1039.0,3.96344951056042,0.5821093638741958,6.961020558290627,-0.023501060712458204,0.034,0.9999999999984815,1089.047878191366,0.7103070359977008,143,2026-10-07 23:46:47.185244,25.0,0.05587994099829022,0.5579593481182761,0.4979917095511416
0942,cdot_cos,T,S-T,144,28,31370,-0.1145018291606435,0.06524181839732213,-0.07955244598761815,0.12038269385671382,1039.0,3.984459028107724,0.5822548147973587,6.987062786763673,-0.02929800057985488,0.269,0.9999999999984281,-39.854954106417324,0.7152743442948106,144,2026-10-07 23:46:47.454243,25.0,0.820483663543323,0.173486857214352,0.0781022957148846
0942,cdot_cos,P,T-P,145,29,31969,0.03785199447648776,-0.0005058096753423427,0.15235382363713126,0.9783072481328159,1078.0,4.056785439741741,0.5834363099296066,7.0255086773256705,-0.10196226855451924,0.599,0.9999999999984139,-61.50196136349441,0.7202419132801022,145,2026-10-07 23:46:48.053244,25.0,0.4903389423578775,0.08556671973634705,0.12074526149251658
0942,cdot_cos,Q,P-Q,146,29,32058,-0.0018951170800806407,-0.001119505167757906,-0.0397471115565684,0.2701862578260298,1078.0,4.086967958351868,0.5837624438442863,7.053634009667155,-0.04308260695493378,0.089,0.9999999999983475,180.53829715136186,0.7252090819042634,146,2026-10-07 23:46:48.142244,25.0,0.25495481157566896,0.5555445493399832,0.3391294225856891
0942,cdot_cos,R,Q-R,147,29,32109,0.09007338036655567,0.09272702185042989,0.09196849744663631,0.9088117922822669,1078.0,4.155672369524258,0.584858904319331,7.091042965584122,-0.09918414098269844,0.051,0.9999999999983278,-51.16603407476298,0.7301762210829912,147,2026-10-07 23:46:48.193243,25.0,0.5680021447355845,0.8378757233598306,1.3471453171056997
0942,cdot_cos,S,R-S,148,29,32141,-0.03324108554148334,-0.05454366941666471,-0.12331446590803902,0.04381975689706428,1078.0,4.17243128213457,0.5849117507073058,7.115764181861612,-0.02444371799255985,0.032,0.9999999999982633,1414.2957703311758,0.7351433455259421,148,2026-10-07 23:46:48.225244,25.0,0.04699784038774996,0.5888422081533756,0.5237160190722512
0942,cdot_cos,T,S-T,149,29,32408,-0.11563735232615731,0.07719134892504959,-0.08239626678467396,0.11305518831813866,1078.0,4.193358270846074,0.5850480856243987,7.141427619498017,-0.030658260346850413,0.267,0.9999999999982049,-45.58291072313962,0.7401106637584572,149,2026-10-07 23:46:48.492243,25.0,0.8165201525842813,0.1764881424940796,0.07837823487454681
0942,cdot_cos,P,T-P,150,30,33047,0.02970688249357282,-1.809327538595941e-05,0.14534423481973013,0.974259344572325,1139.0,4.266675950226409,0.5862224176260576,7.179734792409589,-0.10853120754403196,0.639,0.9999999999981903,-66.31254797380322,0.7450782954016489,150,2026-10-07 23:46:49.131244,25.0,0.4879625399914468,0.0832015849286262,0.11473815239488969
0942,cdot_cos,Q,P-Q,151,30,33137,-0.0026293965757471028,-0.001456965873156519,-0.03233627906931992,0.30823006314775475,1139.0,4.299689896384859,0.5865937420348839,7.208190832516577,-0.04947126115950816,0.09,0.9999999999981192,159.05215219007601,0.7500454666782289,151,2026-10-07 23:46:49.221244,25.0,0.30306034251256003,0.5637514858055316,0.36682162398277524
0942,cdot_cos,R,Q-R,152,30,33192,0.07932370200997992,0.07942633433636448,0.08195309858572702,0.8858290869203809,1139.0,4.368151217671405,0.587660349947765,7.245169675956022,-0.10372468435426377,0.055,0.9999999999980967,-50.86538599569368,0.755012609089123,152,2026-10-07 23:46:49.276243,25.0,0.5927087253701325,0.7799894927750259,1.2447512961190166
0942,cdot_cos,S,R-S,153,30,33212,-0.03956206501095901,-0.0718214141582092,-0.11888576702093892,0.04870029022916962,1139.0,4.3854887405901115,0.587718965162474,7.269688432296214,-0.026526704915236954,0.02,0.9999999999980261,1317.0297135682772,0.759979721749365,153,2026-10-07 23:46:49.296243,25.0,0.054464912202912746,1.2791319776971344,0.8668761459353469
0942,cdot_cos,T,S-T,154,30,33487,-0.07032734543889133,0.06044383661764949,-0.030765280427932314,0.31666689968282846,1139.0,4.41931649677929,0.5881000417433813,7.298135900508422,-0.05204516074159689,0.275,0.9999999999979756,-66.96411457667367,0.7649470594146957,154,2026-10-07 23:46:49.571244,25.0,0.6124342375877497,0.19242875565448225,0.12301002250610339
0942,cdot_cos,P,T-P,155,31,34186,0.034866238267540796,-0.0018218446008401324,0.10519358370643211,0.9327574892089364,1078.0,4.491324556200077,0.5892219057820854,7.335760073120112,-0.11202646335063529,0.699,0.9999999999979571,-53.465750340228794,0.7699147799215117,155,2026-10-07 23:46:50.270243,25.0,0.5854228715512219,0.07464671053833936,0.10301582177508843
0942,cdot_cos,Q,P-Q,156,31,34275,-0.0012956698756422021,-0.0007511448786052221,-0.036161908143183,0.2882194038184983,1078.0,4.523672598111888,0.5895683715779005,7.363713653063049,-0.05090178726717563,0.089,0.9999999999978759,176.42340693301975,0.774881952157777,156,2026-10-07 23:46:50.359244,25.0,0.3009426519834843,0.5765409708450759,0.3634611450765351
0942,cdot_cos,R,Q-R,157,31,34321,0.08508826973303885,0.08250287709598345,0.08638393960868104,0.8965623191244868,1078.0,4.5939488490105,0.5906455511297304,7.400774641863241,-0.11175346300290377,0.046,0.9999999999978505,-56.4916736790605,0.7798490860688678,157,2026-10-07 23:46:50.405244,25.0,0.5801218350307831,0.9560073937954072,1.5277445847524325
0942,cdot_cos,S,R-S,158,31,34355,-0.033403552859797125,-0.049304848081523085,-0.11849182259283597,0.04915859561292513,1078.0,4.611625278341066,0.5907045879337995,7.425048651054881,-0.028379004213282034,0.034,0.9999999999977726,1412.245464574187,0.7848162096343426,158,2026-10-07 23:46:50.439244,25.0,0.052977269793729145,0.5283962569375427,0.519894980310752
0942,cdot_cos,T,S-T,159,31,34626,-0.14431243681430142,0.09775015183020196,-0.1109088839545043,0.0588161456733642,1078.0,4.629879794482253,0.59077521949484,7.44939919316838,-0.02941993662578354,0.271,0.9999999999976972,-14.737496908852684,0.7897835557913055,159,2026-10-07 23:46:50.710243,25.0,0.9652367496201926,0.1751889133278823,0.06735983815936286
0942,cdot_cos,P,T-P,160,32,35264,0.03693198927836806,-0.002802735884284838,0.1812444260926695,0.9893460204700365,1059.0,4.706577669364778,0.591962748909816,7.487809634727545,-0.12476823540162674,0.638,0.9999999999976802,-80.29131537577004,0.7947512534353471,160,2026-10-07 23:46:51.348243,25.0,0.46570480446394724,0.08493840053088685,0.1202161048315437
0942,cdot_cos,Q,P-Q,161,32,35338,-0.0029197637805281644,-0.0013416494687423673,-0.039851753058896225,0.26967072300988454,1059.0,4.738261193559665,0.5922862538864458,7.515277920778819,-0.052126609252066546,0.074,0.9999999999975926,224.5456218520106,0.79971841297337,161,2026-10-07 23:46:51.422244,25.0,0.2481898465808974,0.6989387752561839,0.4281557323633343
0942,cdot_cos,R,Q-R,162,32,35398,0.08616281180332244,0.08525357804595286,0.0890825755838506,0.9026537116942357,1059.0,4.810020608102693,0.593368520656009,7.552356182426306,-0.11925428445030706,0.06,0.9999999999975672,-62.025072825008905,0.8046855601044002,162,2026-10-07 23:46:51.482244,25.0,0.5695576389813551,0.74389994388356,1.195990242383808
0942,cdot_cos,S,R-S,163,32,35434,-0.038578164121468264,-0.06574168388889422,-0.1247409759247907,0.04234957608669748,1059.0,4.827529186825692,0.5934192749241365,7.576278055541045,-0.029367736442607092,0.036,0.9999999999974812,1771.0145633837985,0.8096526844028307,163,2026-10-07 23:46:51.518244,25.0,0.04685374126713196,0.5979830324919716,0.48634940897218654
0942,cdot_cos,T,S-T,164,32,35705,-0.10224100459072046,0.06974329994237599,-0.06366284046925219,0.16916298138182287,1059.0,4.853075386442115,0.5936219900639608,7.602078640983998,-0.04303416860157313,0.271,0.9999999999974073,-67.41692885303151,0.8146200430909107,164,2026-10-07 23:46:51.789243,25.0,0.7279145199433893,0.18847976324349106,0.09426641924879423
0942,cdot_cos,P,T-P,165,33,36323,0.03564564114989046,-5.881504697522749e-05,0.1378866457406109,0.9691465165165946,1059.0,4.929685218503664,0.5947827425671868,7.640130819217521,-0.13029765396062426,0.618,0.9999999999973876,-75.17837361239836,0.8195877552454345,165,2026-10-07 23:46:52.407244,25.0,0.511849752801795,0.0882778597832284,0.12396412954943191
0942,cdot_cos,Q,P-Q,166,33,36412,-0.0031796077403815977,-0.0018829656579048525,-0.03882524889027206,0.2747547041052325,1059.0,4.9621868211341855,0.5951116257916559,7.667485652950857,-0.055880646883330484,0.089,0.9999999999972947,226.27182398074203,0.8245549314059414,166,2026-10-07 23:46:52.496243,25.0,0.2640244900726372,0.5938810573378469,0.36518654641035253
0942,cdot_cos,R,Q-R,167,33,36466,0.08840616877010235,0.09711346127380854,0.09158577651048395,0.9080157546136084,1059.0,5.035396046709801,0.5961979179930773,7.7045838274265765,-0.1271054550851788,0.054,0.999999999997268,-65.56689637341587,0.8295220726414955,167,2026-10-07 23:46:52.550244,25.0,0.571003486304089,0.8428832183370933,1.355726399548433
0942,cdot_cos,S,R-S,168,33,36486,-0.03569465019135742,-0.07135029225162394,-0.12410081896145977,0.04300340750263824,1059.0,5.053218208714592,0.5962493412391167,7.72828353615669,-0.031223211201786984,0.02,0.9999999999971749,1864.5700392001731,0.834489179057758,168,2026-10-07 23:46:52.570244,25.0,0.0463810514676621,1.1003553488772466,0.8911081002395349
0942,cdot_cos,T,S-T,169,33,36763,-0.09825760608913925,0.06097855567289404,-0.06256295589778182,0.17306284624898502,1059.0,5.079410260664891,0.5964562674830435,7.753940261561129,-0.046079239001353724,0.277,0.999999999997096,-71.79383106582004,0.8394565574233651,169,2026-10-07 23:46:52.847244,25.0,0.7244070933400328,0.1877454965529691,0.09455614422490673
0942,cdot_cos,P,T-P,170,34,37382,0.04060938993206009,-0.0007798590884979628,0.13886699602119934,0.9698709997266791,1099.0,5.1572292138049365,0.5976152773202772,7.7919589340731905,-0.1381816304891903,0.619,0.9999999999970755,-79.46644500245432,0.8444243052740418,170,2026-10-07 23:46:53.466244,25.0,0.5134865873231138,0.08870356529192625,0.1257172102424002
0942,cdot_cos,Q,P-Q,171,34,37472,-0.0013587504679160604,-0.0007828248538219964,-0.04196814039997615,0.25937807808905555,1099.0,5.1892252744962954,0.5979250537013584,7.818894280420588,-0.057409826369711224,0.09,0.9999999999969745,260.7422936427979,0.849391484711121,171,2026-10-07 23:46:53.556243,25.0,0.24489311393109056,0.5953174272033223,0.35551178545954404
0942,cdot_cos,R,Q-R,172,34,37520,0.09698944386516183,0.09266080646308421,0.09834819433307788,0.9211956943462801,1099.0,5.2643863507015345,0.5990246085218913,7.8561437722721275,-0.13613383120782907,0.048,0.9999999999969469,-71.59625274523613,0.8543586193906793,172,2026-10-07 23:46:53.604243,25.0,0.5608600248124826,0.9652813546504879,1.5658557542758134
0942,cdot_cos,S,R-S,173,34,37538,-0.03681971558697144,-0.05853369539383763,-0.13380915945213326,0.03405174502549254,1099.0,5.281892284542742,0.5990652342368009,7.879482643413062,-0.0319872472198394,0.018,0.9999999999968469,2563.5631082371215,0.8593257215916292,173,2026-10-07 23:46:53.622243,25.0,0.03854695013981445,1.2534837210372236,0.9725518800671
0942,cdot_cos,T,S-T,174,34,37802,-0.09511020655383758,0.07385323384961993,-0.058290490966866136,0.18888641041301307,1099.0,5.3095117646588745,0.5992905619895488,7.905195139051379,-0.050673449651268535,0.264,0.9999999999967634,-82.92898767928835,0.8642930994665868,174,2026-10-07 23:46:53.886244,25.0,0.6915932676546217,0.20205443764087,0.10461924286413729
0942,cdot_cos,P,T-P,175,35,38481,0.04588399530379859,-0.0022056761391892874,0.14099420185763617,0.9713867570593735,1099.0,5.388577027617122,0.6004486908101939,7.943199494816552,-0.14638099688161943,0.679,0.9999999999967426,-82.63981132689226,0.8692609511389067,175,2026-10-07 23:46:54.565243,25.0,0.5200527943484448,0.08079696906680518,0.1164436862418956
0942,cdot_cos,Q,P-Q,176,35,38570,-0.0020247594062746187,-0.0011631992904306,-0.047908754710073206,0.23188126579188978,1099.0,5.419234048651596,0.600724984118309,7.969528144479563,-0.05732709353243361,0.089,0.9999999999966299,322.3165409134564,0.874228131458416,176,2026-10-07 23:46:54.654243,25.0,0.21152019039178946,0.5884868469300291,0.34446091049971145
0942,cdot_cos,R,Q-R,177,35,38620,0.08102329876850996,0.07893357490549359,0.08304805817478457,0.8885684768158774,1099.0,5.493327686370667,0.6017831445877735,8.006214718731627,-0.13976923777952555,0.05,0.9999999999965972,-77.9108146884502,0.8791952678518734,177,2026-10-07 23:46:54.704243,25.0,0.5544133779716311,0.9291318882804678,1.481872754381417
0942,cdot_cos,S,R-S,178,35,38638,-0.03662670030989855,-0.05856429979528535,-0.11764999907840851,0.05015169516653688,1099.0,5.512147237479643,0.6018428399780557,8.029595721527473,-0.035801413016600815,0.018,0.9999999999964896,1741.6390825404285,0.8841623675622313,178,2026-10-07 23:46:54.722244,25.0,0.05480276869738295,1.382532708371779,1.0455306171653296
0942,cdot_cos,T,S-T,179,35,38921,-0.08426540352097456,0.06565446830144886,-0.04763870321107601,0.23308592947377438,1099.0,5.543098863872051,0.6021202415814295,8.055830514325505,-0.059133196631787024,0.283,0.9999999999964031,-84.108322848233,0.8891297810483536,179,2026-10-07 23:46:55.005243,25.0,0.6739743632518218,0.19240149414534488,0.10936970456681314
0942,cdot_cos,P,T-P,180,36,39580,0.0241431687350831,0.0001585124277988245,0.10840857225605766,0.9376266830524191,1079.0,5.621046483165908,0.603235471152168,8.093264122489492,-0.15024234157224386,0.659,0.9999999999963762,-81.69541709705938,0.8940976484649459,180,2026-10-07 23:46:55.664243,25.0,0.5453025123023307,0.08712678050265771,0.11828166812421406
0942,cdot_cos,Q,P-Q,181,36,39669,-0.0062671077273087124,-0.0039026421283416615,-0.030410276462391812,0.3185904905297273,1079.0,5.657931960574554,0.6036141647979385,8.120809775890374,-0.0718037421172068,0.089,0.999999999996264,207.12943121992015,0.8990648308702327,181,2026-10-07 23:46:55.753243,25.0,0.3354096468059144,0.6241356054601247,0.4144435663892785
0942,cdot_cos,R,Q-R,182,36,39727,0.0713963990235909,0.0798724714629826,0.07766350675089961,0.87452646188417,1079.0,5.73214262093781,0.6046530341378812,8.157227196433448,-0.14575443924926856,0.058,0.9999999999962268,-71.18382869605315,0.904031976735143,182,2026-10-07 23:46:55.811244,25.0,0.6020799874482026,0.8131362112204547,1.279494144194076
0942,cdot_cos,S,R-S,183,36,39748,-0.03506015477709483,-0.06872469101957308,-0.10645655380068574,0.06528899858321068,1079.0,5.7522557610761265,0.60473055461652,8.180655144852496,-0.0398279319239964,0.021,0.9999999999961119,1366.4325760778843,0.9089990776314733,183,2026-10-07 23:46:55.832243,25.0,0.06997596139310641,0.9693839361893359,0.9577685780150634
0942,cdot_cos,T,S-T,184,36,40039,-0.13683014938851867,0.07336480104568381,-0.10176999461142384,0.0728137355552124,1079.0,5.772856746257762,0.604817003332809,8.204148817723658,-0.04093547834916706,0.291,0.9999999999960009,-12.811600596461826,0.9139665156626944,184,2026-10-07 23:46:56.123244,25.0,0.9733068270039744,0.1770287017015774,0.07079376351077588
0942,cdot_cos,P,T-P,185,37,40659,0.0402518091970752,0.00029104115863435724,0.1770819585855939,0.9881914074744794,1039.0,5.8552864654664445,0.605989591735897,8.242361699650363,-0.16508640714246484,0.62,0.9999999999959769,-105.87767068678954,0.9189343720567569,185,2026-10-07 23:46:56.743244,25.0,0.47140577137593564,0.09321928302115806,0.13295116001400364
0942,cdot_cos,Q,P-Q,186,37,40748,-0.002381410564859402,-0.0014685172457696368,-0.042633219761934606,0.2561968172499681,1039.0,5.888448657203998,0.6062933964387599,8.26875237180386,-0.06705780946104063,0.089,0.9999999999958508,322.66978344191426,0.9239015564933086,186,2026-10-07 23:46:56.832243,25.0,0.2318065545666316,0.6094904158835427,0.37260889592757024
0942,cdot_cos,R,Q-R,187,37,40804,0.07591416946023372,0.08736983262305947,0.07829558002509311,0.8762501587205577,1039.0,5.963775759493715,0.6073318536864588,8.305151125485322,-0.15358440162266662,0.056,0.999999999995812,-83.32224783770157,0.9288686997990262,187,2026-10-07 23:46:56.888243,25.0,0.5692808506848571,0.85322025689171,1.3451268266020864
0942,cdot_cos,S,R-S,188,37,40835,-0.031886924263643944,-0.06302137071925713,-0.10780109372387767,0.06326741961395027,1039.0,5.98400932597587,0.6074067954202972,8.32835535464275,-0.041584044937612474,0.031,0.9999999999956879,1494.4991388457074,0.933835811488196,188,2026-10-07 23:46:56.919244,25.0,0.06765396872082004,0.7182706741746975,0.6526956929727318
0942,cdot_cos,T,S-T,189,37,41099,-0.11042598567677757,0.060724848449776075,-0.07853906141313363,0.12309129895052098,1039.0,6.008308541292546,0.6075525854354665,8.35248011043711,-0.050119316715298116,0.264,0.999999999995574,-58.54496803345112,0.9388032292067436,189,2026-10-07 23:46:57.183244,25.0,0.8434125604866954,0.2019652458978434,0.09204248226013848
0942,cdot_cos,P,T-P,190,38,41698,0.029632797368456542,0.0018476716458090002,0.14005878304523411,0.9707295542227203,1078.0,6.090646975809931,0.6087016491966342,8.390386480247741,-0.1711619463192148,0.599,0.9999999999955475,-105.34022018144388,0.9437710946689168,190,2026-10-07 23:46:57.782243,25.0,0.49303165636090357,0.09969762779141046,0.13745982390214484
0942,cdot_cos,Q,P-Q,191,38,41807,-0.002894458088315908,-0.0021443911141527036,-0.03252725545677245,0.3072129761908214,1078.0,6.127746299386656,0.609065050490387,8.417460486319778,-0.07785608869176952,0.109,0.9999999999954217,256.75708708654025,0.9487383084312285,191,2026-10-07 23:46:57.891244,25.0,0.30166441562318974,0.5191718667505227,0.3403607667589446
0942,cdot_cos,R,Q-R,192,38,41852,0.07407842108010396,0.08998760999432263,0.07697287916841987,0.8726196158187424,1078.0,6.203826442761545,0.6100966087159879,8.453760706463747,-0.16098656526201277,0.045,0.9999999999953799,-80.58728485424338,0.9537054369146656,192,2026-10-07 23:46:57.936243,25.0,0.5966757451840342,1.0729322292075536,1.6906698527753112
0942,cdot_cos,S,R-S,193,38,41886,-0.03388752070174032,-0.0848400174869044,-0.10796594178184428,0.06302361719518393,1078.0,6.224310200015336,0.6101710734276674,8.476781601253423,-0.043680316181520684,0.034,0.9999999999952478,1575.3267075739304,0.95867255130715,193,2026-10-07 23:46:57.970243,25.0,0.06818278360680763,0.7185386677679166,0.6024634486409062
0942,cdot_cos,T,S-T,194,38,42157,-0.0952525407743806,0.053424187752731736,-0.061365020072640275,0.1773908772869175,1078.0,6.252687072169763,0.6103806396613204,8.501632693514752,-0.06073796663832826,0.271,0.9999999999951328,-81.3950327754292,0.963639993169948,194,2026-10-07 23:46:58.241244,25.0,0.755149150846219,0.20501325546673332,0.10471170536689123
0942,cdot_cos,P,T-P,195,39,42776,0.032729816167916814,0.0018707141404701493,0.12798235694229743,0.9608176753421805,1059.0,6.335427384478305,0.6115150214618933,8.53935702174627,-0.17848568968880196,0.619,0.9999999999951048,-103.79902338966201,0.9686079244150063,195,2026-10-07 23:46:58.860243,25.0,0.5170043462318443,0.09632639073012714,0.1336677097068529
0942,cdot_cos,Q,P-Q,196,39,42866,-0.0027567006457593964,-0.0016582491883995669,-0.03548651681367621,0.29169564786845953,1059.0,6.371939143893661,0.6118591713270399,8.566043695159989,-0.07948284711821678,0.09,0.9999999999949682,287.67363464867736,0.9735751150229154,196,2026-10-07 23:46:58.950243,25.0,0.2877717862455387,0.6310021905017098,0.4056862157261717
0942,cdot_cos,R,Q-R,197,39,42926,0.07420378279875034,0.08894574378428062,0.07696048344450973,0.8725851657908835,1059.0,6.449007778768613,0.6128880021747185,8.602308410750059,-0.16910626814586838,0.06,0.9999999999949252,-87.11191079648846,0.978542264413019,197,2026-10-07 23:46:59.010243,25.0,0.5886150675325426,0.8154311360470586,1.2844772479158717
0942,cdot_cos,S,R-S,198,39,42946,-0.03346485566559189,-0.0983668992461032,-0.10766863846434223,0.06346395153212192,1059.0,6.469790880219308,0.6129627908666617,8.62516642203478,-0.0459476987690954,0.02,0.999999999994784,1646.7538898832486,0.9835093571526945,198,2026-10-07 23:46:59.030244,25.0,0.06853520098754233,1.289585799383497,1.0391550725347365
0942,cdot_cos,T,S-T,199,39,43236,-0.08726303152154073,0.04634029592963062,-0.05379817585594884,0.20669649049907415,1059.0,6.500591210743953,0.6132063340986317,8.650355261853358,-0.06834999119072258,0.29,0.9999999999946658,-91.98486954624455,0.9884768418872532,199,2026-10-07 23:46:59.320243,25.0,0.720536989049654,0.1950919337851367,0.10620803629187983
0942,cdot_cos,P,T-P,200,40,43835,0.022875252754768222,-0.0004900815774806168,0.11013828427630895,0.9401082975654359,1021.0,6.582944201814687,0.6143133149163659,8.687717993039449,-0.18415064069915565,0.599,0.9999999999946323,-104.60944548746369,0.9934447836785498,200,2026-10-07 23:46:59.919244,25.0,0.5332118173221768,0.09902695761115067,0.13748412532676815
0942,cdot_cos,Q,P-Q,201,40,43924,-0.014557200281769008,-0.006883863803947592,-0.03743245303653723,0.2817472111949005,1021.0,6.6192255059621115,0.6146448436631706,8.714111246340106,-0.08183854342287195,0.089,0.9999999999944867,308.6070160200552,0.9984119753650862,201,2026-10-07 23:47:00.008243,25.0,0.2864560761244825,0.652515959253197,0.4076551027800491
0942,cdot_cos,R,Q-R,202,40,43973,0.0726086105274945,0.0790703164835075,0.0871658108092635,0.8983610546038064,1021.0,6.699092042561756,0.6157012233196699,8.75077525709886,-0.1815504719361341,0.049,0.9999999999944458,-94.39023924759636,1.0033791087193116,202,2026-10-07 23:47:00.057244,25.0,0.5773975314472213,1.024713217350648,1.629929318360096
0942,cdot_cos,S,R-S,203,40,44007,-0.04005447658698445,-0.1318255484335419,-0.11266308711447895,0.05643492244597364,1021.0,6.719647401262475,0.6157675486463016,8.773353833074294,-0.047075188231789654,0.034,0.9999999999942945,2027.510312179679,1.0083462204402687,203,2026-10-07 23:47:00.091244,25.0,0.05746343801362692,0.9111412096883754,0.6045693735505524
0942,cdot_cos,T,S-T,204,40,44275,-0.0647142149905513,0.03258122600242724,-0.024659738403566847,0.35057937867206657,1021.0,6.761049644820566,0.6161794716904084,8.800819933870857,-0.09521730639704051,0.268,0.9999999999941891,-116.87163137384785,1.0133136893391599,204,2026-10-07 23:47:00.359244,25.0,0.6031420094418547,0.23102046898779605,0.15448598342571174
0942,cdot_cos,P,T-P,205,41,44856,0.036493726930201816,-0.0009396050497379164,0.10120794192075311,0.9262319206070467,1037.0,6.843474372639934,0.6172669706864502,8.837935136344257,-0.19109705156689372,0.581,0.9999999999941528,-88.16536430730702,1.018281645356114,205,2026-10-07 23:47:00.940243,25.0,0.6054802996403994,0.10181567803204306,0.14186700141027184
0942,cdot_cos,Q,P-Q,206,41,44943,-0.003400486537646371,-0.002050967488815211,-0.03989421346784819,0.2694617113663978,1037.0,6.8793594626938,0.617583128817265,8.864003410022136,-0.08389470770918082,0.087,0.999999999994,339.07824410982545,1.0232488370862287,206,2026-10-07 23:47:01.027244,25.0,0.2786440548461281,0.6669281660976933,0.4124722994697252
0942,cdot_cos,R,Q-R,207,41,44997,0.07954379704673475,0.08795363243212441,0.08294428358438112,0.8883113379111037,1037.0,6.959519873540932,0.6186246743024041,8.900477199861461,-0.18879252521325127,0.054,0.9999999999939562,-100.71362124915586,1.0282159784721365,207,2026-10-07 23:47:01.081243,25.0,0.573713667225161,0.9305686198321156,1.4844520527246767
0942,cdot_cos,S,R-S,208,41,45030,-0.038600199015150556,-0.0864276095103864,-0.1181439960618853,0.04956664568395798,1037.0,6.979860873635668,0.6186827591973645,8.922787747731,-0.04825192960880646,0.033,0.9999999999937961,2419.5721744915995,1.0331830875602372,208,2026-10-07 23:47:01.114244,25.0,0.05433199624908617,0.7935849653994022,0.6163939422647254
0942,cdot_cos,T,S-T,209,41,45294,-0.09093746608243782,0.04918781910887455,-0.05233726706728726,0.21274939969976003,1037.0,7.011896481257293,0.6189320319605462,8.94781469644068,-0.07625966898424835,0.264,0.9999999999936644,-112.3578004188907,1.038150566284535,209,2026-10-07 23:47:01.378243,25.0,0.6926239672657316,0.22143128374518647,0.12134699856675987
0942,cdot_cos,P,T-P,210,42,45893,0.023920388498789896,0.0013226652205021844,0.11485785458122771,0.9464167435399942,1078.0,7.096776591453127,0.6200401622063118,8.985254072629456,-0.203513727727631,0.599,0.9999999999936308,-114.83673442689461,1.0431185900217428,210,2026-10-07 23:47:01.977243,25.0,0.5351089599053054,0.10361594912695979,0.14170302202977272
0942,cdot_cos,Q,P-Q,211,42,46002,-0.008074576278578927,-0.005300532099323701,-0.03199496477736882,0.3100524465899277,1078.0,7.136028388311391,0.620402921748683,9.011892426248865,-0.09490540366199683,0.109,0.999999999993475,299.39480945342206,1.048085820320318,211,2026-10-07 23:47:02.086244,25.0,0.31841967329210624,0.551840119565836,0.36010822805746756
0942,cdot_cos,R,Q-R,212,42,46046,0.0743917551542507,0.08967506360668273,0.08246633143282962,0.8871203337318707,1078.0,7.217077737518479,0.6214401031200287,9.048324042068966,-0.1974119209338131,0.044,0.9999999999934274,-98.83181486263086,1.053052945210305,212,2026-10-07 23:47:02.130244,25.0,0.5949654684325244,1.1632356393108365,1.842030663797461
0942,cdot_cos,S,R-S,213,42,46065,-0.03601843788304517,-0.09356673492677997,-0.11041019303729588,0.05951010211209966,1078.0,7.238393124570744,0.6215096400508129,9.070654163761608,-0.0522844542119306,0.019,0.9999999999932594,2087.055972780378,1.0580200295135476,213,2026-10-07 23:47:02.149244,25.0,0.06230405130871837,1.4008936507173189,1.121862476435017
0942,cdot_cos,T,S-T,214,42,46352,-0.09005878592444716,0.052257475735175474,-0.05404034804140199,0.2057055104528901,1078.0,7.270311696245737,0.6217499662943091,9.095437453004672,-0.07856174130685066,0.287,0.999999999993119,-109.34006504092677,1.0629875628254357,214,2026-10-07 23:47:02.436243,25.0,0.7157105609868556,0.20703777916385321,0.11121453545293657
0942,cdot_cos,P,T-P,215,43,46971,0.037540048692612425,0.0003831547845760459,0.1275988346170596,0.960455113901089,1059.0,7.357232809810796,0.6228712754040475,9.133105718131524,-0.21544115514419054,0.619,0.9999999999930852,-122.07107981961698,1.067955661887921,215,2026-10-07 23:47:03.055244,25.0,0.5297528073769252,0.10015762697946405,0.1404218312844248
0942,cdot_cos,Q,P-Q,216,43,47061,-0.0014995244906419773,-0.0009131229209378035,-0.039039573183254406,0.27368831279123523,1059.0,7.3943068384463135,0.6231905600971273,9.15901436964744,-0.09263902237105152,0.09,0.9999999999929122,384.61641110515575,1.0729228637075823,216,2026-10-07 23:47:03.145243,25.0,0.2656439704216285,0.6589298019557087,0.41193365150575073
0942,cdot_cos,R,Q-R,217,43,47117,0.07843776706240983,0.08947311490777866,0.0799372915530518,0.880632380073282,1059.0,7.4758401741628235,0.6242171787970263,9.19531439084655,-0.20514792690522746,0.056,0.9999999999928616,-109.59171554661714,1.0778900085851109,217,2026-10-07 23:47:03.201244,25.0,0.5778573837282889,0.9199431611307937,1.4559524235091073
0942,cdot_cos,S,R-S,218,43,47139,-0.03265751573136304,-0.08550555600936026,-0.11109528279377287,0.0585587142806579,1059.0,7.497340472492962,0.6242854055985844,9.217484758618086,-0.05446834867445278,0.022,0.999999999992682,2208.510069207596,1.082857095378901,218,2026-10-07 23:47:03.223244,25.0,0.06288991290722244,1.2414415062059254,0.977286287733586
0942,cdot_cos,T,S-T,219,43,47431,-0.08399880563007414,0.047433222882156165,-0.051341289898711104,0.21694955681039793,1059.0,7.530463600435884,0.6245381306800588,9.242341517682519,-0.08419685862387022,0.292,0.9999999999925343,-117.6318146816909,1.0878246550449617,219,2026-10-07 23:47:03.515244,25.0,0.7025186272724577,0.20739927320527124,0.1134353696675405
0942,cdot_cos,P,T-P,220,44,48030,0.04449138981886462,0.0016433272078832195,0.12849019544893875,0.9612928547075452,1039.0,7.618461648044841,0.6256571254145771,9.280016516603991,-0.2252188933161444,0.599,0.9999999999924976,-126.0256463610486,1.09279276185162,220,2026-10-07 23:47:04.114244,25.0,0.5346433245164446,0.10262003309419983,0.14690825978122968
0942,cdot_cos,Q,P-Q,221,44,48140,-0.001855961283532006,-0.0014653225630761432,-0.04634735110239663,0.23890653189444017,1039.0,7.653402400082736,0.6259350172060093,9.305215731181097,-0.09012489722667176,0.11,0.9999999999923092,486.13885064114754,1.0977600020887388,221,2026-10-07 23:47:04.224244,25.0,0.22336139409576802,0.5252619423088452,0.31764320034449833
0942,cdot_cos,R,Q-R,222,44,48187,0.06930692855719134,0.09280987465807668,0.07116288984072335,0.8555822692808237,1039.0,7.734019275352787,0.6269295327803327,9.3410625258333,-0.2092885119501292,0.047,0.9999999999922494,-119.82076279150147,1.1027271306153932,222,2026-10-07 23:47:04.271244,25.0,0.5658790884713669,1.1098163835072057,1.7152526653202367
0942,cdot_cos,S,R-S,223,44,48219,-0.02573268455991792,-0.05562276801279304,-0.09503961311710926,0.08502197252437316,1039.0,7.757725140132413,0.6270283025463308,9.363552248995063,-0.06195316499993233,0.032,0.9999999999920635,1491.704930768347,1.1076942330222614,223,2026-10-07 23:47:04.303244,25.0,0.0927198179580658,0.7078079891088968,0.7408082743633193
0942,cdot_cos,T,S-T,224,44,48490,-0.1381536980641071,0.05274289096957822,-0.11242101350418918,0.0567580494838254,1039.0,7.779318986655756,0.6270942323014368,9.385509981615717,-0.05659456398372785,0.271,0.9999999999918763,81.2774294032982,1.112661771594953,224,2026-10-07 23:47:04.574244,25.0,0.9096603205072423,0.2080444999376633,0.07968209049204122
0942,cdot_cos,P,T-P,225,45,49069,0.04887543777577512,0.00257422405643317,0.18702913583988223,0.9907673021283825,1059.0,7.8704852590986265,0.6282443377985613,9.423688433878196,-0.24036610366784722,0.579,0.9999999999918432,-159.78668056416697,1.117629880573687,225,2026-10-07 23:47:05.153243,25.0,0.46554408505957956,0.10829554652153965,0.15745470197386935
0942,cdot_cos,Q,P-Q,226,45,49158,-0.0007068395373498006,-0.0004203345634271831,-0.049582277313124916,0.2245131174011673,1059.0,7.904725229527699,0.6285047565653655,9.44852272829477,-0.09097342219114535,0.089,0.9999999999916439,573.663270546797,1.1225970856597252,226,2026-10-07 23:47:05.242244,25.0,0.1935619944208595,0.6689215998923389,0.3847187688659839
0942,cdot_cos,R,Q-R,227,45,49217,0.0872116471057714,0.10120338584927466,0.0879184866431212,0.9000663634041944,1059.0,7.989553303879463,0.6295480169909915,9.485121812066907,-0.22682197643809796,0.059,0.9999999999915913,-130.21538142352307,1.1275642362738825,227,2026-10-07 23:47:05.301243,25.0,0.5494038587024398,0.9028535199380447,1.4377639720637927
0942,cdot_cos,S,R-S,228,45,49237,-0.026494472078366523,-0.049189103800891955,-0.11370611918413792,0.055062338936342256,1059.0,8.011261944880388,0.6296118002321132,9.506954307597432,-0.058431783432025694,0.02,0.9999999999913894,2640.038198825294,1.1325313143211946,228,2026-10-07 23:47:05.321243,25.0,0.05603239236854513,0.9861232582927482,1.0854320500462755
0942,cdot_cos,T,S-T,229,45,49528,-0.2661973422099457,0.0513543265701471,-0.23970287013157915,0.00249101287552033,1059.0,8.028998234211173,0.6296146856705418,9.527823678997569,-0.04785720337611374,0.291,0.9999999999911825,3664.808769083772,1.1374989064972607,229,2026-10-07 23:47:05.612243,25.0,0.8017478717800786,0.18991742991652938,0.0609494478721114
0942,cdot_cos,P,T-P,230,46,50128,0.027832644779630093,-0.00013627813250588583,0.2940299869895758,0.9993583012360878,1058.0,8.121793889091808,0.630771533244009,9.566149044514782,-0.25178660281231363,0.6,0.9999999999911487,-176.28026726545733,1.1424670932321161,230,2026-10-07 23:47:06.212243,25.0,0.4448894260873601,0.11061825428536398,0.1546594248010595
0942,cdot_cos,Q,P-Q,231,46,50217,-0.006930236213299087,-0.0036722349846392112,-0.03476288099292918,0.2954474310139691,1058.0,8.16174013935361,0.6311132534024554,9.592117273098209,-0.10923683480894929,0.089,0.9999999999909516,417.15352308003133,1.147434300561589,231,2026-10-07 23:47:06.301243,25.0,0.27118321322536304,0.7058374801771379,0.44883427260450676
0942,cdot_cos,R,Q-R,232,46,50268,0.08068903094426796,0.08622178011334161,0.08761926715756706,0.8993915002289508,1058.0,8.247432960563339,0.6321526963018508,9.62868937429584,-0.23586558243583466,0.051,0.9999999999908964,-121.82366891008712,1.1524014356693764,232,2026-10-07 23:47:06.352243,25.0,0.5845761221927863,1.0511393037265762,1.6802513962692047
0942,cdot_cos,S,R-S,233,46,50299,-0.037346076062647504,-0.09383946888532906,-0.11803510700691547,0.04969504656932234,1058.0,8.26895634833372,0.6322100940744354,9.650294678157257,-0.059625408314209115,0.031,0.9999999999906822,3070.505460151669,1.1573685326462813,233,2026-10-07 23:47:06.383244,25.0,0.05203754473445773,1.0197060793768833,0.6943028313026232
0942,cdot_cos,T,S-T,234,46,50568,-0.06832600602217356,0.042757916569000444,-0.03097992995952606,0.31550684893555725,1058.0,8.310654737484706,0.632574416994307,9.676554303971743,-0.11590940694407699,0.269,0.999999999990526,-154.4893158237104,1.1623361005461303,234,2026-10-07 23:47:06.652243,25.0,0.6153364330307639,0.24340084666256634,0.15501259907429535
0942,cdot_cos,P,T-P,235,47,51186,0.041127073817868856,0.0025863430690858803,0.10945307984004242,0.9391364892425274,1039.0,8.399906003838181,0.633657962057995,9.71381952005462,-0.24974160753775076,0.618,0.999999999990481,-123.51327607747874,1.1673043699705363,235,2026-10-07 23:47:07.270243,25.0,0.5851525628524007,0.10261429764688391,0.14441952484381107
0942,cdot_cos,Q,P-Q,236,47,51277,-0.0010342667520453885,-0.000627857216062087,-0.042161340569914246,0.2584513079034309,1039.0,8.437486009376254,0.6339559182055623,9.739043785490017,-0.10591761019155431,0.091,0.9999999999902655,482.70189596841107,1.1722715843670002,236,2026-10-07 23:47:07.361243,25.0,0.2572040354054055,0.6787958626684154,0.4129670938249811
0942,cdot_cos,R,Q-R,237,47,51337,0.08284542967468256,0.10234312478960124,0.08387969642672795,0.8906105131877232,1039.0,8.523446850843833,0.6349818743830973,9.775449983672786,-0.24376421934758158,0.06,0.9999999999902056,-134.35915897229168,1.177238737633904,237,2026-10-07 23:47:07.421243,25.0,0.5680808311691067,0.9073259306798587,1.4326806911263055
0942,cdot_cos,S,R-S,238,47,51356,-0.02402242483450412,-0.04763083926935441,-0.10686785450918668,0.06466429200213265,1039.0,8.546365121057837,0.635056318089599,9.797200060586526,-0.06540229756575092,0.019,0.9999999999899813,2395.930162045723,1.18220580809265,238,2026-10-07 23:47:07.440243,25.0,0.06540538378975078,1.1353246810043192,1.2062247481055117
0942,cdot_cos,T,S-T,239,47,51646,-0.16333638204447726,0.07369300119810777,-0.13931395720997314,0.029804189976893353,1039.0,8.566589188721997,0.6350906275007301,9.818291172157224,-0.05785736628464682,0.29,0.9999999999897573,219.90850417879378,1.1871734358822197,239,2026-10-07 23:47:07.730243,25.0,0.8777392457405537,0.19742126079679864,0.06973816435917037
0942,cdot_cos,P,T-P,240,48,52225,0.03217659685860223,0.0020140046492074675,0.1955129789030795,0.9925185900490691,1019.0,8.66086945231998,0.636232390292513,9.856498699104643,-0.27115996895391625,0.579,0.9999999999897198,-186.8186668933124,1.1921416665036018,240,2026-10-07 23:47:08.309243,25.0,0.4553767713289056,0.11625982787759834,0.1628329250396957
0942,cdot_cos,Q,P-Q,241,48,52317,-0.0037480638937912405,-0.002344961071344267,-0.03592466075239347,0.28943770706991057,1019.0,8.701218069404256,0.6365650623456058,9.882177360410056,-0.11690795423453056,0.092,0.9999999999895021,463.67590329668366,1.1971088857072094,241,2026-10-07 23:47:08.401243,25.0,0.26728726345626486,0.6816846591043955,0.43857192482907675
0942,cdot_cos,R,Q-R,242,48,52377,0.07148138079005291,0.0936948625525311,0.07522944468384415,0.8676956555059906,1019.0,8.78629942959519,0.6375615850832995,9.918160885592904,-0.2480062929628809,0.06,0.9999999999894351,-131.55579272757956,1.202076039317315,242,2026-10-07 23:47:08.461244,25.0,0.5894243359258544,0.9041048811322838,1.4180226698488951
0942,cdot_cos,S,R-S,243,48,52413,-0.03314106160181067,-0.09631999197446067,-0.10462244239186358,0.0681436268302714,1019.0,8.80971065514013,0.6376397960975659,9.939851028522755,-0.06865917442559419,0.036,0.9999999999892007,2293.1184337587424,1.2070431431488264,243,2026-10-07 23:47:08.497243,25.0,0.07337762313060962,0.7182750178767153,0.6503118206927876
0942,cdot_cos,T,S-T,244,48,52684,-0.10868129435411518,0.047150849036001447,-0.07554023275230451,0.1314149289091688,1019.0,8.838015230882313,0.6377906053946477,9.962638069573968,-0.08323910612035625,0.271,0.9999999999889854,-96.67793681748924,1.2120107489729195,244,2026-10-07 23:47:08.768243,25.0,0.8393250388904937,0.2256635593718645,0.10444492893794519
0942,cdot_cos,P,T-P,245,49,53244,0.04016736830538115,-0.0010158958092377484,0.14884866265949634,0.9763675091691163,1019.0,8.93202030431968,0.6389102152440688,10.00055757504077,-0.27799586314890373,0.56,0.9999999999889444,-173.95055708848517,1.2169789812388132,245,2026-10-07 23:47:09.328243,25.0,0.49630019708463374,0.11809375205002866,0.16786620256672752
0942,cdot_cos,Q,P-Q,246,49,53336,-0.002236429705842663,-0.001408167338825224,-0.04240379801122381,0.25729130999346284,1019.0,8.970280233178345,0.6392050030641945,10.025570846197525,-0.11394562479606404,0.092,0.9999999999887119,556.502769628958,1.2219462036335618,246,2026-10-07 23:47:09.420243,25.0,0.23699318547794518,0.6924916289565805,0.41586879194200754
0942,cdot_cos,R,Q-R,247,49,53383,0.08972081540183868,0.09944003136146672,0.09195724510768134,0.908788476746856,1019.0,9.059438764047691,0.6402453937705481,10.062278429717999,-0.26708430451405607,0.047,0.999999999988653,-147.1934329889505,1.2269133293640548,247,2026-10-07 23:47:09.467244,25.0,0.5636216607192184,1.1776310591161097,1.8969900184967257
0942,cdot_cos,S,R-S,248,49,53413,-0.036225088941773946,-0.10227832687952765,-0.12594590434361264,0.041144599272714466,1019.0,9.08097755273526,0.6402924654559276,10.083368107204377,-0.06491436789052309,0.03,0.9999999999884025,4294.9372854170615,1.231880418780411,248,2026-10-07 23:47:09.497243,25.0,0.044404711790127206,0.9324773244866987,0.71795962291894
0942,cdot_cos,T,S-T,249,49,53683,-0.09027524801678627,0.046235345061603546,-0.05405015907501232,0.20566543754135108,1019.0,9.115387403516893,0.6405277175505089,10.107389176038582,-0.10399556043509953,0.27,0.9999999999881961,-166.12473786527516,1.236848040661323,249,2026-10-07 23:47:09.767244,25.0,0.6867419062902698,0.23688189848539584,0.1274438917838286
0942,cdot_cos,P,T-P,250,50,54263,0.03455410291479449,-0.0017168751494712148,0.12482935093158076,0.9577399369854062,1038.0,9.208893777917373,0.6416223451949103,10.144972873584498,-0.28420532945762045,0.58,0.9999999999881513,-164.63111446546196,1.2418163603397685,250,2026-10-07 23:47:10.347244,25.0,0.5304216599764235,0.11548244981677855,0.1612178868973794
0942,cdot_cos,Q,P-Q,251,50,54352,-0.0031896204637970197,-0.0019432071574923874,-0.03774372337859151,0.28017512796584526,1038.0,9.249347045304356,0.6419422869034496,10.17031268991174,-0.12380461763247928,0.089,0.9999999999879138,501.3435496031293,1.246783579383982,251,2026-10-07 23:47:10.436243,25.0,0.2737347926877483,0.7282073016115492,0.4545310942357649
0942,cdot_cos,R,Q-R,252,50,54401,0.08355554892137614,0.08905700647330819,0.08674516938517315,0.897396821019504,1038.0,9.338514677604229,0.6429662036990528,10.206806357569478,-0.27445917661790753,0.049,0.9999999999878513,-147.1355481542569,1.2517507093756444,252,2026-10-07 23:47:10.485244,25.0,0.5775765614208543,1.1335705628714352,1.8197475979565851
0942,cdot_cos,S,R-S,253,50,54419,-0.04036970875691708,-0.09711436868511827,-0.12392525767829321,0.04318439696431013,1038.0,9.360436960465757,0.6430154436427431,10.227821102039643,-0.0678763106663157,0.018,0.9999999999875904,4195.432619720381,1.2567177695130223,253,2026-10-07 23:47:10.503244,25.0,0.04766683694114618,1.3320023633242153,1.217904603418221
0942,cdot_cos,T,S-T,254,50,54702,-0.13036163575069076,0.06760563046301273,-0.08999192699377367,0.09536687534400193,1038.0,9.3864667626839,0.6431241726670958,10.24974701463562,-0.08078981016422292,0.283,0.9999999999873485,-118.76773083167295,1.2616854393152235,254,2026-10-07 23:47:10.786243,25.0,0.8522795495718508,0.2170715451411868,0.09197809971075538
0942,cdot_cos,P,T-P,255,51,55301,0.04623584818568217,-0.00187962508967145,0.17659748393637292,0.9880492333701738,999.0,9.483299455015668,0.6442497912751354,10.28787909222852,-0.30208666253079475,0.599,0.9999999999873098,-196.60020790877311,1.2666538459463363,255,2026-10-07 23:47:11.385243,25.0,0.4806764880428235,0.11185531365975795,0.16165724930178288
0942,cdot_cos,Q,P-Q,256,51,55390,-0.0012257084084444825,-0.0007842976077024926,-0.04746155659412665,0.23387851948677627,999.0,9.52046942844829,0.6445160007450169,10.312292412562273,-0.11674268321483289,0.089,0.9999999999870491,696.2336065596683,1.2716210676821802,256,2026-10-07 23:47:11.474244,25.0,0.20440985076017074,0.7129014908665614,0.4176401509283379
0942,cdot_cos,R,Q-R,257,51,55438,0.0838582504112934,0.0939356009123849,0.08508395881973788,0.8935092890420113,999.0,9.610195920389916,0.6455322030897882,10.348704984639081,-0.28332768035708344,0.048,0.9999999999869829,-163.92896355670482,1.2765881947362299,257,2026-10-07 23:47:11.522244,25.0,0.5554599445609399,1.1706436928041926,1.8693019154505386
0942,cdot_cos,S,R-S,258,51,55471,-0.03405210836534351,-0.06790510710456743,-0.11791035877663691,0.04984253585852123,999.0,9.632851222957493,0.6455888512374521,10.36972899077875,-0.07195341810458583,0.033,0.9999999999867113,3731.3534681927617,1.2815552874529619,258,2026-10-07 23:47:11.555244,25.0,0.052989885736238085,0.864136010893702,0.6865243202295951
0942,cdot_cos,T,S-T,259,51,55741,-0.09032224277703982,0.04121543680528906,-0.05627013441169631,0.19674664174776516,999.0,9.6672288971089,0.6458124222215508,10.393403899637548,-0.10947609291269314,0.27,0.9999999999864828,-167.83338392227077,1.28652294516885,259,2026-10-07 23:47:11.825243,25.0,0.7098173033776985,0.2412564878565288,0.12732471907928772
0942,cdot_cos,P,T-P,260,52,56300,0.041822351456370054,-0.00021755274134028466,0.13214459423340988,0.9645526135566701,979.0,9.763129726400019,0.6469075582208399,10.4311081205213,-0.30702753823939,0.559,0.9999999999864375,-180.38987436714004,1.2914913017887175,260,2026-10-07 23:47:12.384243,25.0,0.5254856831223402,0.12055465145288219,0.17155783415226808
0942,cdot_cos,Q,P-Q,261,52,56408,-0.0019775614101940567,-0.0016311107476477899,-0.04379991286656411,0.25067832477038604,979.0,9.802008997433223,0.6471919221286546,10.455744077007035,-0.12529002723947616,0.108,0.9999999999861735,639.1018902382133,1.2964585728623093,261,2026-10-07 23:47:12.492243,25.0,0.23444493632279056,0.5891902447902588,0.35999325030744844
0942,cdot_cos,R,Q-R,262,52,56446,0.0726589024978079,0.09625874018174538,0.07463646390800197,0.8659845061027027,979.0,9.890394819274714,0.6481734727734791,10.491642971491192,-0.28631536156183923,0.038,0.9999999999860972,-164.05198771088385,1.3014256751125488,262,2026-10-07 23:47:12.530244,25.0,0.5698366712634954,1.4850902696434263,2.325942680039249
0942,cdot_cos,S,R-S,263,52,56467,-0.030918181658801176,-0.07715678361193015,-0.10357708415660907,0.06982198151698235,979.0,9.914875857926123,0.6482525581555905,10.512928624267708,-0.07974988057462118,0.021,0.9999999999858206,2611.9299859543517,1.3063927367801804,263,2026-10-07 23:47:12.551244,25.0,0.07500753905486512,1.1042575712770097,1.1657637453051874
0942,cdot_cos,T,S-T,264,52,56759,-0.16018029576731746,0.04122400403324176,-0.1292621141085163,0.03799544678183716,979.0,9.936773637268349,0.6482955911061675,10.533595329561251,-0.07149767325041338,0.292,0.9999999999855406,191.76485027282556,1.3113604666173748,264,2026-10-07 23:47:12.843244,25.0,0.8909925231977198,0.20728397875835775,0.0749923950076215
0942,cdot_cos,P,T-P,265,53,57279,0.04237337437670916,-0.0006011292216577427,0.20255367014402662,0.9937184787252726,998.0,10.035929701521004,0.6494202015756875,10.571834403792234,-0.325246203121307,0.52,0.9999999999855009,-225.6323738291434,1.3163287668684334,265,2026-10-07 23:47:13.363244,25.0,0.45832639849209716,0.13257255876720347,0.1906847389474143
0942,cdot_cos,Q,P-Q,266,53,57368,-0.002784059887698676,-0.0017767720083480471,-0.04515743426440784,0.2443575382596766,998.0,10.07464909838624,0.6496964921996421,10.596269927468,-0.12783564688351384,0.089,0.999999999985229,714.5032770645719,1.3212959949702607,266,2026-10-07 23:47:13.452243,25.0,0.21347131641598535,0.7357388667651916,0.4350494029801818
0942,cdot_cos,R,Q-R,267,53,57420,0.08663263995018027,0.10231278897916005,0.08941669983787894,0.9033852343891927,998.0,10.166891219805208,0.6507170607336845,10.632845313888438,-0.3061158395158664,0.052,0.9999999999851648,-174.68713436244565,1.326263131756821,267,2026-10-07 23:47:13.504243,25.0,0.5585592730879992,1.1076710564511967,1.7738869503647678
0942,cdot_cos,S,R-S,268,53,57450,-0.03252719761671965,-0.06851546955334564,-0.1191598375668999,0.04838383757648887,998.0,10.189846888257165,0.6507716818636021,10.653632578747604,-0.07660912951597283,0.03,0.9999999999848711,4201.793524705236,1.331230213960396,268,2026-10-07 23:47:13.534244,25.0,0.04999590910141906,0.7949414582361018,0.7651889483985505
0942,cdot_cos,T,S-T,269,53,57718,-0.13565509524444191,0.05460556547290822,-0.10312789762772226,0.0705548456063667,998.0,10.214587707299374,0.6508513250318079,10.674796426505385,-0.08275134045047329,0.268,0.999999999984589,-77.12162980047516,1.3361979026415405,269,2026-10-07 23:47:13.802243,25.0,0.9284628482378643,0.23152931006822958,0.09231648896346863
0942,cdot_cos,P,T-P,270,54,58277,0.0315091216976468,-0.0015011491231897841,0.16716421694208872,0.984918728068091,1019.0,10.313946598453736,0.6519622324461422,10.712874279147442,-0.3338541974549588,0.559,0.9999999999845507,-226.03400946329998,1.3411663422306281,270,2026-10-07 23:47:14.361243,25.0,0.47135993044416796,0.12722983257305762,0.17774399133159474
0942,cdot_cos,Q,P-Q,271,54,58366,-0.0041110765594756914,-0.0025449621551021074,-0.035620198257122496,0.2910056331458896,1019.0,10.356830660116053,0.6522901474454619,10.738094203760735,-0.14502879161648785,0.089,0.9999999999842809,575.8364400231748,1.3461335734392657,271,2026-10-07 23:47:14.450243,25.0,0.2719911765992824,0.7618834718933147,0.48184338946423544
0942,cdot_cos,R,Q-R,272,54,58414,0.08330070377813249,0.08985952100227215,0.08741178033760819,0.8989211583328117,1019.0,10.449561856450746,0.6533021695958668,10.774578682422266,-0.3152326488732967,0.048,0.9999999999842142,-168.1819485756321,1.3511006998269783,272,2026-10-07 23:47:14.498244,25.0,0.5827885042149122,1.2045628870748966,1.9318999236394387
0942,cdot_cos,S,R-S,273,54,58432,-0.03864562808095277,-0.09539656838060656,-0.12194633185908527,0.04527543401087358,1019.0,10.472468697275243,0.6533531049590144,10.795208292943473,-0.07829762641194848,0.018,0.9999999999839088,4651.68024373897,1.3560677487189539,273,2026-10-07 23:47:14.516243,25.0,0.04850531970258002,1.6066856302229384,1.2726022680276117
0942,cdot_cos,T,S-T,274,54,58717,-0.09617505917786949,0.04973517443648114,-0.057529431096916724,0.19181869721370332,1019.0,10.507402539138772,0.6535688641281893,10.818532996409157,-0.11970196709712641,0.285,0.9999999999836531,-191.90072358699757,1.3610355013989053,274,2026-10-07 23:47:14.801243,25.0,0.7075866097154977,0.2341759164955037,0.1225748837316799
0942,cdot_cos,P,T-P,275,55,59296,0.03506772648782534,-0.0008814723032184839,0.13124278566569483,0.9637736476293391,999.0,10.60594896967768,0.6546519673918301,10.856218730489923,-0.3393194949133094,0.579,0.9999999999836078,-202.76693385443974,1.3660040396855082,275,2026-10-07 23:47:15.380243,25.0,0.5234942013209959,0.12140070581223132,0.1702010890136586
0942,cdot_cos,Q,P-Q,276,55,59385,-0.003539623738097988,-0.002261100266033698,-0.038607350225923334,0.275841521979603,999.0,10.647984556469336,0.6549616676415007,10.881086089058131,-0.14564088771093728,0.089,0.9999999999833216,625.3743980134964,1.3709712741498437,276,2026-10-07 23:47:15.469243,25.0,0.2645204363386606,0.7505989302765885,0.4723099639511858
0942,cdot_cos,R,Q-R,277,55,59438,0.07412968236387318,0.08933790191082853,0.07766930610197118,0.8745423700799068,999.0,10.739555579266913,0.6559426872537165,10.917107843759283,-0.31882974284986815,0.053,0.9999999999832452,-176.5396460808195,1.375938413627812,277,2026-10-07 23:47:15.522244,25.0,0.5808854567590314,1.1007116715975445,1.7277551471240986
0942,cdot_cos,S,R-S,278,55,59468,-0.029791987941273596,-0.11076656393641628,-0.10392167030514678,0.06926455587594148,999.0,10.764659993658675,0.6560203282271815,10.938090588460176,-0.08787552659110963,0.03,0.9999999999829342,2974.643489793111,1.3809054920133332,278,2026-10-07 23:47:15.552243,25.0,0.07220851976062861,1.081767924585305,0.8368138130587492
0942,cdot_cos,T,S-T,279,55,59735,-0.07446865766498813,0.03028808632124372,-0.044676669723714535,0.24658364381721803,999.0,10.804461654742031,0.656296664462798,10.962361389720039,-0.13968870602000846,0.267,0.999999999982684,-187.50048944287772,1.3858732166174643,279,2026-10-07 23:47:15.819244,25.0,0.6900999150395677,0.256730739516903,0.14906989169796184
0942,cdot_cos,P,T-P,280,56,60295,0.03403990410608692,-0.0015309668061629755,0.10850856177107504,0.937772715110216,999.0,10.901754208560702,0.6573466207506559,10.999559354490408,-0.34312816289690706,0.56,0.9999999999826293,-193.75993003666667,1.3908417507519875,280,2026-10-07 23:47:16.379244,25.0,0.5527240470884528,0.1253022176648038,0.17373670324762572
0942,cdot_cos,Q,P-Q,281,56,60383,-0.0030861867430761513,-0.0019548421271481987,-0.037126090849163074,0.283299728926862,999.0,10.944800138526611,0.6576635088476713,11.024497500237803,-0.15272691118311327,0.088,0.9999999999823366,600.8469661910364,1.395808985995066,281,2026-10-07 23:47:16.467244,25.0,0.2874582020137455,0.7749038595876219,0.48915829506715724
0942,cdot_cos,R,Q-R,282,56,60434,0.07881960483033058,0.0912070555648882,0.08190579157340673,0.8857094213794473,999.0,11.038137287848123,0.6586533212772239,11.060718441004228,-0.3327637197160515,0.051,0.9999999999822619,-181.8898239278798,1.4007761202091222,282,2026-10-07 23:47:16.518244,25.0,0.5821454384326714,1.1534342385689402,1.8301401827747374
0942,cdot_cos,S,R-S,283,56,60467,-0.03345310428379437,-0.06982921976310885,-0.11227270911412496,0.05695686871050652,999.0,11.062450430860643,0.6587169254651091,11.081382265100936,-0.08713701901426786,0.033,0.9999999999819362,3861.8007535149977,1.4057432052585264,283,2026-10-07 23:47:16.551244,25.0,0.05967417652068026,0.7240889149174766,0.7367619094703121
0942,cdot_cos,T,S-T,284,56,60734,-0.15367189520676464,0.07133546253418387,-0.12021879092297028,0.04717937790870704,999.0,11.085927156232676,0.6587696067262199,11.101831146895753,-0.08431501971036023,0.267,0.9999999999816116,53.567421212116315,1.4107109486239933,284,2026-10-07 23:47:16.818244,25.0,0.9670842032457567,0.23639657740406975,0.08792781038214666
0942,cdot_cos,P,T-P,285,57,61294,0.043679654303935576,-0.0008809080098425726,0.19735154951070022,0.9928522819221315,1018.0,11.188686203194417,0.6598773309099072,11.140060603317522,-0.3705715836355581,0.56,0.9999999999815739,-258.41862815735027,1.4156795259950128,285,2026-10-07 23:47:17.378243,25.0,0.4618694254849847,0.1271452818782302,0.18349829814596444
0942,cdot_cos,Q,P-Q,286,57,61382,-0.002783986410838245,-0.0017176505727301233,-0.046463640714773824,0.23837830913046198,1018.0,11.228329871936294,0.6601430298368396,11.164082458356633,-0.14382337185352934,0.088,0.9999999999812559,853.4028134773697,1.420646764150691,286,2026-10-07 23:47:17.466244,25.0,0.20668194585438515,0.770088085171791,0.4504962357031562
0942,cdot_cos,R,Q-R,287,57,61433,0.08806834210749524,0.09788561390972549,0.09085232851833348,0.9064727569156305,1018.0,11.324221706184652,0.6611524727031521,11.200684138844048,-0.34948320143689504,0.051,0.9999999999811864,-203.7359779802419,1.4256138981155493,287,2026-10-07 23:47:17.517244,25.0,0.5551769282801479,1.1705581256716335,1.8802320440854403
0942,cdot_cos,S,R-S,288,57,61465,-0.03412925867035962,-0.06643871025628065,-0.12219760077785485,0.04500467725517684,1018.0,11.347726800754801,0.6612025515692214,11.221030412233969,-0.08611320251804963,0.032,0.9999999999808437,5259.104680101628,1.4305809784976873,288,2026-10-07 23:47:17.549243,25.0,0.04696202280443483,0.9183596352358991,0.7345342053171611
0942,cdot_cos,T,S-T,289,57,61733,-0.0935534517284099,0.052226019459159695,-0.05942419305805028,0.1845823355741091,1018.0,11.38299672283975,0.6614079074336918,11.243985451132524,-0.12951130106517833,0.268,0.9999999999805529,-211.3311867622455,1.4355487437802328,289,2026-10-07 23:47:17.817244,25.0,0.7152728435370865,0.25392965498051523,0.13160418688413578
0942,cdot_cos,P,T-P,290,58,62312,0.03298790346250165,-0.0018752679414809409,0.12654135519091153,0.9594386947019117,1059.0,11.483833095824357,0.6624743444209843,11.281583321825755,-0.3719135722107414,0.579,0.9999999999805035,-227.3010726690816,1.4405174226191038,290,2026-10-07 23:47:18.396243,25.0,0.5211223457590312,0.1252302018236031,0.174156084602086
0942,cdot_cos,Q,P-Q,291,58,62401,-0.003247910722085566,-0.0019235935983361757,-0.03623581418458721,0.28784050846321696,1059.0,11.528013296551482,0.6627939639843468,11.306471634029512,-0.1639066146759079,0.089,0.9999999999801892,650.7954498984956,1.4454846668545456,291,2026-10-07 23:47:18.485244,25.0,0.28109636367365426,0.788628448020765,0.4964067497429729
0942,cdot_cos,R,Q-R,292,58,62449,0.08471357367426438,0.08646257816729276,0.08796148439634995,0.9001630097027417,1059.0,11.624208959572053,0.6637925485633052,11.342945761917392,-0.35853440161254446,0.048,0.9999999999801145,-194.90365767479315,1.4504517917253916,292,2026-10-07 23:47:18.533243,25.0,0.5810940192597011,1.247810583678825,2.0040763129285746
0942,cdot_cos,S,R-S,293,58,62468,-0.038814062773851785,-0.08296430348124469,-0.12352763644811617,0.04359700502402939,1059.0,11.647803112584649,0.6638408753024514,11.36317921155483,-0.08838762156643198,0.019,0.9999999999797583,5590.00637780829,1.455418831400153,293,2026-10-07 23:47:18.552243,25.0,0.04705740551555764,1.609890793395919,1.2417975269787158
0942,cdot_cos,T,S-T,294,58,62751,-0.0922742999256837,0.061556993374151714,-0.053460237151831916,0.20808524453465604,1059.0,11.685384809721098,0.6640714879578635,11.386507832902193,-0.1411093416766571,0.283,0.9999999999794654,-228.61590148209817,1.4603866616163166,294,2026-10-07 23:47:18.835244,25.0,0.6882362083078095,0.24754728927344885,0.13279751638321316
0942,cdot_cos,P,T-P,295,59,63371,0.045440380339197284,0.0010935214305196797,0.13771468026488098,0.9690177060742289,1039.0,11.78791487831342,0.6651443806214585,11.42428445319617,-0.38667117825129493,0.62,0.999999999979417,-228.87828848770334,1.4653555132530875,295,2026-10-07 23:47:19.455244,25.0,0.5299003519007677,0.11508892595898916,0.16537107837471407
0942,cdot_cos,Q,P-Q,296,59,63460,-0.0014436777402551352,-0.000886632805230256,-0.046884058079452416,0.23647534702235584,1039.0,11.828095077910245,0.6654059468303697,11.448133379027146,-0.15239368926460323,0.089,0.9999999999790681,895.671845235429,1.4703227603639195,296,2026-10-07 23:47:19.544243,25.0,0.21495694567939214,0.763477876496875,0.4514629168182454
0942,cdot_cos,R,Q-R,297,59,63520,0.08017035471090767,0.09774159284619979,0.0816140324511628,0.8849689849732338,1039.0,11.923813940329865,0.6663839114141605,11.4843091142224,-0.3645947302280402,0.06,0.9999999999789817,-216.98233707082738,1.475289921006729,297,2026-10-07 23:47:19.604243,25.0,0.558769101793016,1.0106567225755945,1.595314373660332
0942,cdot_cos,S,R-S,298,59,63540,-0.02702075937533389,-0.052949683691082564,-0.10719111408624156,0.06417721698020999,1039.0,11.949373884619316,0.6664547770791097,11.504850068787146,-0.09784526409336765,0.02,0.9999999999786157,3764.1566804736563,1.4802569600387943,298,2026-10-07 23:47:19.624243,25.0,0.0654651140586108,1.154895907027642,1.2779972144725704
0942,cdot_cos,T,S-T,299,59,63811,-0.2250328559216702,0.048275074890135924,-0.1980120965463363,0.007031475377822668,1039.0,11.97000977661097,0.6664625409066616,11.524271471192803,-0.07914765865682608,0.271,0.9999999999782361,2408.2973651412144,1.485224772704681,299,2026-10-07 23:47:19.895243,25.0,0.7895935181075969,0.23351049353778128,0.07614720292123349
0942,cdot_cos,P,T-P,300,60,64410,0.04133199056457282,0.00030759650871658013,0.26636484648624303,0.998719369332659,1019.0,12.075936572116793,0.6675643617721875,11.562611527614045,-0.40774739898199763,0.599,0.9999999999781926,-298.23336134438637,1.4901936067721697,300,2026-10-07 23:47:20.494244,25.0,0.4466899883148596,0.12317893831937526,0.17683939149553118
0942,cdot_cos,Q,P-Q,301,60,64500,-0.002665130328465801,-0.0016599752936573094,-0.043997120893038616,0.2497533810959282,1019.0,12.117578144717582,0.6678396123918144,11.586643870529668,-0.16120907109797972,0.09,0.9999999999778371,895.6867316707223,1.4951608594924761,301,2026-10-07 23:47:20.584243,25.0,0.2166855540845022,0.7682142814739261,0.4626841400087598
0942,cdot_cos,R,Q-R,302,60,64556,0.07956232621311625,0.0972877340029346,0.08222745654158205,0.8865209393794151,1019.0,12.2142151427821,0.6688157116586698,11.622837665770533,-0.37569592060701773,0.056,0.9999999999777479,-219.73876714407655,1.5001280075563526,302,2026-10-07 23:47:20.640243,25.0,0.5650136141001441,1.090256527231397,1.7256606797235412
0942,cdot_cos,S,R-S,303,60,64586,-0.029860098844223266,-0.0818205760158685,-0.10942242505733951,0.060907330530800254,1019.0,12.239686875767498,0.6688827201914924,11.643231283060377,-0.09951362695244359,0.03,0.9999999999773649,4121.598877351193,1.5050950748205305,303,2026-10-07 23:47:20.670244,25.0,0.06232944380561691,0.9486606400414507,0.8490577661799392
0942,cdot_cos,T,S-T,304,60,64850,-0.10586264378693151,0.0497328119243195,-0.07600254494270825,0.13010127360057355,1019.0,12.271134781184587,0.6690258310195465,11.664923832535262,-0.12312048224954612,0.264,0.9999999999770139,-164.95506048070067,1.510062884323921,304,2026-10-07 23:47:20.934243,25.0,0.8255232594992719,0.2572182976600516,0.11912085385260932
0942,cdot_cos,P,T-P,305,61,65429,0.033959107816470754,-0.0016750045761625405,0.13982175160340227,0.9705607103077473,1041.0,12.375498136932006,0.6700924557347673,11.702722291350673,-0.41018075152404543,0.579,0.9999999999769595,-269.12958717169687,1.515031704017192,305,2026-10-07 23:47:21.513243,25.0,0.49666552405216885,0.12935856233502815,0.1802475919644532
0942,cdot_cos,Q,P-Q,306,61,65518,-0.001954725803839036,-0.0011785205790272796,-0.03591383362030979,0.28949337889517784,1041.0,12.42093199636855,0.6704102644931007,11.727452686018605,-0.17956692146349434,0.089,0.9999999999766068,725.6371135580989,1.5199989567482084,306,2026-10-07 23:47:21.602243,25.0,0.2768504232292164,0.8124533448139559,0.5104928026578002
0942,cdot_cos,R,Q-R,307,61,65565,0.08896059367128924,0.09180115466603792,0.09091531947512828,0.9066061806552808,1041.0,12.52011483230889,0.6714045375262633,11.76402066470225,-0.39367664490167253,0.047,0.9999999999765219,-215.34298557523994,1.5249660758437817,307,2026-10-07 23:47:21.649244,25.0,0.5804961855567665,1.313160772180133,2.110273105113616
0942,cdot_cos,S,R-S,308,61,65598,-0.03370157823464038,-0.05613538182046053,-0.12266217190592962,0.04450813375290493,1041.0,12.544369108953482,0.6714533100573975,11.784020654080253,-0.09673957279773415,0.033,0.9999999999761201,6088.203035572729,1.5299331507576597,308,2026-10-07 23:47:21.682244,25.0,0.04644679415818003,0.8439211989653795,0.7349780801391687
0942,cdot_cos,T,S-T,309,61,65868,-0.11077757885366761,0.06985099296073033,-0.07707600061902722,0.1270940987070219,1041.0,12.575813631440605,0.6715925608951631,11.805582770252961,-0.1256696341369702,0.27,0.9999999999757554,-207.75502541638113,1.5349009994055585,309,2026-10-07 23:47:21.952243,25.0,0.7943689495938803,0.2525040445682823,0.11646119439674993
0942,cdot_cos,P,T-P,310,62,66470,0.02435309151464379,-0.00048089100357469035,0.1351306703683114,0.9670183702181765,997.0,12.680721293020355,0.6726510867831419,11.843308220075068,-0.42084704284552255,0.602,0.9999999999756977,-278.8570521143973,1.5398699434898773,310,2026-10-07 23:47:22.554244,25.0,0.49589611732334377,0.12368188060813429,0.1742652185710132
0942,cdot_cos,Q,P-Q,311,62,66557,-0.015644292584308432,-0.008200014632402435,-0.03999738409895222,0.26895427949833967,997.0,12.724726615692799,0.6729451803482276,11.867583421472482,-0.1774906510942774,0.087,0.9999999999753223,827.4794849058792,1.5448371925197388,311,2026-10-07 23:47:22.641243,25.0,0.25382908282223576,0.8317355597374085,0.505808306579813
0942,cdot_cos,R,Q-R,312,62,66610,0.07937848980333143,0.09404615597851389,0.09502278238763986,0.9149452888365887,997.0,12.825443280414664,0.6739446277468022,11.904301607915485,-0.40789952242566163,0.053,0.9999999999752374,-230.53626600058155,1.5498043306706188,312,2026-10-07 23:47:22.694243,25.0,0.5684358944718947,1.1900977954734,1.9003144287144407
0942,cdot_cos,S,R-S,313,62,66640,-0.03382466606081729,-0.09764860276892877,-0.11320315586414872,0.05572024659884492,997.0,12.850876982012979,0.6740054432395728,11.92443967800589,-0.10350472025654348,0.03,0.9999999999748228,5005.21805056066,1.554771393251143,313,2026-10-07 23:47:22.724244,25.0,0.05281930877463897,0.9471718008609169,0.847790053277168
0942,cdot_cos,T,S-T,314,62,66907,-0.1121511377594119,0.04550748643015811,-0.07832647169859461,0.12366612151328187,997.0,12.882273588466319,0.6741403968775472,11.945864391124125,-0.12802659608518863,0.267,0.9999999999744426,-181.7059265441127,1.559739251715628,314,2026-10-07 23:47:22.991244,25.0,0.8256887793469568,0.2575022820209259,0.11759028634209726
0942,cdot_cos,P,T-P,315,63,67467,0.02841057938763322,0.0017948799487132916,0.14056171714704513,0.9710847028450712,979.0,12.988383200612153,0.6751991118186603,11.983662404590275,-0.4342638530842219,0.56,0.9999999999743837,-289.2537406500253,1.564708104948712,315,2026-10-07 23:47:23.551244,25.0,0.49401614678449546,0.13792406321413112,0.18948145026041868
0942,cdot_cos,Q,P-Q,316,63,67576,-0.0027846312017096044,-0.002372025192285449,-0.031195210589342822,0.314345692326741,979.0,13.036748539266146,0.6755414412531986,12.008756367871912,-0.19901297483064984,0.109,0.9999999999740177,687.2061076806806,1.569675432174522,316,2026-10-07 23:47:23.660243,25.0,0.3066377654869907,0.6628192345747342,0.4437187032476367
0942,cdot_cos,R,Q-R,317,63,67621,0.06783646268982568,0.0993026556185583,0.07062109389153529,0.8539005707686423,979.0,13.132877793749445,0.6764704101754072,12.044282493022259,-0.39715342193034864,0.045,0.999999999973904,-213.29071658136985,1.5746425427622155,317,2026-10-07 23:47:23.705244,25.0,0.607197285709821,1.3888732989598573,2.1362056551844373
0942,cdot_cos,S,R-S,318,63,67656,-0.023620652947171177,-0.10438631004554592,-0.09145711563699686,0.09225325221330273,979.0,13.161747136172533,0.6765706905404935,12.065053033201867,-0.11982300226749444,0.035,0.9999999999734908,2765.5505584202183,1.579609620341451,318,2026-10-07 23:47:23.740243,25.0,0.09881551271325613,0.884989241922288,0.8248383549453563
0942,cdot_cos,T,S-T,319,63,67926,-0.09630088979615188,0.02390382956059029,-0.0726802368489807,0.13979352666606784,979.0,13.194827040684006,0.6767226168148959,12.086721750043898,-0.13758869194104,0.27,0.9999999999731036,-116.93625571630069,1.5845775095100092,319,2026-10-07 23:47:24.010243,25.0,0.8788669762069419,0.2595868790118186,0.12251816485730625
0942,cdot_cos,P,T-P,320,64,68446,0.04659972405215388,0.0010088199680674769,0.14290061384830577,0.9726821054171741,979.0,13.301924050838915,0.6777786850408373,12.124543918875027,-0.4470482994058461,0.52,0.9999999999730433,-293.0299386566132,1.5895462723217648,320,2026-10-07 23:47:24.530244,25.0,0.5004595135675032,0.14248387182719513,0.20595578875944107
0942,cdot_cos,Q,P-Q,321,64,68536,-0.0021376707541660403,-0.0014038258164317556,-0.048737394806319924,0.2282120016306996,979.0,13.343010267384289,0.6780261989613903,12.147910200077213,-0.17239352313129208,0.09,0.9999999999726346,1109.6538556737164,1.5945135385831155,321,2026-10-07 23:47:24.620243,25.0,0.20327714057114174,0.7883582555284048,0.4565135171708177
0942,cdot_cos,R,Q-R,322,64,68592,0.08491708019375334,0.11105812911961452,0.08705475094791938,0.8981072564029052,979.0,13.443828536834028,0.6789992962432839,12.184279104040067,-0.42459831784294544,0.056,0.9999999999725403,-259.17737044837,1.599480687557355,322,2026-10-07 23:47:24.676243,25.0,0.5521229944120724,1.1311860905557833,1.8003262401739153
0942,cdot_cos,S,R-S,323,64,68613,-0.02793799438360996,-0.06372021964014786,-0.1128550745773633,0.056179882493412076,979.0,13.469703109526536,0.6790601154812542,12.204277182881585,-0.10947621575621043,0.021,0.9999999999720991,5181.289878058321,1.6044477141918945,323,2026-10-07 23:47:24.697243,25.0,0.05622169084713066,1.1809871844618278,1.2321225091670704
0942,cdot_cos,T,S-T,324,64,68886,-0.16386359074318965,0.06003461667372372,-0.13592559635957968,0.03235364773349185,979.0,13.493429998581425,0.6790951381474016,12.223784920975131,-0.10056856797165432,0.273,0.9999999999716563,254.3395110773048,1.6094156339331451,324,2026-10-07 23:47:24.970243,25.0,0.9152364051313295,0.2444043227729704,0.08691168151973731
0942,cdot_cos,P,T-P,325,65,69425,0.033495196604901536,-0.000220868766274217,0.1973587873480912,0.9928535659136464,1040.0,13.603147869760578,0.6801689157949213,12.261992849208362,-0.4665212587753525,0.539,0.9999999999716055,-340.80863170229424,1.614384506445346,325,2026-10-07 23:47:25.509243,25.0,0.45638033173110276,0.14476729316102688,0.20355820255872642
0942,cdot_cos,Q,P-Q,326,65,69514,-0.0036032895062934243,-0.0021888652924168654,-0.03709848611119496,0.28343987221444844,1040.0,13.649489140609012,0.6804751084081025,12.286373418796016,-0.19807802608864614,0.089,0.9999999999712083,876.7136146678896,1.6193517724969162,326,2026-10-07 23:47:25.598243,25.0,0.25788543539686654,0.8324121354496767,0.520688436499252
0942,cdot_cos,R,Q-R,327,65,69567,0.08462963229296674,0.09574254583214889,0.08823292179926016,0.9007712048645522,1040.0,13.75131722987062,0.6814471541384578,12.322780786305731,-0.43690472304556716,0.053,0.9999999999711143,-245.6949189722145,1.624318910985979,327,2026-10-07 23:47:25.651244,25.0,0.5788954657502178,1.1992974676874093,1.9212847030492268
0942,cdot_cos,S,R-S,328,65,69588,-0.03516750173179678,-0.06886095885091466,-0.11979713402476352,0.0476555199713456,1040.0,13.776614672183877,0.6814985365831885,12.342539140802156,-0.10903616985885489,0.021,0.999999999970657,6380.944988219104,1.6292859347750237,328,2026-10-07 23:47:25.672243,25.0,0.049441231157479795,1.5663173374743706,1.204640110155065
0942,cdot_cos,T,S-T,329,65,69865,-0.08662038168104459,0.048142387485191965,-0.05145287994924781,0.21647600128600483,1040.0,13.817102558044544,0.6817318866132944,12.365572085049353,-0.17485784732406529,0.277,0.9999999999702827,-282.07271897641476,1.6342538906616593,329,2026-10-07 23:47:25.949243,25.0,0.6863074008646423,0.26953393307157236,0.1461656529265964
0942,cdot_cos,P,T-P,330,66,70465,0.0576210787329527,0.003101036045414756,0.1442414604139973,0.9735588434133905,1078.0,13.925936471105528,0.682780204832292,12.403394967336405,-0.47173872143167184,0.6,0.9999999999702237,-283.1972856405205,1.6392230354952597,330,2026-10-07 23:47:26.549243,25.0,0.5329470121227725,0.1225251367210678,0.18138985510163982
0942,cdot_cos,Q,P-Q,331,66,70573,-0.000577519871318006,-0.0004273814972335322,-0.05819859860427071,0.18923862889250573,1078.0,13.964132722109825,0.6829837603542096,12.425879489318078,-0.1663816132505313,0.108,0.999999999969765,1500.117045730093,1.6441903746224582,331,2026-10-07 23:47:26.657243,25.0,0.15956856591709984,0.6428104604151236,0.3536689907805321
0942,cdot_cos,R,Q-R,332,66,70619,0.07881431225008978,0.09486133773556535,0.07939183212140778,0.8791914697435161,1078.0,14.064783530555195,0.6839285481855384,12.461850506051496,-0.4399077123464503,0.046,0.9999999999696544,-289.51060759453406,1.6491574864039462,332,2026-10-07 23:47:26.703244,25.0,0.5369874043196543,1.3858964186947986,2.1880610531602005
0942,cdot_cos,S,R-S,333,66,70653,-0.029351781459961743,-0.05788955405958003,-0.10816609371005152,0.06272877998958608,1078.0,14.091635192629747,0.683995899253631,12.481833238743354,-0.11787960348583047,0.034,0.9999999999691859,4781.336331855887,1.6541245549313304,333,2026-10-07 23:47:26.737243,25.0,0.06509945567144103,0.8767749691099116,0.7897547668985956
0942,cdot_cos,T,S-T,334,66,70924,-0.10607401755180255,0.06391619391901746,-0.07672223609184081,0.12807851534801049,1078.0,14.124404228454669,0.6841333914936969,12.503073337570642,-0.1441277556946674,0.271,0.9999999999687543,-190.9064264009472,1.6590925084727313,334,2026-10-07 23:47:27.008243,25.0,0.8335035965972694,0.2622214544846346,0.12091895138347507
0942,cdot_cos,P,T-P,335,67,71543,0.03351463564610649,0.0003924426900308136,0.13958865319790903,0.9703937471463224,1079.0,14.233759220960419,0.6851740611880417,12.54082473040137,-0.48253635420476026,0.619,0.999999999968689,-325.18348554692346,1.664061774102957,335,2026-10-07 23:47:27.627244,25.0,0.49593414646739087,0.1266460272369176,0.1766639620448307
0942,cdot_cos,Q,P-Q,336,67,71632,-0.002753590475117852,-0.001606291057243106,-0.036268226121224344,0.2876744352869476,1079.0,14.281192010173973,0.6854822126637641,12.56517941563669,-0.21034654004914677,0.089,0.9999999999682564,883.2987527239064,1.6690290455765888,336,2026-10-07 23:47:27.716243,25.0,0.2741700856930815,0.8303498996741023,0.532952687792739
0942,cdot_cos,R,Q-R,337,67,71692,0.0725229201859934,0.08356012999508027,0.07527651066111125,0.8678306763166925,1079.0,14.381561503102409,0.6864108265249497,12.600910813408474,-0.4466904653207009,0.06,0.9999999999681346,-254.51259683955888,1.673996209230667,337,2026-10-07 23:47:27.776243,25.0,0.5891349525147982,1.0654866349593415,1.6728248821406075
0942,cdot_cos,S,R-S,338,67,71712,-0.0324867446464147,-0.06639091319080684,-0.1050096648324081,0.06753147445180352,1079.0,14.409050406369094,0.6864830254601539,12.620920054961958,-0.12286917704049247,0.02,0.9999999999676489,4485.125540481016,1.6789632215469135,338,2026-10-07 23:47:27.796243,25.0,0.07168336847637874,1.7198981037608974,1.3744451633342258
