record_id,input,event,transition,event_index,k,peak,value_cos,value_sin,value_return,x_input,rr,knowledge,decision,decision_norm,entropy,delta_t,cosine_similarity,delta_h_over_delta_d,frobenius_norm,matrix_size,timestamp,scale,P,zdot,zdot_back
60,cdot_cos,Q,P-Q,1,0,1359,-0.0200885345097076,-0.0197443219855053,-0.0602272687805887,0.1815796440539155,760.0,0.0009019317910032,0.5002254829324653,0.5002254829324653,,,1.0,,0.0049671415301123,1,2026-10-07 19:01:17.443244,25.0,,,
60,cdot_cos,R,Q-R,2,0,1384,0.1649836555568972,0.2672717797786798,0.1850721900666048,0.99030885945714,760.0,0.008232046713911,0.5014552299046162,0.7091647870540266,-1.2074013080719337e-05,,1.0000000000000002,,0.0099342830602246,2,2026-10-07 19:01:17.468243,25.0,,,
60,cdot_cos,S,R-S,3,0,1414,-0.0025532614823576,-0.0075314778415955,-0.1675369170392548,0.0149434948666155,760.0,0.0102107209834377,0.5014737863589036,0.8685780766375616,-6.580837712720811e-06,0.03,1.0,0.2960250532199934,0.0149014245945579,3,2026-10-07 19:01:17.498244,25.0,0.4339947624326816,0.059393746431937,0.0659558089842233
60,cdot_cos,T,S-T,4,0,1645,-0.3036240584854894,0.0440950063903956,-0.3010707970031318,0.0005381849654607,760.0,0.0117956714998272,0.5014744546633177,1.002948909326942,-6.289923121301839e-06,0.231,1.0,0.4353025137391288,0.0198685661606649,4,2026-10-07 19:01:17.729243,25.0,0.9548023743259788,0.0304796524810465,0.0068612576467077
60,cdot_cos,P,T-P,5,1,2025,0.0322105246846116,-4.999131971280393e-05,0.3358345831701011,0.9997742518031184,837.0,0.0242923204296812,0.5027159372770899,1.1241070091275738,-8.132574006684725e-05,0.38,1.0000000000000002,-0.060440489551084,0.0248357078124263,5,2026-10-07 19:01:18.109244,25.0,0.3974613195272515,0.0227721802113823,0.0328859182364578
60,cdot_cos,Q,P-Q,6,1,2126,-0.0220552810058266,-0.0202190523473022,-0.0542658056904382,0.2047860956095415,837.0,0.0291025284604779,0.5029702294295156,1.2320204179225174,-4.6316149456792654e-05,0.101,1.0,0.1376746796001592,0.0298028493884543,6,2026-10-07 19:01:18.210243,25.0,0.4695957723480365,0.0998201022448807,0.047625822087096
60,cdot_cos,R,Q-R,7,1,2155,0.1653653242364213,0.239310456551633,0.1874206052422479,0.9908563972128448,837.0,0.0444559810831471,0.5042005965290762,1.3339893893227317,-0.0002036539661883,0.029,1.0000000000000002,-0.1278787581265168,0.034769990922981,7,2026-10-07 19:01:18.239244,25.0,0.4618226749036453,0.3210774037344737,0.5294294007816964
60,cdot_cos,S,R-S,8,1,2178,-0.0042276004589209,-0.0093426944880097,-0.1695929246953423,0.0142054381609928,837.0,0.0477250178770773,0.504218235384262,1.4261445337718004,-5.43394025737168e-05,0.023,1.0,8.465093796724059,0.0397371324657827,8,2026-10-07 19:01:18.262244,25.0,0.0640677692423913,0.1351745643618925,0.1421320345187044
60,cdot_cos,T,S-T,9,1,2424,-0.2289023822239671,0.100576233850076,-0.2246747817650461,0.0036228330254479,837.0,0.0506740110437942,0.5042227338448184,1.5126682015576614,-5.232607424842771e-05,0.246,1.0000000000000002,0.447559403945216,0.0447042743992523,9,2026-10-07 19:01:18.508243,25.0,0.962254241511388,0.0434475015839294,0.0119877771004752
60,cdot_cos,P,T-P,10,2,2862,0.0350019479148356,-0.0019665638557589,0.2639043301388028,0.9986382313554228,839.0,0.0691011886563706,0.5054627112365628,1.5984134398719418,-0.000397977422386,0.438,1.0,-0.2787561696196083,0.049671416879372,10,2026-10-07 19:01:18.946244,25.0,0.4195720595052061,0.0288188629391431,0.042071181763873
60,cdot_cos,Q,P-Q,11,2,2954,-0.0182028254684276,-0.015044471976333,-0.0532047733832633,0.2091396265591525,839.0,0.0759193349784835,0.505722385270946,1.6772914002162742,-0.0001782885485202,0.092,1.0,0.8460178715501728,0.0546385585577731,11,2026-10-07 19:01:19.038244,25.0,0.2916474200575729,0.1482397696791942,0.0741102861099227
60,cdot_cos,R,Q-R,12,2,2984,0.1786449231430131,0.2267242983514844,0.1968477486114407,0.992762342622406,839.0,0.0963773062773424,0.506954984281653,1.7561435800765304,-0.0006355356100889,0.03,1.0,-0.3709617301302562,0.0596057000670375,12,2026-10-07 19:01:19.068243,25.0,0.4870116393229749,0.4096144150638444,0.68193237662863
60,cdot_cos,S,R-S,13,2,3011,-0.0041733109494558,-0.0083371182312912,-0.182818234092469,0.0102471479213085,839.0,0.1004961998823142,0.5069677065735695,1.8278980612904925,-0.0001462069627351,0.027,1.0,38.462303063392405,0.0645728416017124,13,2026-10-07 19:01:19.095244,25.0,0.0351960372593297,0.1474627478421014,0.1525516149989558
60,cdot_cos,T,S-T,14,2,3242,-0.2404229763685823,0.1182952205229704,-0.2362496654191264,0.0027150081169985,839.0,0.1043402946608159,0.5069710773759233,1.89691207679366,-0.0001419716225809,0.231,1.0,1.256478342435864,0.0695399841808833,14,2026-10-07 19:01:19.326244,25.0,0.9706082901055748,0.05783957898021,0.0166411029372367
60,cdot_cos,P,T-P,15,3,3701,0.0304063572918593,-8.06606120970873e-06,0.2708293336604417,0.998854460458506,800.0,0.1272180853711713,0.5082111537039858,1.9682933350971967,-0.0009550849368407,0.459,0.9999999999999998,-0.6556961824520391,0.0745071282976341,15,2026-10-07 19:01:19.785243,25.0,0.4268375275370336,0.0341245030866695,0.0498426812861773
60,cdot_cos,Q,P-Q,16,3,3799,-0.0213409591628043,-0.0202885195326543,-0.0517473164546637,0.2152300922359133,800.0,0.1356665884943785,0.5084783488349026,2.033913396194202,-0.0004004097997507,0.098,1.0,2.075917832734657,0.0794742702168922,16,2026-10-07 19:01:19.883244,25.0,0.2502565628712865,0.1678010087086684,0.0862092155429305
60,cdot_cos,R,Q-R,17,3,3823,0.1605212678955413,0.2464466523402735,0.1818622270583457,0.989507593940486,800.0,0.1601070830780703,0.5097066979375158,2.101574554643661,-0.0013031378129807,0.024,1.0,-0.7349116072210585,0.0844414116205857,17,2026-10-07 19:01:19.907244,25.0,0.5002065778860758,0.6130491632534898,1.0183539409871594
60,cdot_cos,S,R-S,18,3,3853,-0.0034120888977796,-0.0086992702430026,-0.163933356793321,0.0163292393887423,800.0,0.165092948330546,0.5097269676901777,2.162588373420536,-0.0002922881952253,0.03,1.0,49.869854586619375,0.0894085531426587,18,2026-10-07 19:01:19.937243,25.0,0.0314800765999721,0.1598664112476236,0.1661955084158561
60,cdot_cos,T,S-T,19,3,4101,-0.2262126990888558,0.0613513395340661,-0.2228006101910762,0.0037959581015873,800.0,0.1696990677529277,0.5097316796706457,2.221868881016964,-0.0002779907125146,0.248,1.0,3.0342831019038554,0.0943756969016526,19,2026-10-07 19:01:20.185244,25.0,0.949868702191656,0.0629059934154387,0.018573062187023
60,cdot_cos,P,T-P,20,4,4501,0.0422691375375411,0.0019038228705226,0.268481836626397,0.998785303891712,858.0,0.1962943210646036,0.5109714244191036,2.2851336806305302,-0.0017544975474183,0.4,0.9999999999999996,-1.1909764786180916,0.0993428426567101,20,2026-10-07 19:01:20.585243,25.0,0.4310395752075777,0.0446899029091449,0.0664881332791897
60,cdot_cos,Q,P-Q,21,4,4606,-0.0159105001917233,-0.0149848778226399,-0.0581796377292644,0.1893113675358403,858.0,0.2054509900802436,0.5112063928763002,2.3426419934444014,-0.0006630628096018,0.105,0.9999999999999998,4.645026616926699,0.1043099850122724,21,2026-10-07 19:01:20.690243,25.0,0.1928099477856333,0.1764302245296663,0.0872063715775237
60,cdot_cos,R,Q-R,22,4,4635,0.166849147573028,0.2405896560072259,0.1827596477647513,0.9897379866439384,858.0,0.2333446682158335,0.5124347475051255,2.40353201816706,-0.0022058905912974,0.029,0.9999999999999996,-1.2560116968591035,0.1092771263969049,22,2026-10-07 19:01:20.719244,25.0,0.4968770593770662,0.5774072135518511,0.9618509701927552
60,cdot_cos,S,R-S,23,4,4657,-0.0011918923008793,-0.0025906784537137,-0.1680410398739073,0.0147591049621628,858.0,0.238940608466251,0.5124530637937262,2.457638560187239,-0.0004763131202148,0.022,0.9999999999999996,94.42838059533923,0.1142442677449974,23,2026-10-07 19:01:20.741244,25.0,0.0264849807552241,0.2443055130621347,0.2543609204735234
60,cdot_cos,T,S-T,24,4,4900,-0.2984452624461783,0.1395409709300959,-0.2972533701452989,0.0005920458511503,858.0,0.2440941107905675,0.5124537985315312,2.5105006489619264,-0.0004486377988356,0.243,0.9999999999999998,37.66693532508995,0.1192114128712238,24,2026-10-07 19:01:20.984244,25.0,0.9401766939473672,0.0720521937903203,0.0212078284951296
60,cdot_cos,P,T-P,25,5,5359,0.0400570426791642,-0.0024283590072492,0.3385023051253426,0.9997888134806396,880.0,0.2739579746483467,0.5136944721577992,2.56847236433769,-0.0027879056062896,0.459,0.9999999999999996,-1.885482013904476,0.1241785623411726,25,2026-10-07 19:01:21.443244,25.0,0.4321091242620797,0.0439253862753591,0.0650628842217411
60,cdot_cos,Q,P-Q,26,5,5450,-0.0157045361134488,-0.0120039329605866,-0.0557615787926131,0.1987636614619555,880.0,0.2844176153913472,0.5139411054581371,2.620595730879653,-0.0010524221619689,0.091,0.9999999999999996,7.036695539259463,0.1291457048537577,26,2026-10-07 19:01:21.534244,25.0,0.1922348760750221,0.2281072506801277,0.1149411070659394
60,cdot_cos,R,Q-R,27,5,5480,0.1844427841324574,0.2114924331229917,0.2001473202459062,0.993331589477054,880.0,0.3154734942721299,0.5151735638818402,2.6769203677411246,-0.0033566082292692,0.03,0.9999999999999992,-1.869585231424715,0.1341128461546019,27,2026-10-07 19:01:21.564243,25.0,0.5033534778609241,0.6180272216723081,1.035195962692757
60,cdot_cos,S,R-S,28,5,5507,-0.0035802395943288,-0.0061899098472131,-0.1880230237267862,0.0090081588733265,880.0,0.3214992486916856,0.5151847397723527,2.726101407115571,-0.0006915380669345,0.027,0.9999999999999994,238.4660228516664,0.1390799874838945,28,2026-10-07 19:01:21.591244,25.0,0.0211983904996522,0.2176142187856045,0.2231760896131747
60,cdot_cos,T,S-T,29,5,5738,-0.2694060881564664,0.1840029803141947,-0.2658258485621376,0.0012979813377518,880.0,0.3272246620865526,0.5151863500998621,2.774363407473174,-0.000669191606759,0.231,0.9999999999999992,13.876966048429932,0.1440471340491396,29,2026-10-07 19:01:21.822243,25.0,0.9671581822951636,0.0833644710627704,0.0247853393717185
60,cdot_cos,P,T-P,30,6,6239,0.0424721128830239,0.0011673043035049,0.3118782010394904,0.9995891843261032,837.0,0.3600136343226856,0.516426384211724,2.828583806418428,-0.0040592959870041,0.501,0.9999999999999996,-2.7338799375082323,0.1490142884297496,30,2026-10-07 19:01:22.323244,25.0,0.4338111859212766,0.0436925138850201,0.065447050371523
60,cdot_cos,Q,P-Q,31,6,6340,-0.0175789600045395,-0.0160594623973289,-0.0600510728875635,0.1822351675196256,837.0,0.3710045609993428,0.5166524335590673,2.876599017881101,-0.0014473216425445,0.101,0.9999999999999992,11.554885582098867,0.1539814316511228,31,2026-10-07 19:01:22.424243,25.0,0.1645246047508919,0.2214783308510478,0.1088210562045265
60,cdot_cos,R,Q-R,32,6,6362,0.1653485026962657,0.2362551370727757,0.1829274627008053,0.9897805103785114,837.0,0.4047522571545973,0.5178800622208996,2.929572041663444,-0.004715183059104,0.022,0.9999999999999992,-2.6619298800683096,0.1589485725271535,32,2026-10-07 19:01:22.446244,25.0,0.500048189919164,0.9192616551879716,1.533986188875203
60,cdot_cos,S,R-S,33,6,6391,-0.0023969542986747,-0.0052897723653185,-0.1677454569949404,0.0148669449449087,837.0,0.4114520738276135,0.5178985001430744,2.9751003896035355,-0.0009848940037218,0.029,0.9999999999999988,202.31612976850505,0.1639157137691102,33,2026-10-07 19:01:22.475244,25.0,0.022652092152644,0.2228389483975043,0.2310281611384904
60,cdot_cos,T,S-T,34,6,6637,-0.2685947818752177,0.1095119522620541,-0.2661978275765429,0.0012859821941342,837.0,0.4176769161616525,0.5179000950104572,3.019850551436397,-0.000929561302919,0.246,0.9999999999999988,34.694233137270615,0.168882862798073,34,2026-10-07 19:01:22.721244,25.0,0.9422114060719776,0.0847498984822733,0.0253042371302397
60,cdot_cos,P,T-P,35,7,7076,0.044530462411188,-0.0030012194174782,0.3131252442864057,0.9996017893403588,843.0,0.453149023880892,0.5191396822785787,3.0712717922285604,-0.0055624492426847,0.439,0.9999999999999986,-3.737443953249552,0.173850019645844,35,2026-10-07 19:01:23.160243,25.0,0.4347925184509291,0.0537772628129955,0.0808020676975843
60,cdot_cos,Q,P-Q,36,7,7166,-0.016562966330523,-0.0131879827892966,-0.061093428741711,0.1783838364434153,843.0,0.4648933529114626,0.5193608683663478,3.1161652275925698,-0.0019414393707581,0.09,0.9999999999999984,16.370875349567097,0.1788171630614453,36,2026-10-07 19:01:23.250243,25.0,0.1548782239406985,0.2677552098135687,0.1304925447841178
60,cdot_cos,R,Q-R,37,7,7196,0.1892645931201301,0.2286684587778615,0.2058275594506531,0.9942092678793616,843.0,0.5013449616473344,0.5205934914270534,3.1666466013411694,-0.0063408599028556,0.03,0.9999999999999982,-3.5691531923628603,0.1837843040910427,37,2026-10-07 19:01:23.280244,25.0,0.4996633004163836,0.7239868643505417,1.215053624529061
60,cdot_cos,S,R-S,38,7,7224,-0.0014793127482151,-0.0028590691147673,-0.1907439058683452,0.0084207694512716,843.0,0.5083325647724951,0.5206039304679176,3.209218177277675,-0.0012701569095783,0.028,0.9999999999999982,485.7441463444805,0.1887514451739513,38,2026-10-07 19:01:23.308243,25.0,0.0184593126666373,0.2435571651446731,0.2495572544700238
60,cdot_cos,T,S-T,39,7,7456,-0.3406255760064527,0.1039117182201846,-0.3391462632582376,0.0002078145593286,843.0,0.5149841628954361,0.5206041880907838,3.251172131022526,-0.0012254130808062,0.232,0.9999999999999978,173.67957060864296,0.1937185960062917,39,2026-10-07 19:01:23.540244,25.0,0.9641453073995736,0.0961742049028878,0.0286706815644009
60,cdot_cos,P,T-P,40,8,7919,0.0400582650585564,0.0008571109468316,0.3806838410650092,0.9999264223764978,875.0,0.5529573958474351,0.5218436441580508,3.300429017383737,-0.0072992785162329,0.463,0.9999999999999978,-4.900428176384947,0.1986857589774919,40,2026-10-07 19:01:24.003244,25.0,0.4351264492856781,0.0549941875767831,0.0820156219265636
60,cdot_cos,Q,P-Q,41,8,8022,-0.0176236569128702,-0.0154764553359732,-0.0576819219714266,0.1912283967372115,875.0,0.5659087805915374,0.5220806506304856,3.3429472953727686,-0.0026081412331438,0.103,0.9999999999999972,19.793287646947373,0.2036529036928729,41,2026-10-07 19:01:24.106244,25.0,0.1655219351295894,0.2509651422292817,0.1257415994573038
60,cdot_cos,R,Q-R,42,8,8050,0.1686159524519065,0.2249702444445981,0.1862396093647767,0.990584988048517,875.0,0.6046562151466671,0.523308209789409,3.391424841696856,-0.0081616553198161,0.028,0.9999999999999972,-4.524029694457289,0.2086200444368236,42,2026-10-07 19:01:24.134243,25.0,0.5063942949102364,0.8275271107593506,1.3838369483974908
60,cdot_cos,S,R-S,43,8,8072,-0.0031887416065256,-0.0062946306819454,-0.1718046940584322,0.0134515598836585,875.0,0.612250298794061,0.5233248774146837,3.431670740727621,-0.0016629186456666,0.022,0.999999999999997,389.9017746694728,0.2135871849805196,43,2026-10-07 19:01:24.156243,25.0,0.0200800110759497,0.3349171170353109,0.3451856203360859
60,cdot_cos,T,S-T,44,8,8315,-0.2528651413120006,0.1392586778800706,-0.2496763997054749,0.0019423547831282,875.0,0.6193925682962208,0.5233272841529526,3.47136051709592,-0.0015829210145113,0.243,0.9999999999999964,33.23902403058579,0.2185543391124599,44,2026-10-07 19:01:24.399244,25.0,0.9507178193740516,0.0975870995066007,0.0293920555644435
60,cdot_cos,P,T-P,45,9,8794,0.0219414534750821,0.0011693993494819,0.2748065947870828,0.998962771095505,839.0,0.659677629154269,0.5245649355955376,3.518888596878169,-0.0092698650681631,0.479,0.9999999999999962,-6.210911884525762,0.2235215090329905,45,2026-10-07 19:01:24.878243,25.0,0.4363807558631846,0.058485524688279,0.084102423503232
60,cdot_cos,Q,P-Q,46,9,8891,-0.0217983572809931,-0.0194978997566815,-0.0437398107560752,0.2509606680493489,839.0,0.6754217009475921,0.5248758131073489,3.559881006301598,-0.003781280388887,0.097,0.9999999999999958,17.65513577131478,0.2284886541862127,46,2026-10-07 19:01:24.975244,25.0,0.234215215648906,0.2925375344123465,0.1623100184878675
60,cdot_cos,R,Q-R,47,9,8916,0.1612610535791565,0.2249698903271564,0.1830594108601496,0.9898138230881104,839.0,0.7164299108302642,0.5261017546502386,3.606771957807581,-0.0102650989963009,0.025,0.9999999999999952,-5.288848106191756,0.2334557944852017,47,2026-10-07 19:01:25.000243,25.0,0.5317205437282603,0.9825134627731292,1.6403283953068826
60,cdot_cos,S,R-S,48,9,8946,-0.0045948478813284,-0.009998027537088,-0.1658559014604849,0.0155748944088809,839.0,0.7245473740862486,0.5261210425801578,3.645073550110488,-0.0021036578527587,0.03,0.9999999999999952,423.1372250790166,0.2384229353497863,48,2026-10-07 19:01:25.030244,25.0,0.0206582019780726,0.2671480389868049,0.270582108532813
60,cdot_cos,T,S-T,49,9,9193,-0.1824358567663091,0.0698788958386286,-0.1778410088849807,0.0115891948307846,839.0,0.7324587931694725,0.526135394574083,3.682947805709617,-0.0020730611545011,0.247,0.9999999999999944,2.1318778712637285,0.2433900929918329,49,2026-10-07 19:01:25.277244,25.0,0.9853491954477624,0.1018876862389534,0.0320300367741858
60,cdot_cos,P,T-P,50,10,9633,0.0389116126746361,-0.0015170006263609,0.2213474694409452,0.9960641576117238,878.0,0.7748798910882916,0.5273687509909617,3.729060249565028,-0.0114967243072295,0.44,0.9999999999999944,-7.640664956020661,0.2483572668710825,50,2026-10-07 19:01:25.717243,25.0,0.4405715355716109,0.0650186290744788,0.0964115861791343
60,cdot_cos,Q,P-Q,51,10,9728,-0.0166084195721148,-0.0134374220181218,-0.0555200322467509,0.1997271085606731,878.0,0.7896751867550139,0.5276160193501221,3.767932100118204,-0.0041617135293469,0.095,0.9999999999999938,29.664170550519582,0.2533244127722611,51,2026-10-07 19:01:25.812243,25.0,0.1716156730829922,0.3055125767233932,0.1557399543865508
60,cdot_cos,R,Q-R,52,10,9756,0.1784802105771607,0.2203953609563684,0.1950886301492755,0.9924394026493936,878.0,0.8329272806657363,0.5288444868450107,3.8135518904013455,-0.0126140942158156,0.028,0.9999999999999934,-6.880426809530923,0.2582915530766886,52,2026-10-07 19:01:25.840243,25.0,0.5116705456761853,0.9214799208277066,1.5447176396686564
60,cdot_cos,S,R-S,53,10,9782,-0.0033196310031251,-0.0061542508280235,-0.1817998415802858,0.0105086110708683,878.0,0.8412780623213655,0.5288574928362785,3.850140726143056,-0.0025128776626536,0.026,0.9999999999999928,776.6587217548862,0.2632586934005798,53,2026-10-07 19:01:25.866244,25.0,0.0179569065770488,0.3134201427681714,0.321183909831892
60,cdot_cos,T,S-T,54,10,10032,-0.2689836487494654,0.164532001154721,-0.2656640177463403,0.0013032364518151,878.0,0.8492251280896812,0.5288591057852308,3.8863049277706514,-0.0024146719291064,0.25,0.9999999999999922,60.88582866046038,0.268225854898643,54,2026-10-07 19:01:26.116243,25.0,0.9601455177851462,0.1051881104589282,0.0317882630732628
60,cdot_cos,P,T-P,55,11,10511,0.0371463245694755,-0.0025629446373689,0.3061299733189409,0.9995257252297968,858.0,0.8938721175508296,0.5300959875482819,3.93129713113114,-0.0139836971357439,0.479,0.999999999999992,-9.35338004992408,0.2731930396218525,55,2026-10-07 19:01:26.595244,25.0,0.4372184373274603,0.0627777369803627,0.0932087462654455
60,cdot_cos,Q,P-Q,56,11,10601,-0.0185049451966991,-0.0145075318481415,-0.0556512697661746,0.1992032125313809,858.0,0.9093662001168688,0.5303424515949491,3.968719588314952,-0.0050199713042874,0.09,0.9999999999999908,36.369303972198615,0.2781601858872905,56,2026-10-07 19:01:26.685244,25.0,0.1676942392389884,0.3379866442687285,0.1721564729559903
60,cdot_cos,R,Q-R,57,11,10631,0.1831296775730962,0.2166014616545596,0.2016346227697954,0.9935734207954616,858.0,0.9547097135192008,0.5315715263198416,4.013277101927774,-0.0151819760149219,0.03,0.9999999999999905,-8.268012110917828,0.2831273261056746,57,2026-10-07 19:01:26.715244,25.0,0.5120430143659709,0.9005070525245814,1.5114504467444
60,cdot_cos,S,R-S,58,11,10658,-0.0039669496072568,-0.0071822205781336,-0.1870966271803531,0.0092172762950531,858.0,0.9633966232683436,0.5315829265470955,4.048415043626338,-0.0029928591119909,0.027,0.9999999999999896,1069.199466947955,0.2880944662200875,58,2026-10-07 19:01:26.742244,25.0,0.0170307749834503,0.3148356387599739,0.3217373981164029
60,cdot_cos,T,S-T,59,11,10891,-0.2740162220691505,0.1546644437953939,-0.2700492724618936,0.0011680722174337,858.0,0.9717108380122392,0.5315843712544698,4.08317712131988,-0.0028898443327695,0.233,0.9999999999999885,71.30494455473271,0.2930616297070215,59,2026-10-07 19:01:26.975244,25.0,0.9649807052251654,0.1179608878460088,0.0356833250810969
60,cdot_cos,P,T-P,60,12,11369,0.0283993842059939,-0.0027714201228371,0.3024156062751444,0.9994795988978492,820.0,1.0183663970045838,0.5328203615604682,4.127208870770719,-0.0166718037785946,0.478,0.999999999999988,-11.15054008024132,0.298028822730045,60,2026-10-07 19:01:27.453243,25.0,0.4375069151729444,0.0657271744794188,0.0976057719505115
60,cdot_cos,Q,P-Q,61,12,11460,-0.0272504798104703,-0.0216177423578376,-0.0556498640164642,0.1992088187659182,820.0,1.0345460168145637,0.5330666622767425,4.163383842073886,-0.0059637534513821,0.091,0.9999999999999866,43.47551435980131,0.3029959700280737,61,2026-10-07 19:01:27.544243,25.0,0.1660407619400264,0.3488886516730612,0.1777980198898895
60,cdot_cos,R,Q-R,62,12,11490,0.1764766546526381,0.2286026312173677,0.2037271344631085,0.9938989724819776,820.0,1.081864131609081,0.5342952704754093,4.207045285639029,-0.0179747885033979,0.03,0.9999999999999868,-9.776131288273724,0.3079631099857184,62,2026-10-07 19:01:27.574244,25.0,0.512622458131232,0.9407043682508368,1.5772704931505732
60,cdot_cos,S,R-S,63,12,11518,-0.0034140044035862,-0.0073674580879657,-0.1798906590562244,0.0110166854655026,820.0,1.090988278909614,0.5343088864473586,4.240945429827413,-0.0035584216449287,0.028,0.9999999999999856,1058.78353099348,0.3129302499327506,63,2026-10-07 19:01:27.602243,25.0,0.0173990887309222,0.3179287011065568,0.3258624035904648
60,cdot_cos,T,S-T,64,12,11751,-0.266438549597206,0.1101833528637716,-0.2630245451936197,0.0013920098938001,820.0,1.099668138871048,0.5343106068856566,4.274484974862885,-0.0034128851355113,0.233,0.999999999999984,84.59269338051462,0.317897417364071,64,2026-10-07 19:01:27.835244,25.0,0.9582531872217338,0.1228979164299064,0.0372526178602324
60,cdot_cos,P,T-P,65,13,12189,0.0527546498924976,-0.0002363993881823,0.3191931994897036,0.9996578195150336,818.0,1.1482587079659503,0.5355459089539775,4.317709284432209,-0.0195982909147179,0.438,0.999999999999984,-13.102387014705505,0.3228646139954247,65,2026-10-07 19:01:28.273243,25.0,0.4378591382499188,0.0725642526432333,0.1109373723627904
60,cdot_cos,Q,P-Q,66,13,12290,-0.0156764135349411,-0.014986188473079,-0.0684310634274387,0.153063016163889,818.0,1.1632344241865205,0.535735014620568,4.352331984850188,-0.0062107023242448,0.101,0.999999999999982,70.79422225594868,0.3278317638070567,66,2026-10-07 19:01:28.374244,25.0,0.1158374247345915,0.3169530384915706,0.1482744180254469
60,cdot_cos,R,Q-R,67,13,12319,0.1699892406879289,0.2574027452981447,0.1856656542228701,0.9904502187299006,818.0,1.2122832217412476,0.5369584412490919,4.39519442107768,-0.0208973786788409,0.029,0.9999999999999812,-12.004542006999626,0.3327989033761488,67,2026-10-07 19:01:28.403244,25.0,0.4951968424620924,1.0102436598837157,1.6913378467147286
60,cdot_cos,S,R-S,68,13,12341,-0.0032396466908975,-0.0076342588125728,-0.1732288873788265,0.012987155986945,818.0,1.221828556459776,0.5369744803567098,4.428005157641826,-0.0041671083926444,0.022,0.99999999999998,1043.09233934472,0.3377660421313671,68,2026-10-07 19:01:28.425244,25.0,0.0180458553949473,0.4206855214662303,0.4338788508421984
60,cdot_cos,T,S-T,69,13,12588,-0.3239663500318115,0.1062162184186042,-0.3207267033409139,0.0003293146265783,818.0,1.2307933846857615,0.5369748870585177,4.46044856688092,-0.0039434437161052,0.247,0.9999999999999784,549.9475836982892,0.3427332159596441,69,2026-10-07 19:01:28.672243,25.0,0.9448603780258624,0.1202535791693377,0.0362948511173503
60,cdot_cos,P,T-P,70,14,13007,0.0420893275085962,-0.0032099550503278,0.3660556775404077,0.9998939391959224,740.0,1.2812338245694288,0.538209521401172,4.502984094234874,-0.0227166400357802,0.419,0.9999999999999782,-15.205470697758088,0.3477004183327336,70,2026-10-07 19:01:29.091244,25.0,0.4376187142485022,0.0785189483362192,0.120382911416867
60,cdot_cos,Q,P-Q,71,14,13098,-0.027587427704772,-0.0253637462411125,-0.0696767552133682,0.1490693650506474,740.0,1.2965922633915137,0.5383935473138108,4.536584859987114,-0.007097688673427,0.091,0.9999999999999762,84.87365251111314,0.3526675678346332,71,2026-10-07 19:01:29.182244,25.0,0.1107401652470023,0.3643646284906226,0.1687740529899437
60,cdot_cos,R,Q-R,72,14,13128,0.1712031622499439,0.2741181139680002,0.198790589954716,0.993103115744621,740.0,1.347548186954722,0.5396192622328834,4.578821472782187,-0.0241450620926224,0.03,0.9999999999999758,-13.908106325486134,0.3576347073424806,72,2026-10-07 19:01:29.212243,25.0,0.4935950956289418,1.013900634649819,1.698530785440274
60,cdot_cos,S,R-S,73,14,13156,-0.0019340817057181,-0.0059817079454035,-0.1731372439556621,0.0130165570364752,740.0,1.3574263014705026,0.53963532447382,4.610646431809178,-0.0047883306930147,0.028,0.999999999999974,1205.10777269248,0.3626018467872287,73,2026-10-07 19:01:29.240243,25.0,0.0175538835097069,0.3424613978012842,0.3527898041350246
60,cdot_cos,T,S-T,74,14,13387,-0.2874583205970442,0.037736270099602,-0.285524238891326,0.0007936246733681,740.0,1.366726025231594,0.5396363037923931,4.642127210107709,-0.0045399200772242,0.231,0.999999999999972,253.6565961349702,0.3675690226254977,74,2026-10-07 19:01:29.471244,25.0,0.9467530810021548,0.1331350635841862,0.0402585444203093
60,cdot_cos,P,T-P,75,15,13747,0.0408122519563561,0.0016331159132199,0.3282705725534003,0.9997272724042312,798.0,1.4189347008463966,0.5408697037739656,4.684069249636694,-0.0260521784865785,0.36,0.9999999999999722,-17.44142916390214,0.3725362231807567,75,2026-10-07 19:01:29.831244,25.0,0.4379119523673552,0.0967694422050453,0.1450240989300071
60,cdot_cos,Q,P-Q,76,15,13851,-0.0183418102782067,-0.0188426729662019,-0.0591540622345629,0.1856009476654496,798.0,1.4364000236192267,0.5410986317859705,4.717188746168016,-0.0089325194987305,0.104,0.9999999999999696,74.7818444668118,0.3775033765797537,76,2026-10-07 19:01:29.935244,25.0,0.1471129915816486,0.3366084243189358,0.1679357958925969
60,cdot_cos,R,Q-R,77,15,13880,0.1636027319583413,0.2729783716323067,0.1819445422365481,0.9895289379857912,798.0,1.4889492531047352,0.5423188632727065,4.758828955239914,-0.0275236700648464,0.029,0.9999999999999696,-15.235757123302392,0.3824705157949655,77,2026-10-07 19:01:29.964243,25.0,0.5089220335280101,1.084345997186833,1.8120423960520189
60,cdot_cos,S,R-S,78,15,13902,-0.0009489647588832,-0.0026042878023063,-0.1645516967172246,0.01608278340514,798.0,1.499292091456063,0.5423386915052368,4.789805876036473,-0.0055336888684482,0.022,0.9999999999999676,1109.0237701602482,0.387437653888376,78,2026-10-07 19:01:29.986243,25.0,0.0188011422129708,0.4530007710106204,0.4701290159694439
60,cdot_cos,T,S-T,79,15,14146,-0.341032790094512,0.0907176973487603,-0.3400838253356287,0.000203001202519,798.0,1.5088812870292023,0.542338941781645,4.820414198973859,-0.0051646908787162,0.244,0.9999999999999656,1474.361856374163,0.3924048374255615,79,2026-10-07 19:01:30.230243,25.0,0.931046285010066,0.1301908967238104,0.0392999818571283
60,cdot_cos,P,T-P,80,16,14545,0.037837822330696,-0.0030029539850058,0.378870612425208,0.9999230105611286,782.0,1.5628252490572825,0.5435714664989502,4.86185126148405,-0.0296549052093131,0.399,0.9999999999999648,-19.86995797061414,0.3973720545698225,80,2026-10-07 19:01:30.629244,25.0,0.4378669201881091,0.0896943034969316,0.1351978998197497
60,cdot_cos,Q,P-Q,81,16,14635,-0.0237451373837065,-0.0201077190396714,-0.0615829597144025,0.1765972122144639,782.0,1.580457341219754,0.5437890886955322,4.894102091965066,-0.009918088349908,0.09,0.9999999999999624,90.6930320959386,0.4023392066139943,81,2026-10-07 19:01:30.719244,25.0,0.1366978919300948,0.4004038797353079,0.1959121351385725
60,cdot_cos,R,Q-R,82,16,14665,0.1814220594828217,0.2546013181997952,0.2051671968665283,0.9941134422416792,782.0,1.634897947409638,0.5450138285774119,4.935310423024019,-0.0313113778177129,0.03,0.999999999999962,-17.467618866931844,0.4073063458231747,82,2026-10-07 19:01:30.749243,25.0,0.5049765373394353,1.0802743635699183,1.8146868729961296
60,cdot_cos,S,R-S,83,16,14692,-0.0037767804748564,-0.008943070781101,-0.1851988399576782,0.0096608004901983,782.0,1.645273803033949,0.5450257279600159,4.965420994061413,-0.006087919338715,0.027,0.9999999999999594,2119.728335353395,0.4122734846661621,83,2026-10-07 19:01:30.776243,25.0,0.0158720030868666,0.3772508127604965,0.3842909490485631
60,cdot_cos,T,S-T,84,16,14925,-0.2432409765092701,0.0687129492415828,-0.2394641960344137,0.0025058834566948,782.0,1.6552694912987047,0.5450288144935707,4.995271897998897,-0.0059012774844408,0.233,0.9999999999999571,60.46973116085468,0.4172406712267837,84,2026-10-07 19:01:31.009243,25.0,0.9688675492217034,0.1406608116376415,0.0428999496341442
60,cdot_cos,P,T-P,85,17,15327,0.0182402212177541,0.0010572898069244,0.2614811977270243,0.9985533108523212,777.0,1.71082174125709,0.5462584694685522,5.036254565869279,-0.0334332649313175,0.402,0.9999999999999568,-22.39001021184071,0.4222078989747123,85,2026-10-07 19:01:31.411244,25.0,0.4388968581679154,0.0915072083491072,0.1381896765133964
60,cdot_cos,Q,P-Q,86,17,15432,-0.0442419883499565,-0.03840038329742,-0.0624822095677107,0.173351931356124,777.0,1.728841286811387,0.5464718843056776,5.0677721313763895,-0.0110809325436969,0.105,0.9999999999999538,104.7365435725618,0.4271750561217222,86,2026-10-07 19:01:31.516243,25.0,0.1330289183931717,0.3522750078968485,0.1716147195647319
60,cdot_cos,R,Q-R,87,17,15461,0.1460447418007563,0.2626679402494002,0.1902867301507129,0.9914832585473634,777.0,1.7847994929154285,0.5476921761159708,5.1085328972264685,-0.0351347054860993,0.029,0.9999999999999531,-19.711492562278167,0.4321421948114062,87,2026-10-07 19:01:31.545243,25.0,0.5042839606653635,1.1599258732937134,1.929593313932468
60,cdot_cos,S,R-S,88,17,15486,-0.0032467232531515,-0.0112884927975225,-0.1492914650539079,0.0233784028184377,777.0,1.7961169874624223,0.5477209427867754,5.138078251189567,-0.0072419388547628,0.025,0.9999999999999504,969.6209485190142,0.4371093328069917,88,2026-10-07 19:01:31.570244,25.0,0.0212465523870696,0.4439834571358236,0.4526997818797529
60,cdot_cos,T,S-T,89,17,15724,-0.1704917441960419,0.0177405948409061,-0.1672450209428904,0.0150512950903859,777.0,1.80699866577222,0.547739462944488,5.167364126462753,-0.0070061810174133,0.238,0.999999999999948,12.7297964200716,0.4420765262733078,89,2026-10-07 19:01:31.808243,25.0,0.9669098851111146,0.142292476873709,0.0457213374361233
60,cdot_cos,P,T-P,90,18,16104,0.0203026805344483,0.0015336885030201,0.1907944247304903,0.9915897696399008,838.0,1.863848206454308,0.5489592901484188,5.207885490207819,-0.0372729397436277,0.38,0.9999999999999476,-24.81233295066953,0.4470437587473459,90,2026-10-07 19:01:32.188244,25.0,0.4439557599412974,0.1041884670570425,0.1496040544265483
60,cdot_cos,Q,P-Q,91,18,16211,-0.0229177067048829,-0.0225203905905318,-0.0432203872393313,0.2534095763862362,838.0,1.886181900735572,0.549270934039613,5.239711192809192,-0.0149569156185559,0.107,0.999999999999944,71.60744925741389,0.4520109184863328,91,2026-10-07 19:01:32.295244,25.0,0.2249177587533705,0.3727703012610747,0.2087261147781679
60,cdot_cos,R,Q-R,92,18,16241,0.155872058748638,0.2456898848437227,0.178789765453521,0.9886793787119118,838.0,1.9436210509241776,0.5504864432377999,5.280080916282902,-0.0392661565902947,0.03,0.9999999999999436,-19.99922420002997,0.4569780572314799,92,2026-10-07 19:01:32.325243,25.0,0.5384347919731878,1.1479538921025527,1.9146383396201856
60,cdot_cos,S,R-S,93,18,16265,-0.0021921489360425,-0.005961822895076,-0.1580642076846806,0.0188612341206225,838.0,1.955059134261725,0.5505096259374291,5.30892301542012,-0.0079597737382182,0.024,0.9999999999999406,1350.4200698285542,0.4619451945955631,93,2026-10-07 19:01:32.349244,25.0,0.0195833714763641,0.4577667969295715,0.4765868057311402
60,cdot_cos,T,S-T,94,18,16502,-0.2755713905646867,0.1067802362549504,-0.2733792416286441,0.0010748689973062,838.0,1.9655938571767968,0.5505109470726384,5.337402101822623,-0.0073724382670708,0.237,0.9999999999999372,444.5687822438181,0.4669123940994084,94,2026-10-07 19:01:32.586244,25.0,0.923424367510104,0.1463318082652112,0.044450307658531
60,cdot_cos,P,T-P,95,19,16942,0.0479094394623884,-0.0022877810502696,0.3234808300270752,0.9996925900035196,838.0,2.024420411379435,0.5517393710336435,5.377690652069896,-0.0418752069662461,0.44,0.9999999999999364,-28.08702027510552,0.4718796553396487,95,2026-10-07 19:01:33.026243,25.0,0.4386986084123662,0.0885224628806368,0.1336967140969051
60,cdot_cos,Q,P-Q,96,19,17038,-0.0145189525568485,-0.0126079802593378,-0.0624283920192369,0.173544818863841,838.0,2.0434936245117576,0.551952559331708,5.408009054953474,-0.0138409506392222,0.096,0.9999999999999324,131.4999771635828,0.4768468136999863,96,2026-10-07 19:01:33.122243,25.0,0.1319334788936408,0.4073862399405399,0.1986793034616935
60,cdot_cos,R,Q-R,97,19,17068,0.1782909181318732,0.2423547647753944,0.1928098706887217,0.9919997238352728,838.0,2.1026385694480187,0.5531707963675465,5.448101048123627,-0.0437226126797363,0.03,0.9999999999999316,-24.528610739489817,0.4818139520382994,97,2026-10-07 19:01:33.152243,25.0,0.5048786139691718,1.174488452451746,1.9714981645420369
60,cdot_cos,S,R-S,98,19,17091,-0.0037377105776861,-0.0078324228280906,-0.1820286287095593,0.0104493030345002,838.0,2.1139629316588624,0.5531836253867181,5.476239034570136,-0.0085137177933794,0.023,0.9999999999999276,2744.472856073854,0.4867810885019368,98,2026-10-07 19:01:33.175244,25.0,0.0159938862489572,0.4802701876193573,0.4923635743845066
60,cdot_cos,T,S-T,99,19,17342,-0.344255719126156,0.0727641231860022,-0.3405180085484698,0.000200810065594,838.0,2.124730998078509,0.553183871928418,5.504110566413336,-0.0081379061575998,0.251,0.999999999999924,1524.3329459664635,0.4917482987196221,99,2026-10-07 19:01:33.426244,25.0,0.9548697029142597,0.1417111188012438,0.0429006630264812
60,cdot_cos,P,T-P,100,20,17780,0.0269907997064327,-0.0030369788548977,0.3712465188325887,0.9999068459635622,780.0,2.185101913297087,0.5544111665528731,5.544112235391847,-0.046365932118597,0.438,0.9999999999999232,-31.148206143222108,0.4967155720339793,100,2026-10-07 19:01:33.864243,25.0,0.438460643091535,0.0930660652400808,0.137833139768442
60,cdot_cos,Q,P-Q,101,20,17870,-0.0271096653598251,-0.0228180528849471,-0.0541004650662578,0.2054600549151294,780.0,2.20625687122882,0.5546632684124367,5.574297489635884,-0.0165528793197315,0.09,0.9999999999999184,118.25796465950025,0.5016827300590697,101,2026-10-07 19:01:33.954243,25.0,0.1651205324782977,0.4549265662645229,0.2350550881303685
60,cdot_cos,R,Q-R,102,20,17901,0.1737035144616531,0.2441994672735585,0.2008131798214782,0.9934409542161527,780.0,2.266988695224701,0.555881832869913,5.6141319570221775,-0.0483798611468338,0.031,0.9999999999999178,-26.11842289657657,0.5066498683240268,102,2026-10-07 19:01:33.985244,25.0,0.5179606536678428,1.1680111089435792,1.959091096641321
60,cdot_cos,S,R-S,103,20,17928,-0.0031072111972662,-0.0077608876195696,-0.1768107256589194,0.0118879814660929,780.0,2.278673559983322,0.5558964107455312,5.6417330366717495,-0.0094589635139853,0.027,0.9999999999999132,2669.8607295184056,0.5116170055724946,103,2026-10-07 19:01:34.012243,25.0,0.0163306654804905,0.4221496947570063,0.4327727688378133
60,cdot_cos,T,S-T,104,20,18160,-0.2629073990587406,0.0705034704400887,-0.2598001878614743,0.0015086885366817,780.0,2.28978477874158,0.5558982607982166,5.669072802654753,-0.0090396933714186,0.232,0.9999999999999089,226.62605550622405,0.5165842160963154,104,2026-10-07 19:01:34.244244,25.0,0.9546781473837376,0.1572271201505448,0.0478931843028354
60,cdot_cos,P,T-P,105,21,18560,0.0247866346517338,0.0015435950723605,0.2876940337104744,0.9992482470999492,818.0,2.3516269437331747,0.5571232615385474,5.70881530996281,-0.0510873616066963,0.4,0.999999999999908,-34.32460638670487,0.5215514891813572,105,2026-10-07 19:01:34.644243,25.0,0.4390885342617031,0.1072047371363382,0.1546054124789875
60,cdot_cos,Q,P-Q,106,21,18661,-0.0193051073552353,-0.0184372649543534,-0.0440917420069692,0.2493103988968725,818.0,2.37554856845065,0.5574287890440254,5.739081382796315,-0.0201237767224812,0.101,0.9999999999999024,101.34467217861756,0.5265186531655289,106,2026-10-07 19:01:34.745243,25.0,0.2146692623909993,0.425676773917665,0.2368477694799521
60,cdot_cos,R,Q-R,107,21,18684,0.1660398225443808,0.252086721152677,0.1853449298996162,0.9903740797823368,818.0,2.437613652064543,0.5586420516244863,5.778639069660405,-0.0531308728937814,0.023,0.9999999999999022,-27.20523710437027,0.5314857881092395,107,2026-10-07 19:01:34.768243,25.0,0.537277064778672,1.612950484115158,2.6984818962562254
60,cdot_cos,S,R-S,108,21,18714,-0.0017591048895401,-0.0042613068707986,-0.167798927433921,0.0148473795433089,818.0,2.449744290719947,0.5586602351898866,5.805768224268463,-0.0105444316245597,0.03,0.9999999999998972,2342.0292077894323,0.5364529261921391,108,2026-10-07 19:01:34.798244,25.0,0.017619285759856,0.3908730238938451,0.404354621846803
60,cdot_cos,T,S-T,109,21,18959,-0.3613050720268829,0.0180027536105234,-0.3595459671373428,0.0001248030093134,818.0,2.4610660334981738,0.5586603880352945,5.832586442734615,-0.0098885308963951,0.245,0.999999999999892,4291.268787443541,0.5414201488970652,109,2026-10-07 19:01:35.043243,25.0,0.9358225150562316,0.1524059768620841,0.0462111950131698
60,cdot_cos,P,T-P,110,22,19378,0.0396334494065642,-0.0027450337648757,0.4009385214334471,0.9999556548575116,839.0,2.5244232193823684,0.5598846677453971,5.872120733889438,-0.0561452818671114,0.419,0.9999999999998912,-37.78282902919164,0.5463874428388641,110,2026-10-07 19:01:35.462244,25.0,0.438727839845811,0.1014318560708794,0.1512104675040443
60,cdot_cos,Q,P-Q,111,22,19468,-0.0171339692233483,-0.0137639178304052,-0.0567674186299125,0.1947893086242106,839.0,2.5460659288855707,0.5601230706415876,5.901263605043321,-0.0195038643836001,0.09,0.9999999999998846,153.69535382756064,0.5513546044724358,111,2026-10-07 19:01:35.552243,25.0,0.1527924603306724,0.474055578305959,0.2404745500355816
60,cdot_cos,R,Q-R,112,22,19498,0.1862973102836349,0.2266300457194502,0.2034312795069832,0.9938539580778896,839.0,2.609753223477441,0.5613390158030853,5.94065463504843,-0.0583242606332278,0.03,0.9999999999998836,-31.92610775457333,0.5563217417195752,112,2026-10-07 19:01:35.582243,25.0,0.5139670972957403,1.2628583724971554,2.122909819729009
60,cdot_cos,S,R-S,113,22,19520,-0.0031261404010616,-0.0058863853097355,-0.1894234506846966,0.0087009307871358,839.0,2.6218374312354,0.5613496578540597,5.967229604038423,-0.0112291896297188,0.022,0.999999999999878,4425.375439100943,0.5612888759714358,113,2026-10-07 19:01:35.604243,25.0,0.0150860226686101,0.5384531271372143,0.5492821708163201
60,cdot_cos,T,S-T,114,22,19758,-0.2993144404124333,0.1577123404793872,-0.2961883000113716,0.0006080121471419,839.0,2.6334451610714784,0.5613504015075913,5.9935830534766,-0.0108352686300959,0.238,0.999999999999872,529.7103864384725,0.5662561032465426,114,2026-10-07 19:01:35.842243,25.0,0.9642974790111862,0.1604767615240893,0.0487719741011696
60,cdot_cos,P,T-P,115,23,20217,0.0346545955260743,-8.244325411314885e-05,0.3339690359385076,0.9997634763724778,820.0,2.6982243697208665,0.5625728269754873,6.032922395473332,-0.0613095174639938,0.459,0.999999999999871,-41.2902464481322,0.5712234288816208,115,2026-10-07 19:01:36.301243,25.0,0.4389940644660969,0.0956430169852959,0.1411311735280787
60,cdot_cos,Q,P-Q,116,23,20314,-0.0179820054592013,-0.0164764815521617,-0.0526366009852756,0.2114987297803464,820.0,2.72124545066398,0.5628313327327165,6.061879997388529,-0.0221439117038508,0.097,0.999999999999864,151.50767309766073,0.5761905953913149,116,2026-10-07 19:01:36.398243,25.0,0.1705571141201945,0.4533053257304146,0.2373307313723041
60,cdot_cos,R,Q-R,117,23,20344,0.1677628310012104,0.2437495640749371,0.1857448364604118,0.9904689243570364,820.0,2.786165602912567,0.5640414837774419,6.101042516552716,-0.0634202221705565,0.03,0.9999999999998628,-34.10839551526444,0.5811577320923735,117,2026-10-07 19:01:36.428244,25.0,0.5216083219008574,1.2921140471658044,2.164005074952898
60,cdot_cos,S,R-S,118,23,20367,-0.0040677550217725,-0.0094087856623267,-0.1718305860229829,0.0134429725308789,820.0,2.7987722934939283,0.564057903136523,6.127238231236895,-0.0124886783763734,0.023,0.9999999999998558,3101.9203333383784,0.5861248659781735,118,2026-10-07 19:01:36.451244,25.0,0.0169376340359552,0.533483815792599,0.5481169817983185
60,cdot_cos,T,S-T,119,23,20617,-0.2560370704986693,0.0901242772983231,-0.2519693154768968,0.001834342973165,820.0,2.8107058584390265,0.5640601436074821,6.153170768007081,-0.0118737853972699,0.25,0.9999999999998496,274.448091642681,0.5910921064345278,119,2026-10-07 19:01:36.701244,25.0,0.9495322745883916,0.1561926612176707,0.0477342597803929
60,cdot_cos,P,T-P,120,24,21037,0.0382116843737238,-0.0029095311450696,0.2942487548723931,0.9993617989995742,801.0,2.876868624102764,0.5652803752911431,6.19233735627304,-0.0667050058663451,0.42,0.9999999999998482,-44.93508995322217,0.5960594296870418,120,2026-10-07 19:01:37.121243,25.0,0.4395536111128623,0.1050048594440007,0.1575303944374704
60,cdot_cos,Q,P-Q,121,24,21126,-0.0212438441502097,-0.0180277174349487,-0.0594555285239335,0.1844644558538732,801.0,2.898909940371987,0.5655055224017389,6.220561938669816,-0.0225638759791536,0.089,0.99999999999984,196.05461411595743,0.6010265944538589,121,2026-10-07 19:01:37.210243,25.0,0.1413842009795783,0.4973263982892575,0.2476552389800338
60,cdot_cos,R,Q-R,122,24,21156,0.1823956850186405,0.2404258849812879,0.2036395291688502,0.9938856775706388,801.0,2.9653927229982515,0.5667181369503785,6.259607625799266,-0.0690570002285491,0.03,0.9999999999998382,-38.34122252743347,0.60599373071719,122,2026-10-07 19:01:37.240243,25.0,0.5100445400336061,1.3192034586344326,2.2160927542088134
60,cdot_cos,S,R-S,123,24,21185,-0.0021413246775872,-0.0048441221781026,-0.1845370096962278,0.0098203926455429,801.0,2.978062147890053,0.5667301145997455,6.285342235994418,-0.0133375238081675,0.029,0.999999999999831,4651.95421180817,0.6109608669539784,123,2026-10-07 19:01:37.269243,25.0,0.0153345357318011,0.4276534546106375,0.4368767204069503
60,cdot_cos,T,S-T,124,24,21416,-0.2800849522962131,0.1076530329769792,-0.2779436276186258,0.0009590664283834,801.0,2.9901966233656685,0.5667312843411981,6.310853709761693,-0.0128276681168761,0.231,0.9999999999998238,435.8704140670347,0.6159281060934715,124,2026-10-07 19:01:37.500243,25.0,0.9610329716761116,0.1724758226188708,0.0525301968641359
60,cdot_cos,P,T-P,125,25,21838,0.0408125363972047,0.0010912852276986,0.3208974886934178,0.9996720879688096,840.0,3.0577459779399714,0.5679501443999666,6.349876920273105,-0.0723131806305288,0.422,0.999999999999822,-48.80421840531564,0.6208954457116399,125,2026-10-07 19:01:37.922244,25.0,0.4392838272114321,0.1067490061562256,0.1600695606026135
60,cdot_cos,Q,P-Q,126,25,21941,-0.0183822850519997,-0.0171004852944702,-0.0591948214492044,0.1854469748268694,840.0,3.080292784561523,0.5681761624653926,6.377762975862763,-0.0244933855202419,0.103,0.999999999999813,211.57510139801212,0.6258626198581875,126,2026-10-07 19:01:38.025243,25.0,0.1419393441702949,0.4378100163524126,0.2189010351606942
60,cdot_cos,R,Q-R,127,25,21969,0.1673200908176708,0.2436748704594191,0.1857023758696706,0.99045889818989,840.0,3.1479348413085684,0.5693828257445108,6.416619962282041,-0.0745111917233065,0.028,0.9999999999998108,-41.45133697912425,0.6308297545685132,127,2026-10-07 19:01:38.053244,25.0,0.5110544664550837,1.4429399063541428,2.4157877409659103
60,cdot_cos,S,R-S,128,25,21991,-0.0025202030050367,-0.00557136947172,-0.1698402938227076,0.0141190961025701,840.0,3.161097419317355,0.5694000209363603,6.442027249661503,-0.0146872244166836,0.022,0.9999999999998028,3479.1101972113875,0.6357968864710609,128,2026-10-07 19:01:38.075244,25.0,0.0170228689903624,0.5801819398431355,0.5982990003993868
60,cdot_cos,T,S-T,129,25,22234,-0.2911478351717708,0.122735368654304,-0.288627632166734,0.0007344229296033,840.0,3.1734628466616663,0.5694009153617843,6.467152614939363,-0.013853560598583,0.243,0.9999999999997948,932.0663252408928,0.6407641401384442,129,2026-10-07 19:01:38.318244,25.0,0.9415979850190856,0.1672026070177929,0.050886532281117
60,cdot_cos,P,T-P,130,26,22678,0.036163340704526,0.0005662077777276,0.3273111758762967,0.9997206538270816,859.0,3.2423578863280023,0.5706180144193091,6.506047827895088,-0.0781221146196879,0.444,0.9999999999997932,-52.804702808498845,0.6457315080003911,130,2026-10-07 19:01:38.762244,25.0,0.4392582039316251,0.1048609444731737,0.1551690082575133
60,cdot_cos,Q,P-Q,131,26,22782,-0.0175350045439616,-0.0156757531822376,-0.0536983452484876,0.2071060283080053,859.0,3.2665793653538446,0.5708700471738188,6.533907912141806,-0.0278600156234553,0.104,0.999999999999783,199.42685264863107,0.6506986852176424,131,2026-10-07 19:01:38.866244,25.0,0.1646234672280251,0.4481150710936555,0.2328988367869459
60,cdot_cos,R,Q-R,132,26,22809,0.1695711384434572,0.2342632866803567,0.1871061429874189,0.9907848959857428,859.0,3.3355658211154826,0.5720752487073016,6.572645808959416,-0.0804292433277155,0.027,0.9999999999997814,-43.61861999324303,0.6556658186725572,132,2026-10-07 19:01:38.893243,25.0,0.5201654300263625,1.525322279161233,2.5550539170977027
60,cdot_cos,S,R-S,133,26,22830,-0.002258501386314,-0.0046415389484394,-0.1718296398297712,0.013443286250976,859.0,3.348946768428551,0.5720915954209723,6.597683735686175,-0.0157949236770406,0.021,0.9999999999997716,3953.964139386069,0.6606329490736396,133,2026-10-07 19:01:38.914243,25.0,0.0167042106190272,0.6204507123430468,0.6371879672889811
60,cdot_cos,T,S-T,134,26,23074,-0.2519803231670594,0.1319712139359921,-0.2497218217807453,0.0019401546672002,859.0,3.3616247510338906,0.5720939545895218,6.622467913500272,-0.0150234606769718,0.244,0.9999999999997627,327.0063091623289,0.6656002120394738,134,2026-10-07 19:01:39.158243,25.0,0.9499456067396616,0.1698138484382754,0.0519589451038498
60,cdot_cos,P,T-P,135,27,23537,0.0369037611892641,0.0013124842351846,0.2888840843563235,0.9992702671926126,815.0,3.4318159264664296,0.5733085985902892,6.661245634285175,-0.0841432265983665,0.463,0.9999999999997606,-56.90536970316421,0.6705676089413968,135,2026-10-07 19:01:39.621243,25.0,0.439791858393109,0.1016046817028698,0.1516008108694148
60,cdot_cos,Q,P-Q,136,27,23641,-0.020199934755963,-0.0201157234944634,-0.0571036959452272,0.1934740936194764,815.0,3.455710686290748,0.5735436706828775,6.688612914766516,-0.029036986304599,0.104,0.9999999999997492,234.42272405458428,0.6755347887220092,136,2026-10-07 19:01:39.725244,25.0,0.1498988187069579,0.4517812902260178,0.2297573060030618
60,cdot_cos,R,Q-R,137,27,23671,0.1535841083154291,0.2445330311671997,0.1737840430713922,0.9871895532030815,815.0,3.5257864348334413,0.5747425920039695,6.727191399017907,-0.0862553591830424,0.03,0.999999999999747,-47.72487724743065,0.6805019232365814,137,2026-10-07 19:01:39.755244,25.0,0.5151175218992401,1.402052026977548,2.3358582847564424
60,cdot_cos,S,R-S,138,27,23699,-0.000850434615421,-0.0025249101337367,-0.1544345429308502,0.0206158537366588,815.0,3.539833807909401,0.5747676202147985,6.751992564126811,-0.0174988121497762,0.028,0.9999999999997364,2747.161892748508,0.6854690570188923,138,2026-10-07 19:01:39.783243,25.0,0.0196591529819642,0.481947455578946,0.5016918955699857
60,cdot_cos,T,S-T,139,27,23933,-0.2423844581972721,0.0715789248801941,-0.241534023581851,0.002379813301546,815.0,3.5527754923458623,0.5747705093486265,6.776446205349007,-0.0161830076438079,0.234,0.9999999999997258,455.43217598188505,0.6904363224867908,139,2026-10-07 19:01:40.017244,25.0,0.9219098977459512,0.1804124516487698,0.0553063437455614
60,cdot_cos,P,T-P,140,28,24352,0.0515502773558392,-0.0025620061350864,0.2939347355531114,0.9993567723311,840.0,3.624266835281025,0.5759832917739098,6.815128126773134,-0.0903933175337454,0.419,0.9999999999997236,-61.19012639270426,0.6954037097311611,140,2026-10-07 19:01:40.436243,25.0,0.4400041172553587,0.1121028938260351,0.170623730155519
60,cdot_cos,Q,P-Q,141,28,24446,-0.0143137816560848,-0.0119786968289534,-0.0658640590119241,0.1615687990757177,840.0,3.64671771737208,0.5761792801803719,6.841751922759781,-0.0287548413555204,0.094,0.9999999999997112,314.5006242507262,0.7003708857306692,141,2026-10-07 19:01:40.530244,25.0,0.1172336850082674,0.5008165994668564,0.2388391711814403
60,cdot_cos,R,Q-R,142,28,24476,0.1856472340134321,0.2416579626546783,0.199961015669517,0.9933006667086698,840.0,3.718420355980794,0.5773836586964176,6.880322432764258,-0.0929546903900222,0.03,0.9999999999997088,-53.30537549381618,0.7053380197738204,142,2026-10-07 19:01:40.560243,25.0,0.5012464183908,1.4218871446784502,2.390087953623788
60,cdot_cos,S,R-S,143,28,24500,-0.0019647481588698,-0.0040083774970008,-0.187611982172302,0.0091003575677098,840.0,3.7320309460527854,0.5773946886642606,6.904638312900127,-0.0178489145882148,0.024,0.9999999999996972,6809.24703236455,0.7103051502753391,143,2026-10-07 19:01:40.584243,25.0,0.0148781385240368,0.5556390032126676,0.5671079196663542
60,cdot_cos,T,S-T,144,28,24732,-0.3009678776862572,0.157938272321638,-0.2990031295273874,0.0005667200478825,840.0,3.7450910281350014,0.577395375547235,6.928746582293118,-0.017188281643439,0.232,0.9999999999996856,961.7838400560478,0.7152724232196869,144,2026-10-07 19:01:40.816243,25.0,0.962294176823464,0.1850044238843242,0.0562934572509271
60,cdot_cos,P,T-P,145,29,25192,0.0398738630066665,0.0016646224032587,0.3408417406929238,0.9998008082698316,898.0,3.817872998735113,0.5786066980358543,6.967349430306997,-0.0968124992887775,0.46,0.9999999999996836,-65.73329430719541,0.7202398563239791,145,2026-10-07 19:01:41.276243,25.0,0.4393503888095419,0.1055286428181254,0.1582216752176344
60,cdot_cos,Q,P-Q,146,29,25298,-0.0191839136567543,-0.0166769973982577,-0.0590577766634208,0.1859650699494081,898.0,3.8421773795276777,0.578831902727342,6.994054805107104,-0.0327392428702874,0.106,0.9999999999996696,284.51119732554736,0.7252070431153572,146,2026-10-07 19:01:41.382244,25.0,0.1412705918969113,0.4577846477219106,0.2292866112506082
60,cdot_cos,R,Q-R,147,29,25326,0.1638907775722666,0.2157334940010409,0.1830746912290209,0.9898176739444426,898.0,3.9149233440521582,0.580030023225676,7.032492635105136,-0.0991565832230219,0.028,0.9999999999996668,-55.43460815926945,0.730174175013102,147,2026-10-07 19:01:41.410244,25.0,0.5117992598589094,1.5524558229780112,2.598070161588592
60,cdot_cos,S,R-S,148,29,25348,-0.0038678813017824,-0.0074211296930058,-0.1677586588740491,0.0148621118775409,898.0,3.9291149056144463,0.5800480058558579,7.05659089862404,-0.0195604127152952,0.022,0.999999999999654,4426.280788874324,0.7351413030937288,148,2026-10-07 19:01:41.432243,25.0,0.0170902353702765,0.6345712081003784,0.6450709801040032
60,cdot_cos,T,S-T,149,29,25591,-0.1972773017305412,0.1216009980788596,-0.1934094204287588,0.0078821944226827,898.0,3.942844477208575,0.5800575429463277,7.080507006151768,-0.0189908863874452,0.243,0.9999999999996414,59.71698912297068,0.7401085930413503,149,2026-10-07 19:01:41.675244,25.0,0.9704557671998064,0.1802365580507643,0.0565002946260435
60,cdot_cos,P,T-P,150,30,26090,0.0358259352066056,-0.0018713378592916,0.2331032369371469,0.997063455672787,879.0,4.016709872827118,0.5812634592052875,7.118996840624403,-0.103225776815338,0.499,0.999999999999639,-69.85135974578387,0.7450760750238106,150,2026-10-07 19:01:42.174243,25.0,0.4421855293551726,0.0999141554851145,0.1480268449269396
60,cdot_cos,Q,P-Q,151,30,26183,-0.0185131257306617,-0.014316542476954,-0.0543390609372674,0.2044880187122595,879.0,4.042558804382719,0.5815106614453629,7.145725265948858,-0.03656998852673,0.093,0.9999999999996236,269.64071307885564,0.7500432547365421,151,2026-10-07 19:01:42.267244,25.0,0.1615903287222598,0.5377367606442257,0.2779455005978647
60,cdot_cos,R,Q-R,152,30,26212,0.1792861547849742,0.2097099382896214,0.197799280515636,0.9929312798070752,879.0,4.116728910306944,0.5827104158964582,7.184139147890917,-0.1061490137822035,0.029,0.9999999999996206,-57.99438809495621,0.7550103864456508,152,2026-10-07 19:01:42.296243,25.0,0.5191904928426448,1.5225155628486355,2.55758985945602
60,cdot_cos,S,R-S,153,30,26238,-0.0044040565642337,-0.0077959379136774,-0.183690211349208,0.0100283990499564,879.0,4.13086470702794,0.5827225281981029,7.207882259143036,-0.0204493181794708,0.026,0.9999999999996062,7075.426134264042,0.7599775164085093,153,2026-10-07 19:01:42.322243,25.0,0.0151336598401271,0.5367799616559173,0.5436844892690883
60,cdot_cos,T,S-T,154,30,26469,-0.2173259787598002,0.1439244653675799,-0.2129219221955665,0.0048541849990162,879.0,4.144641468313052,0.582728391047509,7.2314718162684,-0.0199972951471961,0.231,0.999999999999592,77.09954681879648,0.7649448066617426,154,2026-10-07 19:01:42.553244,25.0,0.9776493523493792,0.1924487550266947,0.0596396592429103
60,cdot_cos,P,T-P,155,31,26969,0.0259126597446001,0.0019672895632734,0.2432386385044004,0.9977192463016464,781.0,4.219776031850273,0.5839329303972115,7.269909103382052,-0.1101403038924435,0.5,0.9999999999995892,-74.83608465552207,0.7699123119648397,155,2026-10-07 19:01:43.053244,25.0,0.4411201514965229,0.1035227920831403,0.1502691270744414
60,cdot_cos,Q,P-Q,156,31,27072,-0.0205217793655572,-0.021485378217156,-0.0464344391101574,0.2385108762135847,781.0,4.248164260396192,0.5842207350434178,7.296917596992468,-0.0421211655417406,0.103,0.999999999999573,236.337874482945,0.7748795020742335,156,2026-10-07 19:01:43.156243,25.0,0.1989215727551996,0.5017692662097623,0.2756138693778516
60,cdot_cos,R,Q-R,157,31,27094,0.1503758278228094,0.2584149235129829,0.1708976071883667,0.986244155797066,781.0,4.323140500689484,0.5854101975528686,7.335171740377055,-0.1125107393111677,0.022,0.9999999999995692,-59.17763124953372,0.7798466271121125,157,2026-10-07 19:01:43.178244,25.0,0.5349267926410677,2.0477673197590964,3.4080109224223776
60,cdot_cos,S,R-S,158,31,27124,-0.0012288306176238,-0.0036074874258785,-0.1516046584404333,0.0220938057952045,781.0,4.338266022465592,0.5854368325034153,7.358829867026442,-0.0229358099246036,0.03,0.9999999999995532,3363.059722210522,0.7848137593798835,158,2026-10-07 19:01:43.208243,25.0,0.0201316556564232,0.4813749936779891,0.5041840592035978
60,cdot_cos,T,S-T,159,31,27368,-0.286548588479952,0.0455515375779486,-0.2853197578623281,0.000797688846094,781.0,4.352023000310163,0.5854377941393047,7.382092693205124,-0.0209301462825825,0.244,0.9999999999995376,2085.678856181938,0.789781070027633,159,2026-10-07 19:01:43.452243,25.0,0.9086216057373842,0.1849097272405227,0.0563810567400467
60,cdot_cos,P,T-P,160,32,27750,0.0457223742133734,0.0023673498224729,0.3322709626933254,0.999753221867976,836.0,4.428501969358967,0.5866425101860943,7.420509115146047,-0.1174644175279109,0.382,0.9999999999995344,-80.1303107919794,0.794748499281138,160,2026-10-07 19:01:43.834244,25.0,0.4396320568102843,0.1319734363602619,0.2002067252586484
60,cdot_cos,Q,P-Q,161,32,27856,-0.0185353824111493,-0.0180164936830317,-0.0642577566245227,0.1670829146625978,836.0,4.452850705689404,0.5868437466448798,7.446215650613789,-0.037821335758677,0.106,0.9999999999995168,395.76865072001215,0.7997156953714212,161,2026-10-07 19:01:43.940243,25.0,0.1217517360819744,0.475000545797532,0.2297050597211068
60,cdot_cos,R,Q-R,162,32,27885,0.1624754715331504,0.2504665276356956,0.1810108539442997,0.9892842952506056,836.0,4.529202085068044,0.5880346548705261,7.4844625622499965,-0.1198396611585982,0.029,0.9999999999995136,-68.87039961069405,0.804682825707857,162,2026-10-07 19:01:43.969243,25.0,0.5043925164491216,1.574895670567417,2.6328061854703257
60,cdot_cos,S,R-S,163,32,27909,-0.0014758253862496,-0.0038869399861956,-0.1639512969194001,0.0163220368266651,836.0,4.544194654582314,0.5880542948664694,7.507777957109807,-0.0237710253623338,0.024,0.999999999999496,4891.479411370468,0.8096499522582504,163,2026-10-07 19:01:43.993243,25.0,0.0175725472189424,0.6037709613288164,0.6246903964279108
60,cdot_cos,T,S-T,164,32,28147,-0.2736073245529268,0.1064537895108952,-0.2721314991666771,0.0011088886481579,836.0,4.558183091211827,0.588055629160881,7.530789815818388,-0.0222497718221645,0.238,0.9999999999994788,1140.118347880776,0.8146172682370023,164,2026-10-07 19:01:44.231244,25.0,0.9339133231844284,0.1925234079837425,0.0587749438214845
60,cdot_cos,P,T-P,165,33,28586,0.0362427518865048,-0.0031163545944238,0.3098500764394317,0.9995678268230922,860.0,4.635835796782575,0.5892578522540362,7.569157579641172,-0.1246467917953104,0.439,0.9999999999994762,-85.17306027154793,0.8195847664442483,165,2026-10-07 19:01:44.670244,25.0,0.4397726294578942,0.1179382726186451,0.1768854341019319
60,cdot_cos,Q,P-Q,166,33,28675,-0.0229461785805393,-0.0166721104230193,-0.0591889304670441,0.1854692226205816,860.0,4.6617328945709975,0.5894808072937419,7.594932548178301,-0.0420308458361898,0.089,0.9999999999994564,370.54980263361824,0.8245519503402142,166,2026-10-07 19:01:44.759244,25.0,0.1400714337808073,0.5830365570982352,0.2909786268362057
60,cdot_cos,R,Q-R,167,33,28705,0.1880856986132349,0.2135781703447904,0.2110318771937742,0.9949121390282432,860.0,4.739616303946061,0.5906761749841165,7.63322207836338,-0.1277015251302736,0.03,0.9999999999994535,-71.66889316477432,0.8295190809555673,167,2026-10-07 19:01:44.789243,25.0,0.5112653579937178,1.54291982677508,2.596113645835452
60,cdot_cos,S,R-S,168,33,28727,-0.0041453293760166,-0.0070678291220838,-0.1922310279892516,0.0081159439975961,860.0,4.754308084177502,0.5906859217484717,7.656168252739824,-0.024326410684241,0.022,0.9999999999994348,10606.09559019722,0.8344862047297229,168,2026-10-07 19:01:44.811244,25.0,0.0142713488933616,0.6592695536519099,0.6678081923382383
60,cdot_cos,T,S-T,169,33,28967,-0.2377237161006745,0.1476444331825064,-0.2335783867246579,0.002901968857848,860.0,4.768624164306745,0.5906894068225749,7.678965956309184,-0.0237766970452356,0.24,0.9999999999994164,157.73370170286472,0.8394535330961369,169,2026-10-07 19:01:45.051244,25.0,0.9771453671231553,0.1939902810006203,0.0596503338718449
60,cdot_cos,P,T-P,170,34,29446,0.0470727312534836,0.0029918467222346,0.2847964473541582,0.9991918151052672,859.0,4.8474234190578,0.5918888267089224,7.71728990848357,-0.132032791390198,0.479,0.9999999999994136,-90.25704474070672,0.8444210906399657,170,2026-10-07 19:01:45.530244,25.0,0.4404676643156723,0.1091995521397982,0.164507838728716
60,cdot_cos,Q,P-Q,171,34,29551,-0.0140627196748488,-0.0131353240045954,-0.0611354509283324,0.1782299159745307,859.0,4.873237335256672,0.5921026575812323,7.742750976652887,-0.0437161659751323,0.105,0.9999999999993928,413.020928461099,0.8493882922805648,171,2026-10-07 19:01:45.635243,25.0,0.1326252144068426,0.4977557893039087,0.2458468209416356
60,cdot_cos,R,Q-R,172,34,29579,0.1693825731601781,0.2417559564916348,0.1834452928350269,0.9899106304884708,859.0,4.951952134811621,0.5932896635405672,7.780925065471307,-0.1346150998714605,0.028,0.9999999999993884,-76.57832985712689,0.8543554199981837,172,2026-10-07 19:01:45.663244,25.0,0.5090288157556769,1.6782130094836596,2.811242841248182
60,cdot_cos,S,R-S,173,34,29601,-0.0018726679210746,-0.0040057875854853,-0.1712552410812527,0.0136350729659115,859.0,4.967217263787757,0.5933060058432087,7.8037261941392,-0.0263552309334603,0.022,0.9999999999993684,6624.517444884523,0.8593225424289297,173,2026-10-07 19:01:45.685244,25.0,0.0164452520608055,0.673922844412488,0.6938694989152662
60,cdot_cos,T,S-T,174,34,29845,-0.2873286528958298,0.1403336248911944,-0.2854559849747551,0.0007949789517203,859.0,4.98160473996577,0.5933069586580395,7.826260374943683,-0.0249142033552393,0.244,0.9999999999993476,1512.3899540818804,0.8642898853055991,174,2026-10-07 19:01:45.929244,25.0,0.9438013202010402,0.1933722874393468,0.0589650663033344
60,cdot_cos,P,T-P,175,35,30305,0.0262967055972857,0.0015081569036931,0.3136253584931155,0.9996067351696656,798.0,5.061582940058158,0.5945044705746751,7.864559116597605,-0.1396782722035126,0.46,0.9999999999993444,-95.83542948841637,0.8692574474416169,175,2026-10-07 19:01:46.389244,25.0,0.4397136744109399,0.1198950008468832,0.1738656523747557
60,cdot_cos,Q,P-Q,176,35,30405,-0.0195846700518856,-0.0190935047380127,-0.0458813756491714,0.2410311804094381,798.0,5.091908140744903,0.594793054256933,7.890826013246538,-0.0535311197361701,0.1,0.9999999999993228,298.51706026254243,0.8742246473392017,176,2026-10-07 19:01:46.489243,25.0,0.2000293724785733,0.550609734356251,0.3032520068674493
60,cdot_cos,R,Q-R,177,35,30428,0.1600813730925939,0.2514697521740721,0.1796660431444796,0.9889219646938596,798.0,5.171704886929408,0.5959763908069025,7.928954679409854,-0.1422543970101012,0.023,0.9999999999993188,-74.97721360522354,0.8791917689830009,177,2026-10-07 19:01:46.512243,25.0,0.5359606978128475,2.0764031566386967,3.4694237471524034
60,cdot_cos,S,R-S,178,35,30457,-0.0021243358270381,-0.0055408271199726,-0.162205708919632,0.0170376917715269,798.0,5.187422685950283,0.5959967682441223,7.951593167222923,-0.028280572155896,0.029,0.9999999999992968,5593.138313942803,0.8841588975645696,178,2026-10-07 19:01:46.541243,25.0,0.0177723697298761,0.5232116749824439,0.5419930696853371
60,cdot_cos,T,S-T,179,35,30704,-0.2722360471214864,0.0677617193786993,-0.2701117112944484,0.0011662524379338,798.0,5.20205116407839,0.5959981630944271,7.973916474798258,-0.0263976644845164,0.247,0.9999999999992744,1349.8994586592155,0.8891262551354873,179,2026-10-07 19:01:46.788243,25.0,0.9311558915317196,0.1938315525243851,0.059224607806101
60,cdot_cos,P,T-P,180,36,31103,0.0386659398435988,-0.0016282785420065,0.3109019869650853,0.9995790391508946,819.0,5.283175472897329,0.5971930975758319,8.012190815413454,-0.1475995245545807,0.399,0.999999999999271,-101.4297118010786,0.8940937765589985,180,2026-10-07 19:01:47.187244,25.0,0.439923927720439,0.1366148210585908,0.2033190697216523
60,cdot_cos,Q,P-Q,181,36,31199,-0.0172625834132853,-0.0153633331607347,-0.0559285232568842,0.1980998215545125,819.0,5.3110697912831455,0.5974297771257255,8.037600495246146,-0.0512694634204381,0.096,0.9999999999992476,407.0062714647344,0.8990609756828803,181,2026-10-07 19:01:47.283243,25.0,0.152758445545366,0.5677183360447887,0.2905658165189191
60,cdot_cos,R,Q-R,182,36,31227,0.1742083422786072,0.2456710468358782,0.1914709256918926,0.9917296453427836,819.0,5.392177393417929,0.5986139608233011,8.075748769823884,-0.1504633261599803,0.028,0.9999999999992438,-83.76560405503558,0.9040281019097854,182,2026-10-07 19:01:47.311244,25.0,0.5172359730680952,1.7265479948002411,2.896700076242257
60,cdot_cos,S,R-S,183,36,31252,-0.0032698183530638,-0.0073792959897567,-0.177478160631671,0.011693566158592,819.0,5.407756478991959,0.5986279167965475,8.098093284965662,-0.0291616252469925,0.025,0.9999999999992204,8691.740717146453,0.9089952255095208,183,2026-10-07 19:01:47.336244,25.0,0.0156132643498148,0.6086004323588412,0.6231634229612126
60,cdot_cos,T,S-T,184,36,31503,-0.2654376655373544,0.1015406898871445,-0.2621678471842906,0.0014221018955698,819.0,5.422607415035871,0.5986296140280185,8.120212090591165,-0.0278769298811469,0.251,0.9999999999991968,756.9358615915376,0.9139625995668308,184,2026-10-07 19:01:47.587244,25.0,0.9549612306153882,0.1934021014738166,0.0591670758721583
60,cdot_cos,P,T-P,185,37,31922,0.0323456505654841,-0.0001446133227619,0.2977833161028385,0.9994157416726828,841.0,5.504844333931815,0.5998217965889652,8.158463555827115,-0.1555986533203693,0.419,0.9999999999991932,-107.13268892123682,0.9189301643251506,185,2026-10-07 19:01:48.006243,25.0,0.4400614941646104,0.1331962501018709,0.1962694961717045
60,cdot_cos,Q,P-Q,186,37,32019,-0.0196036679073924,-0.0177547174273889,-0.0519493184728765,0.2143783346354095,841.0,5.534225872621239,0.6000773707236309,8.183969557366076,-0.056148057080186,0.097,0.999999999999169,389.1262172139084,0.9238973677919068,186,2026-10-07 19:01:48.103244,25.0,0.1701252045181783,0.5748098847635771,0.3029024607157165
60,cdot_cos,R,Q-R,187,37,32051,0.1659649262359223,0.2352639265172036,0.1855685941433148,0.9904272401244978,841.0,5.616357451575949,0.6012574133521634,8.222076857658442,-0.1583817911499495,0.032,0.999999999999165,-86.63562789837243,0.928864497857102,187,2026-10-07 19:01:48.135243,25.0,0.5244059452393801,1.5323023528548,2.5666118423346704
60,cdot_cos,S,R-S,188,37,32074,-0.0048476187264429,-0.0105121089063224,-0.1708125449623652,0.0137847242291668,841.0,5.632293223203946,0.6012738288731868,8.244256779890419,-0.0310002435305748,0.023,0.99999999999914,7759.823610711296,0.9338316181642524,188,2026-10-07 19:01:48.158243,25.0,0.0164233709395437,0.6757511911744529,0.6928596359998637
60,cdot_cos,T,S-T,189,37,32321,-0.2402837636206084,0.0990210644478357,-0.2354361448941655,0.002770636769703,841.0,5.647442006369974,0.601277128254925,8.26619926144466,-0.029550649387668,0.247,0.999999999999114,439.3532661419591,0.9387990000805566,189,2026-10-07 19:01:48.405244,25.0,0.9521291788411966,0.1993291763189819,0.0613311059353359
60,cdot_cos,P,T-P,190,38,32763,0.035841282921025,0.0013623196902614,0.2761250465416335,0.9989963684419064,836.0,5.730761836305523,0.6024661702270213,8.304428617169727,-0.1637846748920713,0.442,0.999999999999111,-112.89258802844525,0.9437666146698532,190,2026-10-07 19:01:48.847244,25.0,0.4406183381354677,0.126831128043006,0.1885064025691156
60,cdot_cos,Q,P-Q,191,38,32869,-0.0195846996932939,-0.0190737048149525,-0.055425982614319,0.2001031872787471,836.0,5.759560723559991,0.6027041954794997,8.329543555532307,-0.0571571531481031,0.106,0.999999999999084,447.9672666396744,0.9487338321049024,191,2026-10-07 19:01:48.953243,25.0,0.154816471905902,0.527900730209826,0.2716876156081907
60,cdot_cos,R,Q-R,192,38,32898,0.1597592376292228,0.2454424921022752,0.1793439373225168,0.98883339722416,836.0,5.842676791110006,0.6038797098889233,8.367608623435078,-0.1663982202174542,0.029,0.9999999999990796,-92.93043640606822,0.9537009577768488,192,2026-10-07 19:01:48.982244,25.0,0.5186615027334327,1.7148922843375902,2.866071294828099
60,cdot_cos,S,R-S,193,38,32918,-0.0032686258102269,-0.0082449867568947,-0.1630278634394497,0.0166968631412945,836.0,5.859024476051571,0.6038995486801161,8.389646571320691,-0.0330080478563537,0.02,0.9999999999990524,6723.70463828082,0.9586680731433654,193,2026-10-07 19:01:49.002244,25.0,0.0175774068335332,0.7933453792344114,0.8173842470782677
60,cdot_cos,T,S-T,194,38,33160,-0.2319227775465821,0.0743201815535015,-0.2286541517363552,0.0032808915520003,836.0,5.874410606279382,0.6039034469124267,8.411407606327659,-0.0311506914635731,0.242,0.9999999999990252,476.4611867081058,0.9636354612636542,194,2026-10-07 19:01:49.244244,25.0,0.9421178699569808,0.206129805646663,0.063579050528145
60,cdot_cos,P,T-P,195,39,33599,0.0284850755999356,-0.0003920381300786,0.2604078531465177,0.9985140238905914,780.0,5.958791301984556,0.6050892283162036,8.44961730916197,-0.1721108244178183,0.439,0.9999999999990214,-118.87531083323226,0.9686030964395344,195,2026-10-07 19:01:49.683244,25.0,0.4408688028736661,0.1317898672801086,0.1922111519480041
60,cdot_cos,Q,P-Q,196,39,33692,-0.0196011385551586,-0.0181133152786369,-0.0480862141550942,0.2310920129620773,780.0,5.990122109751318,0.6053634851380797,8.475095184033067,-0.0645145909133527,0.093,0.9999999999989934,392.3192603503432,0.9735703014078892,196,2026-10-07 19:01:49.776243,25.0,0.1886651778687331,0.622136325126605,0.3368904060942103
60,cdot_cos,R,Q-R,197,39,33722,0.1707882594719191,0.2535424404696799,0.1903893980270777,0.9915049049476904,780.0,6.074508658458105,0.6065394347458217,8.51319309056892,-0.17526367396678,0.03,0.9999999999989893,-94.1784259497982,0.978537427598354,197,2026-10-07 19:01:49.806243,25.0,0.5315809359576837,1.6781727301149167,2.812884956892899
60,cdot_cos,S,R-S,198,39,33748,-0.0025250622383932,-0.0066125085514358,-0.1733133217103123,0.0129601257691017,780.0,6.090812473558213,0.6065547976395276,8.534988994975382,-0.0341437838613145,0.026,0.9999999999989604,9185.76231844434,0.9835045493868392,198,2026-10-07 19:01:49.832243,25.0,0.0160329971857524,0.6112549995534071,0.6270698115426167
60,cdot_cos,T,S-T,199,39,33979,-0.2572384690509768,0.0554850529380239,-0.2547134068125836,0.0017129306077322,780.0,6.106293918434882,0.6065568281264968,8.556543484527266,-0.0325062112482165,0.231,0.9999999999989309,806.4925497748351,0.98847193589822,199,2026-10-07 19:01:50.063244,25.0,0.950870667718999,0.2186411771932136,0.0670192418903425
60,cdot_cos,P,T-P,200,40,34379,0.0425104154092137,0.0020263503005945,0.2997488844601905,0.9994437421010208,820.0,6.1918246974214775,0.6077409266207878,8.594761224641742,-0.1808826779583152,0.4,0.9999999999989274,-125.3075376968023,0.9934395453273176,200,2026-10-07 19:01:50.463244,25.0,0.4403034249608198,0.1430096584912177,0.2138269474664889
60,cdot_cos,Q,P-Q,201,40,34483,-0.0153594359144764,-0.0152347624817456,-0.0578698513236902,0.1905028213540847,820.0,6.220701645227856,0.6079664830038407,8.619419437819928,-0.0616252595119049,0.104,0.9999999999988972,528.7255312054272,0.9984067683077704,201,2026-10-07 19:01:50.567244,25.0,0.1443948801850685,0.5490318902243889,0.2776629596767175
60,cdot_cos,R,Q-R,202,40,34512,0.1670890508445826,0.2622661512274132,0.1824484867590591,0.989658675634808,820.0,6.30602333058815,0.6091375008049797,8.657477511684343,-0.1835611174020007,0.029,0.9999999999988928,-104.12809930941243,1.0033738926061095,202,2026-10-07 19:01:50.596244,25.0,0.5146442777201181,1.7577095280884751,2.9421270813894576
60,cdot_cos,S,R-S,203,40,34534,-0.0012916651596605,-0.0031869717354129,-0.1683807160042432,0.0146361293465755,820.0,6.322648797856988,0.6091548096731131,8.67912705851766,-0.0360585724377107,0.022,0.999999999998862,8521.790323204445,1.0083410082009605,203,2026-10-07 19:01:50.618243,25.0,0.0167285673893512,0.7314220452982821,0.7557030576744224
60,cdot_cos,T,S-T,204,40,34778,-0.4006436907034026,0.0282007477663514,-0.3993520255437421,4.613923991070045e-05,820.0,6.338205900581275,0.6091548642375164,8.700478720544275,-0.0338274074990359,0.244,0.999999999998831,40890.48541818363,1.0133084244221466,204,2026-10-07 19:01:50.862243,25.0,0.9361708248139748,0.2094080339460356,0.0637586177224882
60,cdot_cos,P,T-P,205,41,35199,0.0395235814693619,0.0005368970667618,0.4401672721727646,0.9999833682732412,859.0,6.424839918422653,0.6103368042782839,8.73870032589896,-0.1896907306097686,0.421,0.9999999999988276,-131.87075294405807,1.0182760853384094,205,2026-10-07 19:01:51.283243,25.0,0.4396964218087705,0.1376606200752662,0.2057815150626561
60,cdot_cos,Q,P-Q,206,41,35300,-0.0181926384477633,-0.0159918414042579,-0.0577162199171253,0.1910958187558905,859.0,6.454116142684649,0.6105625248554135,8.76322832236116,-0.0646707737517791,0.101,0.9999999999987952,553.8704465839348,1.0232433080842582,206,2026-10-07 19:01:51.384243,25.0,0.1446880081280042,0.5730376488547604,0.2898636065544152
60,cdot_cos,R,Q-R,207,41,35329,0.1704521444107088,0.2316208951537379,0.1886447828584721,0.9911295486546732,859.0,6.540593523491315,0.6117324757712419,8.801305249450676,-0.1925333992269561,0.029,0.999999999998791,-109.28888019600664,1.0282104315691716,207,2026-10-07 19:01:51.413243,25.0,0.5147333872815135,1.7787732424805622,2.9819786485057125
60,cdot_cos,S,R-S,208,41,35351,-0.0035839732564019,-0.0072697903025995,-0.1740361176671107,0.0127309954701974,859.0,6.557284990748522,0.6117474953735355,8.822755432237601,-0.0374564376087582,0.022,0.9999999999987582,10324.971233410031,1.0331775459164052,208,2026-10-07 19:01:51.435244,25.0,0.0159197443382047,0.7402507344255284,0.7587030571457699
60,cdot_cos,T,S-T,209,41,35597,-0.254322509711938,0.1252186551956142,-0.250738536455536,0.0018915536391927,859.0,6.573164555806038,0.6117497269470884,8.843970793862761,-0.035723030437745,0.246,0.9999999999987252,776.764525069927,1.0381449779665666,209,2026-10-07 19:01:51.681243,25.0,0.9526349333592096,0.2103762158638064,0.0645510774695785
60,cdot_cos,P,T-P,210,42,36058,0.0276180238559724,-0.0005325624343621,0.2819405335679104,0.99913205452453,797.0,6.660790088953514,0.6129278029223049,8.882175490167073,-0.1984567959919522,0.461,0.9999999999987214,-138.13520433120277,1.0431127206186597,210,2026-10-07 19:01:52.142244,25.0,0.4404334458237532,0.1302496968013854,0.1900770784110118
60,cdot_cos,Q,P-Q,211,42,36152,-0.0206269364150966,-0.0187033629247781,-0.0482449602710691,0.230387581698523,797.0,6.693254776256915,0.6131992659772,8.907242015959097,-0.0741749726221527,0.094,0.9999999999986876,457.8222381598774,1.0480799368110414,211,2026-10-07 19:01:52.236243,25.0,0.1872103673021254,0.6382040227838887,0.3453690138659671
60,cdot_cos,R,Q-R,212,42,36176,0.1676597391646072,0.2433076635283087,0.1882866755797038,0.9910504916861492,797.0,6.780772445236885,0.6143662056755405,8.945315212633133,-0.2015300975538984,0.024,0.9999999999986828,-109.13599487005176,1.0530470519161792,212,2026-10-07 19:01:52.260243,25.0,0.5315590599406483,2.176622272547409,3.6465695408320897
60,cdot_cos,S,R-S,213,42,36206,-0.0036674785252842,-0.0087869596764148,-0.1713272176898914,0.0136108935145261,797.0,6.797732645339191,0.6143822230827534,8.966621583685178,-0.0393571052789157,0.03,0.999999999998648,10124.796736408018,1.0580141766741262,213,2026-10-07 19:01:52.290244,25.0,0.0162355526654907,0.5523012021011908,0.5653400034101826
60,cdot_cos,T,S-T,214,42,36455,-0.2321400608247327,0.0653065075453058,-0.2284725822994484,0.0032957689502238,797.0,6.813910517362957,0.6143861015324851,8.987702071077491,-0.0376331482962193,0.249,0.9999999999986128,444.4964101511637,1.062981626592428,214,2026-10-07 19:01:52.539244,25.0,0.9552238826314308,0.2104500342722155,0.0649713735894215
60,cdot_cos,P,T-P,215,43,36855,0.0279884837957074,-0.003104682713854,0.2601285446204401,0.9985036270152972,840.0,6.902536762406754,0.6155604663666328,9.025896658606502,-0.2075138519500082,0.4,0.999999999998608,-144.65751929389435,1.0679493056607028,215,2026-10-07 19:01:52.939244,25.0,0.441027725307827,0.1520765114817301,0.2215656126094933
60,cdot_cos,Q,P-Q,216,43,36945,-0.0196991619560442,-0.0157608662847417,-0.0476876457517516,0.2328672805133289,840.0,6.935571726548341,0.615834154313981,9.050885480957938,-0.0780148908534389,0.09,0.9999999999985736,473.16282047224087,1.0729165194725545,216,2026-10-07 19:01:53.029243,25.0,0.1901530134151926,0.6767267585511544,0.3670551571287422
60,cdot_cos,R,Q-R,217,43,36975,0.185447958904366,0.2261423034187336,0.2051471208604103,0.994110504440564,840.0,7.024347578945962,0.6170017016657402,9.089011495532834,-0.2112541726607294,0.03,0.9999999999985688,-114.1189533825211,1.0778836428095555,217,2026-10-07 19:01:53.059244,25.0,0.5322159047862772,1.7600625751633312,2.9591950799207
60,cdot_cos,S,R-S,218,43,37003,-0.0025280401502843,-0.0049460753973796,-0.1879759990546503,0.0090186596786227,840.0,7.041175481058141,0.6170122876066029,9.110086135106526,-0.0403467958365907,0.028,0.9999999999985316,16144.750763418166,1.0828507638575595,218,2026-10-07 19:01:53.087244,25.0,0.0144659293252904,0.5901788449050078,0.6009965040063887
60,cdot_cos,T,S-T,219,43,37235,-0.2701799068849057,0.1435121826957483,-0.2676518667346213,0.0012401318556447,840.0,7.057397594260642,0.6170137432424379,9.13097845009844,-0.0389856838490838,0.232,0.9999999999984946,935.0635336112056,1.087818201676796,219,2026-10-07 19:01:53.319244,25.0,0.9656893085050772,0.2283608047882343,0.0699229017349204
60,cdot_cos,P,T-P,220,44,37695,0.0387702107089806,0.0012563162078078,0.3089501175938863,0.9995579975089534,861.0,7.147134894479882,0.6181863150044443,9.169193922444745,-0.2170276886475653,0.46,0.999999999998491,-151.83889853685494,1.0927859995049685,220,2026-10-07 19:01:53.779244,25.0,0.4402707538501961,0.1305861803046361,0.1950810874331286
60,cdot_cos,Q,P-Q,221,44,37799,-0.0187212672716666,-0.0171396714407689,-0.0574914779806473,0.1919658315938414,861.0,7.177536880140908,0.6184113511984707,9.193355198309234,-0.0741316970124297,0.104,0.9999999999984516,634.9911499942795,1.0977532385972046,221,2026-10-07 19:01:53.883244,25.0,0.1454974975909682,0.5763611579620405,0.2923267852021734
60,cdot_cos,R,Q-R,222,44,37828,0.1646363526808937,0.2326567766933483,0.1833576199525604,0.989888715980182,861.0,7.267018015335986,0.6195709617349484,9.231409029932715,-0.2197579895974754,0.029,0.9999999999984458,-125.5820708799178,1.1027203592478558,222,2026-10-07 19:01:53.912243,25.0,0.5154749046785037,1.8436438157937125,3.0855563860371857
60,cdot_cos,S,R-S,223,44,37849,-0.0031557618517392,-0.0066401589007606,-0.1677921145326329,0.0148498710457661,861.0,7.284468221456943,0.6195883473516549,9.25243674015565,-0.043172728065786,0.021,0.9999999999984066,10156.974268601483,1.107687467773286,223,2026-10-07 19:01:53.933243,25.0,0.0167358204576245,0.8065591485613037,0.8309621962360445
60,cdot_cos,T,S-T,224,44,38093,-0.2634630148980736,0.1249749583967792,-0.2603072530463344,0.0014897124721533,861.0,7.300893499575561,0.6195900914286638,9.273184991049238,-0.0407315335701903,0.244,0.9999999999983668,1399.7056799116986,1.1126549377317962,224,2026-10-07 19:01:54.177243,25.0,0.9418269056891588,0.2196025180136729,0.0673167136008927
60,cdot_cos,P,T-P,225,45,38556,0.0323032085654077,0.0006366813276898,0.2957662234634814,0.9993855421559144,858.0,7.391634250247615,0.6207594218408528,9.31140117565504,-0.2264025480517408,0.463,0.9999999999983622,-158.7840464475607,1.117622768698851,225,2026-10-07 19:01:54.640243,25.0,0.440390949834531,0.1323184715057,0.1959843427042215
60,cdot_cos,Q,P-Q,226,45,38661,-0.0216845269688303,-0.0199939251863188,-0.053987735534238,0.2059205035730487,858.0,7.423420404189839,0.6210001852969438,9.335690153481195,-0.0799496124019234,0.105,0.9999999999983212,608.2855680325694,1.1225900133794156,226,2026-10-07 19:01:54.745243,25.0,0.1601226082917556,0.5821122989713474,0.302725275640226
60,cdot_cos,R,Q-R,227,45,38691,0.1601499217312544,0.2323483031634489,0.1818344487000847,0.9895003813969518,858.0,7.513877833031598,0.6221562819656483,9.373739947094178,-0.2291248935222444,0.03,0.9999999999983148,-129.03357059879764,1.127557134494951,227,2026-10-07 19:01:54.775244,25.0,0.5214899066031145,1.8034513069753604,3.015247628058641
60,cdot_cos,S,R-S,228,45,38713,-0.0040241930782455,-0.0093826052247608,-0.1641741148094999,0.0162328403510576,858.0,7.531627482608361,0.6221752362971057,9.394650453692709,-0.0452839419082138,0.022,0.9999999999982724,9699.152514423282,1.132524242954249,228,2026-10-07 19:01:54.797244,25.0,0.0172535344318789,0.7888301131850906,0.8068022534891998
60,cdot_cos,T,S-T,229,45,38952,-0.2076010438916316,0.0856224587572434,-0.2035768508133861,0.0061238521136244,858.0,7.548586358011742,0.6221823867369234,9.41533840122954,-0.0433659632074966,0.239,0.9999999999982304,268.23226956909826,1.1374917182407789,229,2026-10-07 19:01:55.036243,25.0,0.9567360421709528,0.2272089261013663,0.0709576376710526
60,cdot_cos,P,T-P,230,46,39414,0.0416007952511308,-0.0019295784664271,0.2492018391427625,0.9980345094150428,837.0,7.640233349284814,0.6233470171911559,9.45353621952825,-0.2357533192153346,0.462,0.9999999999982252,-165.19176130819628,1.142459576700814,230,2026-10-07 19:01:55.498244,25.0,0.4421731872476845,0.1322641490839402,0.1983701109806742
60,cdot_cos,Q,P-Q,231,46,39508,-0.0176932033961802,-0.0150547662212061,-0.059293998647311,0.1850727331455387,837.0,7.670798431765303,0.6235628269091585,9.477345588596194,-0.0792404878520965,0.094,0.9999999999981812,725.2353268046207,1.1474268065214583,231,2026-10-07 19:01:55.592243,25.0,0.1387387806360518,0.6499451661194969,0.3251604519200987
60,cdot_cos,R,Q-R,232,46,39533,0.1742505204552383,0.2319852027939516,0.1919437238514186,0.9918260307484992,837.0,7.762423040515279,0.6247185388192533,9.51544049571072,-0.2391412479493048,0.025,0.9999999999981743,-138.35693714023822,1.15239391786344,232,2026-10-07 19:01:55.617243,25.0,0.5124020692724193,2.1849679596963867,3.664984349999045
60,cdot_cos,S,R-S,233,46,39563,-0.0020624048123387,-0.0042782577431772,-0.1763129252675771,0.0120350602724899,837.0,7.780046829750122,0.6247325538182529,9.536139769856018,-0.0463232347872774,0.03,0.9999999999981292,13757.975520949423,1.1573610388193925,233,2026-10-07 19:01:55.647244,25.0,0.0155694117417174,0.5719246779704406,0.5874596411614401
60,cdot_cos,T,S-T,234,46,39810,-0.345337754385521,0.0495691339305131,-0.3432753495731823,0.0001874363581715,837.0,7.796738521193506,0.6247327720889073,9.55658500526408,-0.0439701203207364,0.247,0.9999999999980844,10780.71842769098,1.162328541729168,234,2026-10-07 19:01:55.894243,25.0,0.9478905696720484,0.2216106281222657,0.0675776981513491
60,cdot_cos,P,T-P,235,47,40251,0.0503624157912628,0.0026925974939767,0.3957001701767839,0.9999494503635964,861.0,7.889522480042522,0.625896495146279,9.594823053524957,-0.2458277399973676,0.441,0.9999999999980782,-173.45846883238488,1.1672963921026382,235,2026-10-07 19:01:56.335244,25.0,0.439932301575999,0.1390242420600841,0.2103944645102404
60,cdot_cos,Q,P-Q,236,47,40358,-0.0127185813308357,-0.0122063849045064,-0.0630809971220985,0.1712172375175518,861.0,7.9193579026905,0.6260956091446213,9.618275213622766,-0.0796487408766995,0.107,0.9999999999980312,834.5922461715205,1.1722636487106786,236,2026-10-07 19:01:56.442244,25.0,0.1241334205595801,0.5712633564294632,0.2788357256820395
60,cdot_cos,R,Q-R,237,47,40386,0.1685535345566919,0.2453305177074025,0.1812721158875276,0.989353314586741,861.0,8.011772838318427,0.6272453216712567,9.656331036431965,-0.2483096174326582,0.028,0.999999999998024,-146.6983029658169,1.1772307640205608,237,2026-10-07 19:01:56.470243,25.0,0.5070041032491913,1.9712371676573628,3.300533415283104
60,cdot_cos,S,R-S,238,47,40407,-0.0009953459872434,-0.0021793005030951,-0.1695488805439353,0.0142208658769479,861.0,8.029747184079312,0.6272618370753762,9.676936368821696,-0.0486290579355759,0.021,0.9999999999979756,12090.564545204868,1.1821978673920142,238,2026-10-07 19:01:56.491244,25.0,0.0164702691688246,0.8296330482121897,0.8559212267088291
60,cdot_cos,T,S-T,239,47,40650,-0.3335541015359117,0.1494801165915057,-0.3325587555486683,0.000245009412902,861.0,8.046617426343339,0.6272621216144825,9.697249131134294,-0.0457410680470576,0.243,0.9999999999979282,10149.711673410742,1.1871653772539532,239,2026-10-07 19:01:56.734244,25.0,0.9388141068167484,0.2276360837645684,0.0694248652840599
60,cdot_cos,P,T-P,240,48,41112,0.0378055876308858,0.0013493809204613,0.3713596891667975,0.9999071091234668,856.0,8.140378320788892,0.6284226171451109,9.735493638520763,-0.2556426461107608,0.462,0.9999999999979222,-180.8723709173016,1.192133294510355,240,2026-10-07 19:01:57.196243,25.0,0.4399588021365272,0.1358293058450051,0.2029456589730599
60,cdot_cos,Q,P-Q,241,48,41217,-0.0196890826012455,-0.0184661921119359,-0.0574946702321313,0.1919534527498373,856.0,8.172123704944124,0.6286452300487607,9.75921122857586,-0.0872047527491435,0.105,0.999999999997873,756.6402962274373,1.1971005516748454,241,2026-10-07 19:01:57.301243,25.0,0.1449274593961072,0.5959480741373773,0.3023369919545818
60,cdot_cos,R,Q-R,242,48,41247,0.1624975035282081,0.2381071212733437,0.1821865861294536,0.9895914505750616,856.0,8.265527416357742,0.6297920142156579,9.797277431699875,-0.2582206902417174,0.03,0.9999999999978654,-149.1265247891305,1.2020676694277783,242,2026-10-07 19:01:57.331244,25.0,0.5156711828905837,1.861604626337924,3.1134570471206047
60,cdot_cos,S,R-S,243,48,41269,-0.0024672493290785,-0.0057446872474204,-0.1649647528572866,0.0159201910189055,856.0,8.283819982524399,0.6298104513441972,9.817786262878576,-0.0509136274125201,0.022,0.9999999999978146,11243.999432286437,1.2070347728665245,243,2026-10-07 19:01:57.353244,25.0,0.0170476964910524,0.8047555910441434,0.831480280302605
60,cdot_cos,T,S-T,244,48,41508,-0.2730682279081424,0.1199608164600335,-0.2706009785790639,0.0011520904328221,856.0,8.300936662363684,0.6298117855622076,9.837987544852815,-0.0477426524281857,0.239,0.999999999997764,2376.6543095659936,1.2120022893720317,244,2026-10-07 19:01:57.592243,25.0,0.9357395748533758,0.2339395336489122,0.071617907277343
60,cdot_cos,P,T-P,245,49,41968,0.0346269273965298,-0.0017102082500956,0.3076951553046723,0.999543916691001,799.0,8.395643079608579,0.6309685930271114,9.876233880135633,-0.2655964092560383,0.46,0.9999999999977576,-188.32326332366463,1.2169702330612595,245,2026-10-07 19:01:58.052243,25.0,0.4403243751845512,0.1388529800488101,0.2058835157497718
60,cdot_cos,Q,P-Q,246,49,42061,-0.0197483270440356,-0.0176902970025929,-0.0543752544405655,0.2043408657251151,799.0,8.42868140400859,0.6312048992019021,9.900075786371625,-0.093337354836706,0.093,0.9999999999977064,728.9655235283769,1.2219374712794795,246,2026-10-07 19:01:58.145243,25.0,0.1579379245764884,0.6855724701544792,0.3552508000001109
60,cdot_cos,R,Q-R,247,49,42086,0.16840359269746,0.2406865668696484,0.1881519197414957,0.9910205620669256,799.0,8.523159559057312,0.6323500519626952,9.938175020334178,-0.268586714415115,0.025,0.9999999999976988,-153.03579188600105,1.2269045781690155,247,2026-10-07 19:01:58.170244,25.0,0.5207490231737272,2.25546136536746,3.779126201948913
60,cdot_cos,S,R-S,248,49,42119,-0.0031374923195813,-0.0075705716544297,-0.1715410850170413,0.0135392972480731,799.0,8.541454472276962,0.6323656867097522,9.9585186557747,-0.0523547002726123,0.033,0.9999999999976448,13830.221451871725,1.2318717017261318,248,2026-10-07 19:01:58.203244,25.0,0.016080697296857,0.540479538451034,0.5543913096863683
60,cdot_cos,T,S-T,249,49,42367,-0.2475896098569374,0.0747714427223603,-0.2444521175373561,0.0022127523247226,799.0,8.55883120859508,0.632368241898842,9.978616424187583,-0.0498309524386073,0.248,0.9999999999975918,987.6951354089384,1.236839250362927,249,2026-10-07 19:01:58.451244,25.0,0.9506149490890002,0.2278829763904434,0.0700674851537019
60,cdot_cos,P,T-P,250,50,42767,0.0432583083028767,0.0014034017391262,0.2908479181598142,0.999305204493526,841.0,8.654484428566622,0.6335214338755486,10.016867554644971,-0.2757516976425935,0.4,0.9999999999975844,-195.9090505027555,1.241807105199355,250,2026-10-07 19:01:58.851244,25.0,0.440744253297416,0.1591649124334182,0.2391330499288546
60,cdot_cos,Q,P-Q,251,50,42868,-0.0166426465025192,-0.0153608830008625,-0.059900954805396,0.1827951202360002,841.0,8.686163138541815,0.633732213364619,10.040221149911387,-0.0919775081558453,0.101,0.9999999999975308,871.8789019615124,1.246774363430383,251,2026-10-07 19:01:58.952243,25.0,0.135601612711373,0.6290112101187293,0.3136505938137894
60,cdot_cos,R,Q-R,252,50,42898,0.1688825482689481,0.2436043744940589,0.1855251947714674,0.9904169477802546,841.0,8.781544693010606,0.6348733630139293,10.078316959112843,-0.2785961409687894,0.03,0.9999999999975228,-163.53563524796851,1.2517414792971022,252,2026-10-07 19:01:58.982244,25.0,0.5117834885172249,1.897655500694917,3.1793851489596867
60,cdot_cos,S,R-S,253,50,42920,-0.0025942446311904,-0.0057335126259653,-0.1714767929001386,0.0135607811547004,841.0,8.80002246858351,0.6348889771485511,10.098542161954391,-0.0543218459574118,0.022,0.999999999997467,14363.54306168827,1.2567085796893074,253,2026-10-07 19:01:59.004243,25.0,0.0161050780347376,0.8163879309863328,0.8398988896774737
60,cdot_cos,T,S-T,254,50,43166,-0.2842416372945232,0.1213689202662406,-0.2816473926633327,0.0008743240162437,841.0,8.817465761974004,0.6348899838516829,10.11849608983874,-0.0513853406363177,0.246,0.9999999999974112,2916.9526031769733,1.2616761396515077,254,2026-10-07 19:01:59.250243,25.0,0.9444554584076884,0.2318722593132986,0.070907696709326
60,cdot_cos,P,T-P,255,51,43608,0.0425673727700339,0.0010096818083864,0.3268090100645572,0.9997171257671144,836.0,8.914103620165653,0.636040291989706,10.156764038217556,-0.2861386708729775,0.442,0.9999999999974046,-204.0786485611644,1.266644108153086,255,2026-10-07 19:01:59.692243,25.0,0.4402475707652846,0.1457780088536153,0.2186376882163998
60,cdot_cos,Q,P-Q,256,51,43710,-0.0165352933472228,-0.0153183386479256,-0.0591026661172568,0.1857952433648681,836.0,8.9463335218006,0.6362539034308464,10.18007811674104,-0.0961001751615891,0.102,0.999999999997348,889.6456795424091,1.2716113726547458,256,2026-10-07 19:01:59.794244,25.0,0.1384142670701417,0.6303083857743111,0.3159794277936001
60,cdot_cos,R,Q-R,257,51,43738,0.1706160475742615,0.246336526436992,0.1871513409214844,0.9907952069050826,836.0,9.042686530863612,0.6373921261051002,10.218188863998504,-0.2889753776018435,0.028,0.99999999999734,-169.4529610093232,1.2765784831813314,257,2026-10-07 19:01:59.822243,25.0,0.5130176088621354,2.052914342350316,3.4411788951075803
60,cdot_cos,S,R-S,258,51,43760,-0.0026746861113935,-0.0058645258634905,-0.1732907336856551,0.012967351497365,836.0,9.061296724972218,0.6374070127866756,10.238288402695074,-0.0561701773226219,0.022,0.9999999999972808,15638.488611512505,1.2815455818775487,258,2026-10-07 19:01:59.844243,25.0,0.0158491303045892,0.8231606661246248,0.8459179140275195
60,cdot_cos,T,S-T,259,51,44004,-0.2870241017283843,0.1205343325095998,-0.2843494156169907,0.0008172602382107,836.0,9.078905600173096,0.6374079510028158,10.25812592796754,-0.0532542210479076,0.244,0.999999999997222,3107.979227496654,1.286513152774668,259,2026-10-07 19:02:00.088243,25.0,0.9467166847669978,0.2360409862143617,0.072167521315074
60,cdot_cos,P,T-P,260,52,44444,0.03605860277464,0.0007103230040711,0.3230827045030243,0.9996895159866772,798.0,9.176484726244826,0.6385548107496953,10.296403013852991,-0.2965738081267529,0.44,0.9999999999972154,-212.16158971564155,1.2914811470669525,260,2026-10-07 19:02:00.528243,25.0,0.4402400270419473,0.149073212129457,0.2217707410721147
60,cdot_cos,Q,P-Q,261,52,44549,-0.0196325578901737,-0.0203425329578493,-0.0556911606648138,0.1990441740594471,798.0,9.210090026847018,0.6387829694904694,10.319871382065264,-0.1028429320637567,0.105,0.9999999999971568,849.10565076628,1.2964484224403596,261,2026-10-07 19:02:00.633244,25.0,0.1520182212172649,0.6218302019215133,0.3200504819256352
60,cdot_cos,R,Q-R,262,52,44570,0.1534265598452522,0.2569649807604078,0.173059117735426,0.9869583266465866,798.0,9.307069068648344,0.6399133655888576,10.357919479462485,-0.2984863841089509,0.021,0.9999999999971484,-173.07513032304584,1.3014155164110288,262,2026-10-07 19:02:00.654243,25.0,0.5192074067863475,2.770914569085249,4.618049609586957
60,cdot_cos,S,R-S,263,52,44600,-0.001151747389918,-0.0032063097892949,-0.1545783072351703,0.0205434105784006,798.0,9.3264684387486,0.6399368782108964,10.378048953556831,-0.0600818391200425,0.03,0.9999999999970868,10139.428286448452,1.306382631069236,263,2026-10-07 19:02:00.684243,25.0,0.0189112784082914,0.6193070269893871,0.6466456700085388
60,cdot_cos,T,S-T,264,52,44843,-0.3007851736801036,0.0723143245888682,-0.2996334262901856,0.0005578649344421,798.0,9.344227490267707,0.6399375166966497,10.397770721551046,-0.0551112497053577,0.243,0.9999999999970246,7784.965270160072,1.3113502151345722,264,2026-10-07 19:02:00.927244,25.0,0.9137558005917809,0.2392532565208115,0.0730825165395352
60,cdot_cos,P,T-P,265,53,45242,0.0254833777540486,0.0018152282477192,0.3262685514341523,0.999713278887496,739.0,9.442745521417711,0.6410809079497312,10.43605820095826,-0.3072034033993426,0.399,0.999999999997018,-220.4775950616944,1.3163181489430456,265,2026-10-07 19:02:01.326244,25.0,0.4401659834052192,0.1701185257618876,0.2469123587719393
60,cdot_cos,Q,P-Q,266,53,45343,-0.0206463658205204,-0.0229600981544759,-0.0461297435745691,0.2398971270028747,739.0,9.479982073825694,0.6413550451226908,10.460201917325085,-0.1169124291444164,0.101,0.9999999999969604,694.145096049896,1.3212854204498632,266,2026-10-07 19:02:01.427244,25.0,0.1963931387339303,0.6690789945822966,0.3686787367126981
60,cdot_cos,R,Q-R,267,53,45366,0.1527572210402415,0.2921231093594152,0.1734035868607619,0.9870687096847576,739.0,9.577899478323337,0.6424820230430278,10.49826054366208,-0.3091985468022463,0.023,0.9999999999969522,-170.62101589384304,1.326252517529246,267,2026-10-07 19:02:01.450243,25.0,0.5369310559509151,2.5546143083503754,4.257278456419269
60,cdot_cos,S,R-S,268,53,45393,-0.0016964375858113,-0.0062250177306538,-0.1544536586260528,0.0206062068981436,739.0,9.597494332009813,0.6425055332862121,10.518286682678996,-0.062255396931055,0.027,0.999999999996888,10503.64081459491,1.3312196246331165,268,2026-10-07 19:02:01.477243,25.0,0.0189374405579428,0.695203393663826,0.7257353217213276
60,cdot_cos,T,S-T,269,53,45642,-0.2921738088983805,0.0068281385633543,-0.2904773713125692,0.0007012572334898,739.0,9.615440461581183,0.6425063333596817,10.537905179277796,-0.0571287622169231,0.249,0.999999999996824,6407.704928373275,1.3361872386040978,269,2026-10-07 19:02:01.726244,25.0,0.9141704449807456,0.2357393152011836,0.0720728095235773
60,cdot_cos,P,T-P,270,54,45981,0.0333406905022985,-0.0007248446858863,0.325514499400679,0.9997078241478456,799.0,9.71489251098,0.6436461035199008,10.57620283482676,-0.3180722481980453,0.339,0.9999999999968178,-228.94395299044132,1.341155063039449,270,2026-10-07 19:02:02.065243,25.0,0.4402596507358344,0.198155799145739,0.2933688772826457
60,cdot_cos,Q,P-Q,271,54,46072,-0.0203974482078486,-0.0177278917239944,-0.0537381387101471,0.2069427106955194,799.0,9.749790093401996,0.6438818369442149,10.5996514260717,-0.1123536564449676,0.091,0.9999999999967568,872.6746847702826,1.346122316669458,271,2026-10-07 19:02:02.156243,25.0,0.1602545939663084,0.7377839044118859,0.3834899167252299
60,cdot_cos,R,Q-R,272,54,46101,0.1822462274872578,0.2496233494385236,0.2026436756951064,0.993732508642752,799.0,9.849169181582964,0.6450128487088129,10.63784314734835,-0.3217014729318325,0.029,0.9999999999967506,-185.0978239481548,1.3510894270346108,272,2026-10-07 19:02:02.185244,25.0,0.5216534438936236,2.039141428822456,3.4268651096885274
60,cdot_cos,S,R-S,273,54,46130,-0.0024535003943829,-0.0057404264272681,-0.1846997278816407,0.0097809148221013,799.0,9.868060296273695,0.6450239727849261,10.657563844500812,-0.0615209272861773,0.029,0.9999999999966842,23388.95769853748,1.356056538352235,273,2026-10-07 19:02:02.214243,25.0,0.014564927270177,0.6381457669053897,0.651417747956261
60,cdot_cos,T,S-T,274,54,46361,-0.2883933760869501,0.1086170352670401,-0.2859398756925672,0.0007854273226357,799.0,9.886181636063476,0.6450248660640288,10.677080116065325,-0.0591247887676981,0.231,0.999999999996618,2682.407448322617,1.3610241268613903,274,2026-10-07 19:02:02.445244,25.0,0.960283428098874,0.2564887043837337,0.0784473583973204
60,cdot_cos,P,T-P,275,55,46780,0.0451096278983935,-0.0024877098892074,0.3335030039853436,0.999760705231038,819.0,9.986558077698982,0.6461610886929631,10.71538850360753,-0.3289879192997766,0.419,0.9999999999966128,-237.50902654102973,1.36599216603113,275,2026-10-07 19:02:02.864243,25.0,0.4403071194862371,0.1586978750843477,0.2395619132112309
60,cdot_cos,Q,P-Q,276,55,46872,-0.0168214584971938,-0.014278752739459,-0.0619310863955874,0.1753352391051885,819.0,10.01917045538416,0.6463601866617521,10.73816163658192,-0.1075763574272331,0.092,0.999999999996547,1112.0734340949364,1.370959425979183,276,2026-10-07 19:02:02.956243,25.0,0.1276860825984787,0.7222153850685393,0.3544823661432354
60,cdot_cos,R,Q-R,277,55,46901,0.1849799411701285,0.2443010224702217,0.2018013996673224,0.9935999890043804,819.0,10.119445708551591,0.6474874863516504,10.776359300855706,-0.3324859550966666,0.029,0.9999999999965404,-199.5118065629182,1.3759265353556889,277,2026-10-07 19:02:02.985244,25.0,0.5084194841224406,2.056359461769787,3.457767350601096
60,cdot_cos,S,R-S,278,55,46928,-0.0031538687081349,-0.0066909797947858,-0.1881338098782634,0.0089834677335884,819.0,10.138439304166807,0.6474976711774788,10.79596348152682,-0.0633499107583829,0.027,0.9999999999964708,26425.19851331052,1.3808936408173391,278,2026-10-07 19:02:03.012243,25.0,0.0142870110208652,0.6901514909772578,0.7034665042672538
60,cdot_cos,T,S-T,279,55,47179,-0.2948345794394619,0.1192742689986964,-0.2916807107313269,0.0006804892799445,819.0,10.156713889064363,0.6474984426630489,10.815376113502852,-0.0610638474117128,0.251,0.999999999996402,2963.196507213416,1.385861293061412,279,2026-10-07 19:02:03.263244,25.0,0.963254847050428,0.2381667675429829,0.0728071111456417
60,cdot_cos,P,T-P,280,56,47599,0.0418981052022668,-0.0022703069359097,0.3367326846417287,0.999779262838246,838.0,10.257999021473385,0.6486310817325796,10.853694180800575,-0.3399335702993604,0.42,0.999999999996396,-246.21234635955773,1.3908293643905505,280,2026-10-07 19:02:03.683244,25.0,0.4402707715285254,0.1610901963904681,0.2411550771643366
60,cdot_cos,Q,P-Q,281,56,47693,-0.0163964342385877,-0.013765163579281,-0.0582945394408545,0.1888709044023724,838.0,10.292029654032358,0.6488448642107797,10.876642798663646,-0.1149387754639448,0.094,0.9999999999963284,1052.4473134078692,1.3957966331285685,281,2026-10-07 19:02:03.777244,25.0,0.1412083761041112,0.7188371308664387,0.3620280059465282
60,cdot_cos,R,Q-R,282,56,47722,0.180760396214189,0.2360917802933283,0.1971568304527767,0.9928176526893342,838.0,10.393140402076275,0.6499676486271386,10.914833884308845,-0.3432419032989671,0.029,0.9999999999963216,-203.33656622647467,1.4007637413245255,282,2026-10-07 19:02:03.806243,25.0,0.5142027205162368,2.0748331852621944,3.486577518755753
60,cdot_cos,S,R-S,283,56,47747,-0.0038832588588956,-0.0078204379194947,-0.1846436550730847,0.0097945011335386,838.0,10.412369978777566,0.6499787170466914,10.934355476937084,-0.0656577807917157,0.025,0.9999999999962492,25078.93030106745,1.4057308404193196,283,2026-10-07 19:02:03.831244,25.0,0.0145852947412289,0.75348166800417,0.7691830680516176
60,cdot_cos,T,S-T,284,56,47998,-0.290623392158816,0.1322589806156718,-0.2867401332999203,0.0007698818389138,838.0,10.430814485476484,0.6499795870560997,10.953671722577472,-0.0630911941856195,0.251,0.9999999999961772,2950.067644820188,1.4106985093197897,284,2026-10-07 19:02:04.082243,25.0,0.9601357639819756,0.2402859956717959,0.0734840904339365
60,cdot_cos,P,T-P,285,57,48437,0.0331921262826591,-0.0002120859480235,0.3238155184414751,0.9996951506558068,820.0,10.532993548604807,0.6511084546382548,10.991997232083676,-0.3510102611014664,0.439,0.9999999999961704,-255.0512313996801,1.4156666592024831,285,2026-10-07 19:02:04.521244,25.0,0.4403179221813832,0.1582390377656986,0.2327541301328553
60,cdot_cos,Q,P-Q,286,57,48533,-0.0179679640918965,-0.0161870557465794,-0.0511600903745556,0.2177201089685501,820.0,10.569748360634769,0.6513540826261568,11.015419202687394,-0.1270571129222339,0.096,0.999999999996102,911.7574511444828,1.4206339369963827,286,2026-10-07 19:02:04.617243,25.0,0.1715950476653114,0.722169361415198,0.3828626253121007
60,cdot_cos,R,Q-R,287,57,48563,0.1727020426227097,0.2470363174467839,0.1906700067146063,0.9915637903407294,820.0,10.671650065996523,0.6524717290005246,11.0535943191292,-0.3540465040726256,0.03,0.9999999999960942,-203.09589540679207,1.4256010464373627,287,2026-10-07 19:02:04.647244,25.0,0.5266975806519856,2.0248845659615418,3.396723512058486
60,cdot_cos,S,R-S,288,57,48586,-0.0035546477789094,-0.0080233971153569,-0.1762566904016192,0.0120517878649512,820.0,10.69124143459246,0.6524853029393537,11.073065041668144,-0.0684562687689521,0.023,0.9999999999960184,21039.59940443255,1.4305681386668534,288,2026-10-07 19:02:04.670244,25.0,0.0154234857294571,0.8313007655723674,0.8517986346059188
60,cdot_cos,T,S-T,289,57,48837,-0.2716677300554939,0.0995871969405929,-0.2681130822765844,0.0012259322044172,820.0,10.709889901212854,0.652486683693943,11.092295892670569,-0.0652780995819866,0.251,0.9999999999959432,2301.762537328157,1.4355358245026533,289,2026-10-07 19:02:04.921243,25.0,0.9524795832626568,0.2424434155401928,0.074296679762528
60,cdot_cos,P,T-P,290,58,49257,0.0305943197833035,-0.0005336943864722,0.3022620498387974,0.9994775983304784,719.0,10.812948029193636,0.6536115299397309,11.13062594140342,-0.3622503521714547,0.42,0.9999999999959364,-264.01141818404943,1.4405039570664502,290,2026-10-07 19:02:05.341243,25.0,0.4405204624071911,0.1669013855090001,0.2453764951923387
60,cdot_cos,Q,P-Q,291,58,49352,-0.020397299838976,-0.021819207335275,-0.0509916196222795,0.2184383020704633,719.0,10.850087065040414,0.6538571399358865,11.153990650451084,-0.1313506770500012,0.095,0.9999999999958644,940.1069937529802,1.4454712365685964,291,2026-10-07 19:02:05.436243,25.0,0.1724087428729995,0.7347684624675528,0.3909372194397663
60,cdot_cos,R,Q-R,292,58,49376,0.1552365929630008,0.2876695307125993,0.1756338928019769,0.987761412583243,719.0,10.952554037062471,0.6549667445481624,11.192100142512604,-0.3641808340769801,0.024,0.9999999999958564,-209.83164133520944,1.4504383289196308,292,2026-10-07 19:02:05.460243,25.0,0.5276481112018618,2.558887720486588,4.269457167585718
60,cdot_cos,S,R-S,293,58,49406,-0.0023777026069937,-0.0089775385347251,-0.1576142955699946,0.0190705105474401,719.0,10.97291367562377,0.6549881509012461,11.211614700267862,-0.0727663954970916,0.03,0.9999999999957784,13613.45566154041,1.4554054383347108,293,2026-10-07 19:02:05.490243,25.0,0.0182280402188391,0.6527995557923383,0.6786546187099656
60,cdot_cos,T,S-T,294,58,49636,-0.2725113719780623,-0.0091629156241165,-0.2701336693710685,0.0011656131431559,719.0,10.991722010410012,0.654989459263586,11.2307532633379,-0.0673419308687287,0.23,0.9999999999956994,4145.995694680033,1.460373085112567,294,2026-10-07 19:02:05.720243,25.0,0.922607784239021,0.2668749282457189,0.0817753686358318
60,cdot_cos,P,T-P,295,59,49976,0.0356295872850362,0.0003456863051999,0.3081409592630986,0.9995489692838592,718.0,11.0956761426168,0.6561105540408023,11.269092733763374,-0.3737025361998458,0.34,0.9999999999956932,-273.26913973482823,1.4653410329265086,295,2026-10-07 19:02:06.060243,25.0,0.4405206147024941,0.2044685961126645,0.3057474476670224
60,cdot_cos,Q,P-Q,296,59,50072,-0.0222048996513197,-0.0243072679854687,-0.057834486936356,0.1906391985392767,718.0,11.130760655766624,0.6563241782075007,11.291852631425094,-0.1268810685042522,0.096,0.9999999999956196,1155.400493822058,1.4703083203334033,296,2026-10-07 19:02:06.156243,25.0,0.1429446432692018,0.7211350420364045,0.3654636786440031
60,cdot_cos,R,Q-R,297,59,50097,0.1546976846274431,0.2983824522129732,0.1769025842787629,0.988138964111222,718.0,11.23413407068779,0.6574304401601659,11.329975665661811,-0.3755935564340348,0.025,0.9999999999956124,-224.8224187142733,1.475275414696272,297,2026-10-07 19:02:06.181243,25.0,0.5157231527929872,2.4786661685319444,4.134936596846686
60,cdot_cos,S,R-S,298,59,50128,-0.0022235083115334,-0.0087432508365671,-0.1569211929389765,0.019397369960086,718.0,11.25469396419322,0.6574521392428314,11.349408220542054,-0.0751134240861797,0.031,0.9999999999955324,13847.596093358768,1.4802425266339585,298,2026-10-07 19:02:06.212243,25.0,0.0183091938744403,0.638287220769708,0.6632223711429059
60,cdot_cos,T,S-T,299,59,50355,-0.2572150603838117,-0.0066464292465942,-0.2549915520722782,0.0017010810277932,718.0,11.273707878375513,0.6574540421445585,11.368467786926605,-0.0695874139175534,0.227,0.9999999999954516,2903.991356981954,1.4852101814641685,299,2026-10-07 19:02:06.439244,25.0,0.9236601684190628,0.2727516075910492,0.083761736485867
60,cdot_cos,P,T-P,300,60,50694,0.0359783232045698,-0.0005122357754733,0.2931933835883815,0.9993447476025132,759.0,11.378523194039555,0.6585710749290203,11.406810642957186,-0.385107972535182,0.339,0.9999999999954464,-282.46311389118,1.4901781520796602,300,2026-10-07 19:02:06.778244,25.0,0.44073823721973,0.2067952087369688,0.30918972172284
60,cdot_cos,Q,P-Q,301,60,50787,-0.0218197766265023,-0.0206915317347952,-0.0577980998310721,0.190779597564461,759.0,11.413915029899178,0.6587841222798996,11.429503000144877,-0.1308007861664204,0.093,0.9999999999953716,1193.6650951971376,1.4951454363047278,301,2026-10-07 19:02:06.871244,25.0,0.1430969568711777,0.7530369774818066,0.3805573748346466
60,cdot_cos,R,Q-R,302,60,50813,0.1772374235451661,0.2753085438079731,0.1990572001716685,0.9931486184731502,759.0,11.518588071851172,0.6598921540254062,11.467728745264846,-0.3886151375822121,0.026,0.9999999999953656,-232.67776619333395,1.5001125328538076,302,2026-10-07 19:02:06.897243,25.0,0.5150876541319624,2.397706938628183,4.025886228922842
60,cdot_cos,S,R-S,303,60,50842,-0.0026285906904348,-0.0073699209948461,-0.179866014235601,0.0110234003173008,759.0,11.538595790707843,0.6599044427815748,11.486913236884943,-0.0746844779140531,0.029,0.9999999999952836,25546.17044740041,1.5050796389380925,303,2026-10-07 19:02:06.926244,25.0,0.0149442931990691,0.6742248361956099,0.6899213398852286
60,cdot_cos,T,S-T,304,60,51073,-0.2859999820229943,0.05900170703943,-0.2833713913325595,0.0008374721016426,759.0,11.55769311235052,0.659905376376764,11.505869178250308,-0.0714069755576727,0.231,0.9999999999952004,3510.6247269246664,1.510047321439889,304,2026-10-07 19:02:07.157243,25.0,0.955138512103719,0.2701280046048783,0.082672388063538
60,cdot_cos,P,T-P,305,61,51453,0.0201745334183149,0.0012841346466218,0.3061745154413093,0.9995262528159156,801.0,11.663394928835295,0.6610187389906117,11.544222163219894,-0.3967329331192247,0.38,0.9999999999951958,-292.20125906443445,1.515015435498212,305,2026-10-07 19:02:07.537244,25.0,0.4404261566468651,0.1929137675534948,0.2781626749599334
60,cdot_cos,Q,P-Q,306,61,51554,-0.0235677452673766,-0.0231506953664939,-0.0437422786856916,0.2509490702286561,801.0,11.704307575691177,0.6612979897567008,11.56801721623116,-0.1544658927408524,0.101,0.9999999999951232,867.5608800336587,1.5199827476111345,306,2026-10-07 19:02:07.638243,25.0,0.2083746326128437,0.7236009024129774,0.4050757114443699
60,cdot_cos,R,Q-R,307,61,51577,0.1595033088271711,0.2548100388775436,0.1830710540945477,0.9898167574688282,801.0,11.809562311122718,0.6623983405648682,11.60618357356032,-0.3992393215949213,0.023,0.9999999999951176,-222.4503558658104,1.5249498343606802,307,2026-10-07 19:02:07.661243,25.0,0.5416693597721989,2.737068731426115,4.576292844849646
60,cdot_cos,S,R-S,308,61,51606,-0.0041750540171057,-0.0108471010127701,-0.1636783628442769,0.0164319523540296,801.0,11.830212737336776,0.6624165927032729,11.625391068894842,-0.0787461137381379,0.029,0.9999999999950324,17559.214200059396,1.5299169397042147,308,2026-10-07 19:02:07.690243,25.0,0.0170781421474118,0.7004495336193322,0.7120836625537124
60,cdot_cos,T,S-T,309,61,51852,-0.1922037155309595,0.050472885770421,-0.1880286615138537,0.0090069007455817,801.0,11.85018838407264,0.6624265971033417,11.644423998979386,-0.076302785362674,0.246,0.9999999999949476,244.2253766999032,1.5348846831311935,309,2026-10-07 19:02:07.936243,25.0,0.9684857754807844,0.2566622940974682,0.0812018159994455
60,cdot_cos,P,T-P,310,62,52254,0.0327167385827909,0.0014203406104685,0.2249204541137505,0.9963992696583612,896.0,11.95649058603273,0.6635324466580644,11.682721778407188,-0.4075586911168687,0.402,0.9999999999949432,-299.54879878507376,1.5398528921012324,310,2026-10-07 19:02:08.338243,25.0,0.4436226942216549,0.1797485521778689,0.264433338209181
60,cdot_cos,Q,P-Q,311,62,52360,-0.0187887342925892,-0.0166170259295025,-0.0515054728753802,0.216253071821408,896.0,11.994706220023646,0.6637722183188781,11.705778894459876,-0.1473550385039454,0.106,0.999999999994864,1085.2143732495522,1.544820224216111,311,2026-10-07 19:02:08.444243,25.0,0.1710451028606134,0.6805406794063592,0.3605248489709045
60,cdot_cos,R,Q-R,312,62,52389,0.161909104488117,0.2187521962933906,0.1806978387807063,0.9892010209396228,896.0,12.10076521006688,0.6648679230833581,11.743937470909236,-0.41075039405997,0.029,0.9999999999948572,-240.3889844186612,1.5497873272790108,312,2026-10-07 19:02:08.473243,25.0,0.5266315850852442,2.186422681276208,3.657206553214967
60,cdot_cos,S,R-S,313,62,52411,-0.0037034178979897,-0.0075371831362767,-0.1656125223861068,0.0156684590278807,896.0,12.121518735537666,0.6648852642625865,11.763049596299275,-0.0807963386442331,0.022,0.9999999999947684,19027.19827000248,1.5547544101972504,313,2026-10-07 19:02:08.495244,25.0,0.0168437628809307,0.9269734382926422,0.94334206685391
60,cdot_cos,T,S-T,314,62,52651,-0.1975973876555685,0.1186118876031691,-0.1938939697575787,0.0077880267573773,896.0,12.141552041351757,0.6648938835513846,11.78197811766189,-0.0781227614759806,0.24,0.9999999999946804,310.1853564605099,1.559722153048877,314,2026-10-07 19:02:08.735244,25.0,0.9663562070873422,0.26511981830832,0.0834721075587093
60,cdot_cos,P,T-P,315,63,53150,0.0362500738049099,7.754797130770513e-05,0.2338474614604784,0.9971174307113146,898.0,12.24877624832566,0.6659965194027447,11.820294558774506,-0.4196402309116842,0.499,0.9999999999946756,-309.7282471039023,1.5646906887350551,315,2026-10-07 19:02:09.234244,25.0,0.4431557651011634,0.1458323296760912,0.2148781702883834
60,cdot_cos,Q,P-Q,316,63,53252,-0.015818719067838,-0.0133395670996687,-0.052068792872748,0.2138757160489797,898.0,12.287092706368494,0.6662327925372132,11.843243159361558,-0.1507996983969234,0.102,0.9999999999945894,1137.8379227055184,1.5696580131499198,316,2026-10-07 19:02:09.336244,25.0,0.16817238616845,0.7123924245621552,0.3756515494395481
60,cdot_cos,R,Q-R,317,63,53281,0.1694592712431175,0.2159784752407789,0.1852779903109556,0.990358112867321,898.0,12.39410430293634,0.6673257735021694,11.881427726085384,-0.422958495596012,0.029,0.999999999994581,-249.00598082237505,1.5746251141540373,317,2026-10-07 19:02:09.365243,25.0,0.5254687550389451,2.2014379285438235,3.6900550540636474
60,cdot_cos,S,R-S,318,63,53303,-0.0041980041709463,-0.0076841521870032,-0.1736572754140639,0.0128505874103182,898.0,12.414776106224036,0.6673399438963211,11.900406057306796,-0.0821254549476814,0.022,0.9999999999944872,24052.47426419084,1.579592194417169,318,2026-10-07 19:02:09.387244,25.0,0.0157620359168245,0.9155331058163796,0.9396274221680012
60,cdot_cos,T,S-T,319,63,53550,-0.2729326739606647,0.1639291976520945,-0.2687346697897183,0.0012070516744366,898.0,12.43438775959226,0.6673412749014797,11.919126429060697,-0.0780400306503474,0.247,0.9999999999943932,3069.42784642176,1.5845599753409965,319,2026-10-07 19:02:09.634243,25.0,0.9489963109638748,0.2589373121844706,0.0793994063490877
60,cdot_cos,P,T-P,320,64,54048,0.0494416698526056,-0.0026728412640915,0.3223743438132703,0.9996839703990528,839.0,12.542691138443164,0.6684426989429263,11.957497124523192,-0.4324640861378757,0.498,0.9999999999943868,-321.7871066460631,1.5895285467137488,320,2026-10-07 19:02:10.132244,25.0,0.4406318152792142,0.1435465294673965,0.2174766643592445
60,cdot_cos,Q,P-Q,321,64,54142,-0.0141345484761268,-0.0119149013906139,-0.0635762183287324,0.1694675612394045,839.0,12.577360102941787,0.668629231349894,11.97950918845185,-0.1391890207641835,0.094,0.999999999994292,1572.2472579490725,1.5944958500176178,321,2026-10-07 19:02:10.226244,25.0,0.1215989078344622,0.7591978957193307,0.368818771261948
60,cdot_cos,R,Q-R,322,64,54171,0.1825239352213428,0.2384639795487754,0.1966584836974696,0.9927282652271172,839.0,12.685420342838398,0.6697208592455878,12.01774298068642,-0.4355776841850555,0.029,0.999999999994282,-271.51070853912006,1.5994629489208303,322,2026-10-07 19:02:10.255244,25.0,0.5063892657157382,2.217399098832761,3.726215168848657
60,cdot_cos,S,R-S,323,64,54196,-0.0024864721200794,-0.0050606746541377,-0.1850104073414222,0.0097059753382857,839.0,12.705969250674087,0.6697315231719219,12.036581229677177,-0.0832506381691883,0.025,0.9999999999941828,33039.14852540441,1.6044300360859047,323,2026-10-07 19:02:10.280244,25.0,0.0145215102001173,0.8051164347520512,0.8219563134275631
60,cdot_cos,T,S-T,324,64,54448,-0.2992338279471341,0.134846945504922,-0.2967473558270547,0.0005995784973762,839.0,12.725676164576,0.6697321819213162,12.055211127596944,-0.0799659395653949,0.252,0.9999999999940844,4986.264324313612,1.6093978495876595,324,2026-10-07 19:02:10.532243,25.0,0.9597559736269587,0.2556762745460456,0.0782020392933074
60,cdot_cos,P,T-P,325,65,54887,0.0412132086687114,-0.0014478631589205,0.3404470366158455,0.9997988333929078,763.0,12.834830093045294,0.6708297204504742,12.093587119409346,-0.4444114985112062,0.439,0.9999999999940756,-332.05718912248153,1.6143662691874028,325,2026-10-07 19:02:10.971244,25.0,0.440403777136114,0.1651226420519956,0.2486422060803952
60,cdot_cos,Q,P-Q,326,65,54984,-0.0196052480879445,-0.0198708993301662,-0.0608184567566559,0.1793935831758892,763.0,12.870653844297651,0.671026454810993,12.115731413731844,-0.146636284263513,0.097,0.9999999999939788,1513.59027199124,1.6193335862166915,326,2026-10-07 19:02:11.068243,25.0,0.1312428023747238,0.7439974412506044,0.3693170232201745
60,cdot_cos,R,Q-R,327,65,55008,0.1584478515337453,0.2665493700495787,0.1780530996216899,0.9884713850215934,763.0,12.979165596647912,0.6721093984372302,12.153882693222224,-0.4459095188016162,0.024,0.999999999993968,-276.35162836496454,1.62430066716043,327,2026-10-07 19:02:11.092243,25.0,0.5111192350042671,2.7069225462426814,4.521323014594181
60,cdot_cos,S,R-S,328,65,55039,-0.0022620007866993,-0.0068449484943102,-0.1607098523204446,0.0176754287055585,763.0,13.000586126517302,0.6721287465613609,12.172802790021166,-0.0884637748783167,0.031,0.9999999999938652,18474.43925354356,1.629267772116327,328,2026-10-07 19:02:11.123244,25.0,0.0175871128919084,0.6671377172404808,0.690984834496456
60,cdot_cos,T,S-T,329,65,55286,-0.2610966258303351,0.0376853502063841,-0.2588346250436358,0.0015454930171034,763.0,13.02052813511682,0.672130438282668,12.191375428872195,-0.0824886102968189,0.247,0.9999999999937624,3532.002911023471,1.6342355869859284,329,2026-10-07 19:02:11.370244,25.0,0.930125051699102,0.2629395697695907,0.080736876921125
60,cdot_cos,P,T-P,330,66,55650,0.0330213514103144,0.003035925046273,0.2941179772406495,0.999359710362715,695.0,13.13047827398348,0.6732234157782305,12.2297446646644,-0.456286714961459,0.364,0.9999999999937528,-341.9998180953156,1.6392037927733265,330,2026-10-07 19:02:11.734244,25.0,0.4407763858528556,0.2038904462429329,0.3020608210622525
60,cdot_cos,Q,P-Q,331,66,55753,-0.0209933746667057,-0.0263696734894263,-0.0540147260770201,0.2058101899840696,695.0,13.168960379981677,0.6734482728818832,12.2523522569331,-0.1605482026559552,0.103,0.9999999999936574,1315.228683022868,1.6441711349170025,331,2026-10-07 19:02:11.837244,25.0,0.1584914971770425,0.7149634146560371,0.3736126795941458
60,cdot_cos,R,Q-R,332,66,55775,0.1401279241405769,0.3272716725237965,0.1611212988072827,0.9825022867486776,695.0,13.277760737402623,0.6745206017834628,12.2903852378933,-0.4556845883399825,0.022,0.9999999999936456,-275.229349175682,1.6491382078233847,332,2026-10-07 19:02:11.859244,25.0,0.523259946340442,2.9868178534993626,4.945470791861211
60,cdot_cos,S,R-S,333,66,55814,-0.0001623302631152,-0.0014211061242059,-0.1402902544036922,0.0291064690422212,695.0,13.300380365535649,0.6745523415569368,12.30946008190727,-0.0952031367666713,0.039,0.9999999999935422,11357.404673018122,1.654105339082421,333,2026-10-07 19:02:11.898243,25.0,0.0226760696948458,0.5463162805659804,0.5799904649493671
60,cdot_cos,T,S-T,334,66,56045,-0.3118185954185986,-0.0498624118945849,-0.3116562651554834,0.0004131004332973,695.0,13.32037340728677,0.6745527920196361,12.327937125673548,-0.084283052550569,0.231,0.9999999999934353,24241.927758991413,1.6590731184348244,334,2026-10-07 19:02:12.129244,25.0,0.8784780013305956,0.2831653816180496,0.0865499642905677
60,cdot_cos,P,T-P,335,67,56345,0.0447901123315953,-2.801461548080111e-05,0.3566087077501939,0.9998656889277726,798.0,13.431202771843187,0.6756421421019055,12.366317126009834,-0.4686933678175906,0.3,0.9999999999934268,-352.8804206506267,1.6640411359578815,335,2026-10-07 19:02:12.429244,25.0,0.4403548372080164,0.2439115282666944,0.3694312151880593
60,cdot_cos,Q,P-Q,336,67,56441,-0.0186207283820177,-0.0172041083046639,-0.063410840713613,0.1700502722060242,798.0,13.466720324246786,0.6758272225607656,12.388153784612578,-0.1509794864703182,0.096,0.9999999999933284,1716.625749169897,1.6690084605354154,336,2026-10-07 19:02:12.525243,25.0,0.121924739003905,0.760606226216561,0.369974504204155
60,cdot_cos,R,Q-R,337,67,56465,0.1763599615287662,0.2637729094981603,0.1949806899107839,0.9924191276559337,798.0,13.577239167276767,0.6769062605848017,12.426383421248469,-0.4715275638598403,0.024,0.9999999999933196,-297.0683796577404,1.673975539582364,337,2026-10-07 19:02:12.549243,25.0,0.506714414815262,2.7433809254571915,4.604951792915868
60,cdot_cos,S,R-S,338,67,56494,-0.0024100952915137,-0.0059687123693534,-0.17877005682028,0.011326137320733,798.0,13.598402608668732,0.6769185644370904,12.445032692143338,-0.0907316905781064,0.029,0.999999999993212,30949.3209400948,1.6789426369631049,338,2026-10-07 19:02:12.578244,25.0,0.0150414652908501,0.7121233201677633,0.7297738411022191
60,cdot_cos,T,S-T,339,67,56724,-0.3130681815880313,0.1070399939404431,-0.3106580862965175,0.0004235344159939,798.0,13.618542319846496,0.6769190245278469,12.46343734629223,-0.0864739422871687,0.23,0.9999999999931044,9254.148732282509,1.683910430519224,339,2026-10-07 19:02:12.808243,25.0,0.9519551505059765,0.2864971902223693,0.0875639616424527
60,cdot_cos,P,T-P,340,68,57143,0.0373378141011065,-0.0020815738579602,0.3504059956891379,0.9998431635069788,780.0,13.73019131617102,0.6780042105893881,12.501816728368428,-0.4808592905154627,0.419,0.9999999999930974,-363.42647791493886,1.688878886428574,340,2026-10-07 19:02:13.227243,25.0,0.4403577179800534,0.1784908344151369,0.2664653850227302
60,cdot_cos,Q,P-Q,341,68,57235,-0.0197688056442771,-0.0179746971422323,-0.0571066197453837,0.1934626879940258,780.0,13.768117639086382,0.6782139654439326,12.524062593310394,-0.1641816094096021,0.092,0.9999999999929956,1509.7513799786557,1.693846201625371,341,2026-10-07 19:02:13.319244,25.0,0.1453187696662827,0.8115320445620317,0.4122426403843758
60,cdot_cos,R,Q-R,342,68,57264,0.1788240588964643,0.259448525416801,0.1985928645407415,0.9930691759842144,780.0,13.879513212370435,0.679289532435776,12.5623036629568,-0.4839909641194808,0.029,0.9999999999929872,-297.340246711914,1.6988132966535017,342,2026-10-07 19:02:13.348243,25.0,0.5164506893739671,2.2866772720051016,3.8412266649673454
60,cdot_cos,S,R-S,343,68,57291,-0.0034691036198453,-0.0086059132695597,-0.1822931625163096,0.0103811412112041,780.0,13.900744920862678,0.6793007659509288,12.58086421116052,-0.0926884722487354,0.027,0.9999999999928756,34833.48591655885,1.7037803856558151,343,2026-10-07 19:02:13.375243,25.0,0.0146737463360615,0.7691606810453777,0.7863595737867731
60,cdot_cos,T,S-T,344,68,57523,-0.3008158073037476,0.0762082350448142,-0.2973467036839022,0.0005906668332489,780.0,13.921047889146886,0.6793014051099434,12.599202131967678,-0.0887664307835346,0.232,0.999999999992764,6136.253069405886,1.708748203005236,344,2026-10-07 19:02:13.607244,25.0,0.9567780505680664,0.2861323752136879,0.0875127943284807
60,cdot_cos,P,T-P,345,69,57923,0.0369576841092912,0.0021008477292227,0.3377734914130388,0.9997849311561848,818.0,14.03351034296183,0.6803823044844766,12.637578892035116,-0.4931594192478266,0.4,0.999999999992757,-374.1263969543442,1.7137166246533877,345,2026-10-07 19:02:14.007244,25.0,0.4404296319654104,0.1893813358156171,0.2811561345373592
60,cdot_cos,Q,P-Q,346,69,58030,-0.0178594242272399,-0.0183953051461993,-0.0548171083365311,0.2025507524916564,818.0,14.07255295779938,0.6806010531312626,12.659950873810708,-0.1720714512189918,0.107,0.999999999992654,1467.839791223323,1.7186839983295543,346,2026-10-07 19:02:14.114244,25.0,0.1547390169526118,0.7043807371799005,0.3648842508182243
60,cdot_cos,R,Q-R,347,69,58058,0.1569769671905503,0.2587608732948482,0.1748363914177902,0.9875180328800868,818.0,14.184247820718328,0.681666402950193,12.698077774247755,-0.4940305797036303,0.028,0.9999999999926436,-302.2097744456312,1.7236510884736111,347,2026-10-07 19:02:14.142244,25.0,0.521159686142433,2.3897512827173766,3.989102247105311
60,cdot_cos,S,R-S,348,69,58080,-0.0020311645741907,-0.0054243538374184,-0.159008131764741,0.0184294620876487,818.0,14.206379029631552,0.6816862669333218,12.716732071784117,-0.0983477580479667,0.022,0.9999999999925296,19919.6112426108,1.7286181578539788,348,2026-10-07 19:02:14.164243,25.0,0.0178937656380573,0.9678066804373584,1.0059640415102
60,cdot_cos,T,S-T,349,69,58322,-0.2987266696008253,0.0930728368960367,-0.2966955050266345,0.0006003557500513,818.0,14.226831314657572,0.6816869140087296,12.73500216647377,-0.0910231212321976,0.242,0.9999999999924144,11319.603136430704,1.7335860287634406,349,2026-10-07 19:02:14.406244,25.0,0.9226825202889356,0.2762988650146002,0.0845135744876833
