record_id,input,event,transition,event_index,k,peak,value_cos,value_sin,value_return,x_input,rr,knowledge,decision,decision_norm,entropy,delta_t,cosine_similarity,delta_h_over_delta_d,frobenius_norm,matrix_size,timestamp,scale,P,zdot,zdot_back
0275,cdot_cos,Q,P-Q,1,0,1360,-0.05458061944793949,-0.0717433309974203,-0.07301993282934072,0.1387754251231989,679.0,0.0006893171774884348,0.5001723292875485,0.5001723292875485,,,1.0,,0.004967141530112327,1,2026-10-07 20:46:17.444243,25.0,,,
0275,cdot_cos,R,Q-R,2,0,1383,0.029658332095272886,0.2086878766197996,0.08423895154321237,0.8914824450125667,679.0,0.007237148319931557,0.5012793563713714,0.7089160643180494,-9.359631563771154e-06,,1.0,,0.009934283060224654,2,2026-10-07 20:46:17.467244,25.0,,,
0275,cdot_cos,S,R-S,3,0,1438,0.05631883602263048,-0.07225714350123269,0.026660503927357592,0.6607218323215504,679.0,0.014548075847339787,0.5020998215316804,0.8696624013641363,-2.8721783495872352e-05,0.055,0.9999999999999999,-0.023598993435394094,0.014901424600841701,3,2026-10-07 20:46:17.522244,25.0,0.5096007145419813,0.08769747089376827,0.13292595504378601
0275,cdot_cos,T,S-T,4,0,1628,-0.13368687948322366,-0.20624729676252904,-0.19000571550585416,0.00857627039503747,679.0,0.016883870118246064,0.5021104712301073,1.0042209424620234,-1.3239838038331138e-05,0.19,1.0,1.4537449641234776,0.01986856619570436,4,2026-10-07 20:46:17.712243,25.0,0.31057013291006136,0.04043360978026095,0.012293654057401458
0275,cdot_cos,P,T-P,5,1,1910,0.06829888931097261,-0.00481026498433975,0.20198576879419627,0.9936292327361015,674.0,0.029912847563838947,0.5033443081473086,1.1255120891204697,-0.00010994888950012068,0.282,1.0,-0.07838074069072097,0.024835707886225827,5,2026-10-07 20:46:17.994244,25.0,0.41495637496933896,0.030129949565857034,0.04620204767940739
0275,cdot_cos,Q,P-Q,6,1,2037,-0.023677726779716964,-0.03908838699095495,-0.09197661609068958,0.09117138872017407,674.0,0.03387716167338943,0.5034575182067546,1.233214026814137,-4.560206483531889e-05,0.127,1.0,0.5683843377496575,0.02980284951214713,6,2026-10-07 20:46:18.121243,25.0,0.2438869010280605,0.06883339407201254,0.03121507172874396
0275,cdot_cos,R,Q-R,7,1,2059,0.03757123839338432,0.252476513178211,0.061248965173101286,0.8221853483490872,674.0,0.04739652965813013,0.5044784312988062,1.3347244710729653,-0.00019813266616345118,0.022,1.0,-0.14940605867008955,0.034769991027523664,7,2026-10-07 20:46:18.143244,25.0,0.46308680665466795,0.481062818921338,0.6145167265791229
0275,cdot_cos,S,R-S,8,1,2100,0.0058277342383535845,-0.014126121206911054,-0.03174350415503073,0.31139886086916324,674.0,0.0550439257059283,0.504865088074483,1.4279741095088785,-0.00014126302929604568,0.041,1.0000000000000002,0.14708040940923742,0.03973713260563594,8,2026-10-07 20:46:18.184243,25.0,0.6685930077548762,0.1342203991265605,0.18652185482434558
0275,cdot_cos,T,S-T,9,1,2307,-0.25925770113561375,-0.11621239217287714,-0.26508543537396734,0.001322199080751873,674.0,0.058402602386508094,0.5048667298064741,1.514600189495278,-6.870728904883232e-05,0.207,1.0,44.194631428320896,0.044704274583428315,9,2026-10-07 20:46:18.391244,25.0,0.3478401410280035,0.053659365054149685,0.016225491210530397
0275,cdot_cos,P,T-P,10,2,2584,0.03380306707865357,-0.0003700375782699369,0.2930607682142673,0.9993425730143648,665.0,0.07725890283834627,0.5061075487127562,1.6004525951144388,-0.0004612462705120816,0.277,1.0000000000000002,-0.3163547714141565,0.04967141686890128,10,2026-10-07 20:46:18.668243,25.0,0.4269706927649685,0.04489468826667295,0.0680732868297407
0275,cdot_cos,Q,P-Q,11,2,2704,-0.040071993649828774,-0.046217990155546826,-0.07387506072848235,0.13624004682109783,665.0,0.08327425968624491,0.5062767036625742,1.679129866467685,-0.0001741174364642041,0.12,0.9999999999999998,1.6974308724450142,0.054638558728991725,11,2026-10-07 20:46:18.788243,25.0,0.19223191781305649,0.10520151931394973,0.050127973732488666
0275,cdot_cos,R,Q-R,12,2,2727,0.048969945228637644,0.26263357820605765,0.08904193887846643,0.9025644064996373,665.0,0.10250726747369421,0.5073972849166052,1.7576757546015478,-0.0006442274406082459,0.023,1.0,-0.419523352236111,0.059605700212033895,12,2026-10-07 20:46:18.811244,25.0,0.4820406839916738,0.6258826703519256,0.8362177298890998
0275,cdot_cos,S,R-S,13,2,2781,0.01506878612330614,-0.023854244168557595,-0.03390115910533151,0.2999514676218723,665.0,0.11206486252243349,0.5077696745643475,1.8307895981793083,-0.0003697444022022908,0.054,1.0000000000000002,0.7370855770831682,0.06457284192522228,13,2026-10-07 20:46:18.865243,25.0,0.47598978985583934,0.12826904698747119,0.17699250090257923
0275,cdot_cos,T,S-T,14,2,2967,-0.2109463842123258,-0.09295873926484416,-0.22601517033563195,0.003503862757510319,665.0,0.1163603245483411,0.5077740245586609,1.8999164302763532,-0.00017690227798161415,0.186,0.9999999999999999,44.3315807622025,0.06953998449511249,14,2026-10-07 20:46:19.051244,25.0,0.3361810664882126,0.07409792628090832,0.023093881859718328
0275,cdot_cos,P,T-P,15,3,3249,0.024910003221745473,0.001448743263698933,0.23585638743407128,0.9972582399516996,699.0,0.13962929109893138,0.5090120556886127,1.9713952154531587,-0.001073848176476276,0.282,1.0,-0.7244938166696846,0.07450712792156666,15,2026-10-07 20:46:19.333244,25.0,0.43376028684274026,0.05399299489498316,0.08251406578223505
0275,cdot_cos,Q,P-Q,16,3,3375,-0.050756766389983145,-0.060173729665091415,-0.07566676961172862,0.13105426085626654,699.0,0.1468123736691116,0.5091747431243803,2.036698973691958,-0.0003709243519984083,0.126,0.9999999999999998,4.320701356940129,0.07947427025435137,16,2026-10-07 20:46:19.459244,25.0,0.15030934783293318,0.12155705062595358,0.05700859182682711
0275,cdot_cos,R,Q-R,17,3,3398,0.049367828125115136,0.24054916869967952,0.10012459451509828,0.9243598951580446,699.0,0.17026166785667168,0.510322162891892,2.104112182125905,-0.0013402625569329388,0.023,0.9999999999999999,-0.844798244182765,0.08444141167907915,17,2026-10-07 20:46:19.482244,25.0,0.4851753005519948,0.8218023472779523,1.019534529893917
0275,cdot_cos,S,R-S,18,3,3457,0.04083652997111135,-0.06174841784851289,-0.008531298154003789,0.4468805982027113,699.0,0.1846152816438974,0.5108768432451987,2.1674668827033297,-0.0009181592904971812,0.059,1.0,0.7609847075337325,0.08940855360956983,18,2026-10-07 20:46:19.541243,25.0,0.6314555622353559,0.16589507530654063,0.2432815896139952
0275,cdot_cos,T,S-T,19,3,3648,-0.15439552537252269,-0.0516635752217098,-0.19523205534363403,0.007533740261518041,699.0,0.18983728674284348,0.5108861941027875,2.226901293350948,-0.00035246235354558924,0.191,0.9999999999999999,60.49679738779762,0.09437569726975065,19,2026-10-07 20:46:19.732243,25.0,0.2008924848063847,0.08410055031312635,0.027340340832178404
0275,cdot_cos,P,T-P,20,4,3948,0.026116661428110248,-0.0008207815593360671,0.18051218680063294,0.9891513281626585,698.0,0.21674169186351167,0.5121138573639797,2.2902427968458694,-0.0019715049342862454,0.3,0.9999999999999997,-1.318800221461606,0.0993428426938391,20,2026-10-07 20:46:20.032243,25.0,0.4398939195182367,0.058545078841919417,0.0896813504022273
0275,cdot_cos,Q,P-Q,21,4,4060,-0.05132121469372153,-0.04793853724117809,-0.07743787612183178,0.12609380768727518,698.0,0.22496433404799512,0.5122703457082496,2.347517638860968,-0.0006545873938078608,0.112,1.0,8.415435326017132,0.1043099854639774,21,2026-10-07 20:46:20.144243,25.0,0.13374390720274784,0.16038010350652568,0.07341644807574517
0275,cdot_cos,R,Q-R,22,4,4084,0.0777419280398132,0.23661913851078542,0.12906314273353472,0.9618223157745855,698.0,0.2526668350489734,0.5134639310521955,2.408359318119852,-0.0023844112700038694,0.024,0.9999999999999994,-1.4492670213906875,0.10927712682211939,22,2026-10-07 20:46:20.168243,25.0,0.48409596823880513,0.7896025802462547,1.1542708750407622
0275,cdot_cos,S,R-S,23,4,4134,0.01967284075960153,-0.04633320878107338,-0.058069087280211665,0.18973589334122679,698.0,0.26286525789981535,0.5136993684621696,2.463615628625652,-0.0009474299942385419,0.05,0.9999999999999997,6.103453465289625,0.11424426879181011,23,2026-10-07 20:46:20.218244,25.0,0.219431538719091,0.1595216782460096,0.20396845701683874
0275,cdot_cos,T,S-T,24,4,4327,-0.1999080545297165,-0.041583457994315086,-0.219580895289318,0.004112830941113599,698.0,0.2686190028735744,0.5137044718801166,2.5166276734560045,-0.0005510603732414066,0.193,1.0,77.6674818939425,0.11921141373784348,24,2026-10-07 20:46:20.411244,25.0,0.48710026646309584,0.09339084058326509,0.029812150123103745
0275,cdot_cos,P,T-P,25,5,4646,0.02962841898708479,-0.0005669426781161822,0.2295364735168013,0.9967904564336503,700.0,0.2989141223649557,0.5149412553542452,2.5747062819820146,-0.0030978504916866854,0.319,0.9999999999999996,-2.0592045185918195,0.12417856178705075,25,2026-10-07 20:46:20.730243,25.0,0.439501017905262,0.06313638805526672,0.09496902661875017
0275,cdot_cos,Q,P-Q,26,5,4760,-0.036538600037942404,-0.03606024761039304,-0.0661670190250272,0.16054542035110064,700.0,0.30890001845283455,0.5151404379026353,2.6267111522861795,-0.0010935634671271498,0.114,0.999999999999999,10.062563416117245,0.12914570525927418,26,2026-10-07 20:46:20.844243,25.0,0.1599644672403439,0.1765174687677396,0.08759557971823566
0275,cdot_cos,R,Q-R,27,5,4784,0.07677846079848323,0.25306315672193097,0.11331706083642563,0.9444293931632798,700.0,0.3391601052440003,0.5163120557969274,2.682836147518105,-0.0035327063633317024,0.024,0.9999999999999991,-2.081858691376768,0.13411284650177255,27,2026-10-07 20:46:20.868243,25.0,0.5013524275884491,0.8382466141173435,1.2608369496319067
0275,cdot_cos,S,R-S,28,5,4838,0.00507457304155892,-0.014639851524731047,-0.07170388775692431,0.14275459501007476,700.0,0.34913585593046703,0.5164891356358141,2.7330036234912103,-0.0012368948427964655,0.054,0.9999999999999992,12.964838543839344,0.13907998874190322,28,2026-10-07 20:46:20.922244,25.0,0.15627954886357456,0.150144803933051,0.18473612382345783
0275,cdot_cos,T,S-T,29,5,5026,-0.23882387968340985,-0.1304704608272618,-0.24389845272496877,0.002243524162156212,700.0,0.3553757440687698,0.5164919185808793,2.7813941114607186,-0.0007919117078429715,0.188,0.9999999999999991,159.89648538967253,0.14404713505175254,29,2026-10-07 20:46:21.110244,25.0,0.5701190762060869,0.10499931795829294,0.03319089435267439
0275,cdot_cos,P,T-P,30,6,5346,0.02049223207436551,0.0016163554360643516,0.25931611175777536,0.9984729705862003,718.0,0.3886155994827852,0.5177303549702134,2.835725951279796,-0.004454152764239237,0.32,0.9999999999999986,-2.957149101832761,0.14901428596253252,30,2026-10-07 20:46:21.430244,25.0,0.4394601535560059,0.07153788999495558,0.103874548168798
0275,cdot_cos,Q,P-Q,31,6,5473,-0.02982947859390776,-0.035441993952779687,-0.05032171066827327,0.22131100302718565,718.0,0.4011599936655414,0.5180048247848631,2.884128816312035,-0.0017843269697629198,0.127,0.9999999999999982,9.727210979041208,0.15398143071321624,31,2026-10-07 20:46:21.557244,25.0,0.22396513456407488,0.17361224110514234,0.09877475734453711
0275,cdot_cos,R,Q-R,32,6,5496,0.05567461567616637,0.2504996096643458,0.08550409427007413,0.894504568042755,718.0,0.43271310872349134,0.5191140765733046,2.936552684415853,-0.004737962507395575,0.023,0.9999999999999986,-2.662727766959594,0.15894857177333693,32,2026-10-07 20:46:21.580243,25.0,0.5361196965997245,0.956892388621208,1.3718745677369542
0275,cdot_cos,S,R-S,33,6,5554,0.000642019014523773,-0.002388496962687294,-0.0550325966616426,0.20168198361608708,718.0,0.44517704354211696,0.5193641515037678,2.9835199191346273,-0.0019702803186791807,0.058,0.9999999999999981,11.067411609749945,0.16391571440202288,33,2026-10-07 20:46:21.638243,25.0,0.24543701211647823,0.16589387874420844,0.2148954279073383
0275,cdot_cos,T,S-T,34,6,5744,-0.23249209556797945,-0.041848479657262,-0.23313411458250322,0.002934285011549725,718.0,0.4519567986578195,0.5193677897897799,3.028408613078338,-0.0010952258224123754,0.19,0.9999999999999979,240.5128385589172,0.1688828626004472,34,2026-10-07 20:46:21.828243,25.0,0.44979122248199377,0.11240742104336936,0.035682921661592405
0275,cdot_cos,P,T-P,35,7,6064,0.02312891142825705,-0.001036327729907485,0.2556210069962365,0.9983254338207915,660.0,0.4878918635385973,0.5206055142006345,3.0799437752312766,-0.00608026771988185,0.32,0.9999999999999982,-4.027586313844798,0.17385001697177155,35,2026-10-07 20:46:22.148243,25.0,0.4404879868969055,0.07353337429484366,0.11229707775243063
0275,cdot_cos,Q,P-Q,36,7,6175,-0.049115139186310636,-0.04960153980568241,-0.07224405061456768,0.14110998357423546,660.0,0.49901815820651946,0.5207804423831635,3.1246826766076192,-0.0019767960289273816,0.111,0.9999999999999974,23.45803650178118,0.1788171620613428,36,2026-10-07 20:46:22.259244,25.0,0.12545357953987651,0.20955994544223006,0.10023688890019948
0275,cdot_cos,R,Q-R,37,7,6199,0.06364384196810718,0.24419836269619782,0.11275898115441782,0.943692600880394,660.0,0.5344141714267724,0.521950165810554,3.174898935162553,-0.006583898806944986,0.024,0.9999999999999976,-3.938625721377024,0.18378430300838855,37,2026-10-07 20:46:22.283243,25.0,0.49670798787122566,1.0308490901188698,1.4748338841772055
0275,cdot_cos,S,R-S,38,7,6255,0.014335627841118474,-0.030434065124974128,-0.049308214126988714,0.22570827643732475,660.0,0.5484989145322252,0.522229899966739,3.2192413321250726,-0.0027451607179675716,0.056,0.9999999999999968,13.72280790208149,0.18875144585649253,38,2026-10-07 20:46:22.339243,25.0,0.24700035185140926,0.19050816784716468,0.251513269740229
0275,cdot_cos,T,S-T,39,7,6444,-0.22301192233129044,-0.08783530252988764,-0.2373475501724089,0.002641696521940814,660.0,0.5557510862256548,0.5222331739015894,3.2613451505383213,-0.0014413202092762362,0.189,0.9999999999999966,398.2487643314161,0.19371859613578143,39,2026-10-07 20:46:22.528243,25.0,0.4046974875015908,0.1208427130391153,0.03837127880121492
0275,cdot_cos,P,T-P,40,8,6724,0.022018525305166594,0.0010162694680022908,0.24503044763645704,0.9978189407640177,720.0,0.5941774600610108,0.5234696621188107,3.310712865027671,-0.007951093739207826,0.28,0.9999999999999966,-5.26472750752168,0.1986857521733739,40,2026-10-07 20:46:22.808243,25.0,0.44099276942189675,0.08944074622509714,0.13723704941198558
0275,cdot_cos,Q,P-Q,41,8,6849,-0.05243768764484209,-0.05406432548808598,-0.07445621295000869,0.13453933410317803,720.0,0.6058379041117092,0.523636360373434,3.3529087047062336,-0.0025177629558793494,0.125,0.9999999999999961,32.59380726936091,0.20365289928144403,41,2026-10-07 20:46:22.933243,25.0,0.11555607898162501,0.1965889912757901,0.0932835524055875
0275,cdot_cos,R,Q-R,42,8,6871,0.05513141632046584,0.20749325522422882,0.10756910396530793,0.9363879887080475,720.0,0.6433247078799583,0.5247964251599602,3.4010695874042534,-0.008423886368533282,0.022,0.9999999999999958,-5.091201354658631,0.2086200399640574,42,2026-10-07 20:46:22.955244,25.0,0.49603131198311906,1.2415068828667226,1.703945625829504
0275,cdot_cos,S,R-S,43,8,6930,0.01979275668708487,-0.041060622932633975,-0.03533865963338097,0.2924599522005443,720.0,0.660464206957845,0.5251586913356113,3.443695870534674,-0.004019657063644036,0.059,0.9999999999999953,12.157440028655186,0.2135871834134625,43,2026-10-07 20:46:23.014244,25.0,0.3343145715543798,0.21112069870379788,0.29049998437096103
0275,cdot_cos,T,S-T,44,8,7123,-0.19933088539696323,-0.03752556050618173,-0.2191236420840481,0.0041599191177219864,720.0,0.6682369503270065,0.525163843980897,3.4835428856912367,-0.0018577393683617395,0.193,0.9999999999999949,419.5743303534331,0.2185543364912807,44,2026-10-07 20:46:23.207244,25.0,0.31231726331606074,0.12567987650763765,0.04027328170549974
0275,cdot_cos,P,T-P,45,9,7444,0.021795838807880195,0.00014622307789891143,0.22112672420484342,0.9960424633034344,741.0,0.7089766392897932,0.526397426016788,3.53118132607587,-0.010090004554305103,0.321,0.9999999999999952,-6.673463901407678,0.22352149964131077,45,2026-10-07 20:46:23.528243,25.0,0.44224856167712917,0.08668095873501862,0.12691491888718592
0275,cdot_cos,Q,P-Q,46,9,7561,-0.031197075769438493,-0.028807446799650777,-0.05299291457731869,0.2100170136024964,741.0,0.7238861258348884,0.5266574879734404,3.571964923034827,-0.0038416306000266113,0.117,0.9999999999999937,24.026482130295005,0.22848864761661483,46,2026-10-07 20:46:23.645243,25.0,0.1966184850635866,0.23385442325164654,0.12743150893243824
0275,cdot_cos,R,Q-R,47,9,7584,0.07837934053231299,0.21678649244979023,0.10957641630175148,0.939312495947036,741.0,0.7636985743306784,0.5278204502003435,3.6185547522522494,-0.010647276195900612,0.023,0.9999999999999934,-5.851991955058358,0.23345578815278678,47,2026-10-07 20:46:23.668243,25.0,0.5277190534455954,1.137683153812024,1.7309760215560879
0275,cdot_cos,S,R-S,48,9,7636,0.00198576899076276,-0.009634771375535249,-0.07639357154155023,0.12899890831850633,741.0,0.7762195509102415,0.5279801403763696,3.6579537689247936,-0.0034662368542798688,0.052,0.9999999999999931,44.96857302258716,0.23842293141632404,48,2026-10-07 20:46:23.720243,25.0,0.12597012341480032,0.19838550918439943,0.24078801114544388
0275,cdot_cos,T,S-T,49,9,7824,-0.24790666183052407,-0.0051860025745831505,-0.24989243082128682,0.0019319130446924853,741.0,0.784330667285856,0.5279825318844441,3.6958777793594537,-0.0022755194390037844,0.188,0.9999999999999923,497.89395569739696,0.24339008676230475,49,2026-10-07 20:46:23.908243,25.0,0.5925779850623483,0.13604522193515242,0.04314423604050244
0275,cdot_cos,P,T-P,50,10,8185,0.019264781125221352,0.001863793328443593,0.2671714429557454,0.9987449024241809,816.0,0.8273725543578588,0.5292187000666038,3.742141377986804,-0.01246738312779398,0.361,0.9999999999999921,-8.244722551412393,0.24835725863236857,50,2026-10-07 20:46:24.269243,25.0,0.4415419740137077,0.08255855318627553,0.11922960407757022
0275,cdot_cos,Q,P-Q,51,10,8314,-0.02796853936419414,-0.02673446087317002,-0.04723332048941549,0.23490245147747374,816.0,0.8439379426863469,0.5295093924242045,3.781453503564171,-0.004975399186059144,0.129,0.9999999999999908,25.772896142064198,0.25332440917230525,51,2026-10-07 20:46:24.398243,25.0,0.22183850938729027,0.22563676532601162,0.12841386301153554
0275,cdot_cos,R,Q-R,52,10,8337,0.07731610475870768,0.19878117800941975,0.10528464412290181,0.9329001335257485,816.0,0.8855868398119698,0.5306636590975939,3.8266701456643992,-0.012941313792965915,0.023,0.9999999999999906,-6.901277486869733,0.2582915493822963,52,2026-10-07 20:46:24.421243,25.0,0.5403482633257959,1.1927705276443195,1.8108216141575182
0275,cdot_cos,S,R-S,53,10,8392,0.001695393591802387,-0.009230285201414369,-0.07562071116690529,0.13118544386062625,816.0,0.8988053869579856,0.5308259473266853,3.8644713087190916,-0.004237451291728993,0.055,0.9999999999999897,53.632124461329184,0.2632586932165237,53,2026-10-07 20:46:24.476243,25.0,0.1282168304842237,0.19855436138417437,0.24033722083665054
0275,cdot_cos,T,S-T,54,10,8583,-0.20998142671121722,0.03662507917256697,-0.2116768203030196,0.005006891699162901,816.0,0.907427819564229,0.5308321411744731,3.9008037367519837,-0.002797909335731971,0.191,0.999999999999989,232.41480987617535,0.26822585174688346,54,2026-10-07 20:46:24.667244,25.0,0.5977956586329601,0.1406757778814288,0.04514362621069844
0275,cdot_cos,P,T-P,55,11,9001,0.03270126298382238,0.0005186628072859635,0.2426826896950396,0.9976873992485181,780.0,0.9525435341086914,0.5320661527799576,3.9459082874385984,-0.015070537098308816,0.418,0.9999999999999883,-9.945309839900604,0.27319303630679037,55,2026-10-07 20:46:25.085243,25.0,0.442929021060839,0.07604060977689442,0.10793233144608229
0275,cdot_cos,Q,P-Q,56,11,9115,-0.00819584345499046,-0.010370965159157959,-0.040897106438812836,0.26455479143010546,780.0,0.9709977693377128,0.5323933080319269,3.98406681662086,-0.006374636372008373,0.114,0.9999999999999868,26.580348852592707,0.27816018675605947,56,2026-10-07 20:46:25.199244,25.0,0.2556002267932711,0.2726395787273735,0.16187925639492406
0275,cdot_cos,R,Q-R,57,11,9138,0.0986754885133436,0.21689608876885963,0.10687133196833405,0.9353409659623766,780.0,1.0147053580585326,0.5335497495084275,4.028212386020693,-0.015581022705765243,0.023,0.9999999999999859,-7.960961726844372,0.28312732654076295,57,2026-10-07 20:46:25.222244,25.0,0.5538442540656763,1.207120908039022,1.90032994438347
0275,cdot_cos,S,R-S,58,11,9190,-1.3402327845184922e-05,-0.0004005814794655218,-0.09868889084118879,0.07818820498695776,780.0,1.0265253311075078,0.5336464040720325,4.064130046707116,-0.004331337599560773,0.052,0.9999999999999847,116.39062540473806,0.2880944702575595,58,2026-10-07 20:46:25.274244,25.0,0.07447607361586488,0.19847271433311914,0.22730717401875378
0275,cdot_cos,T,S-T,59,11,9383,-0.3313120572570549,-0.04089609272221246,-0.33129865492920973,0.000252848704534405,780.0,1.035346520349177,0.5336467166340246,4.0990183249424135,-0.003265143197137767,0.193,0.9999999999999832,3411.145401895538,0.29306163214428926,59,2026-10-07 20:46:25.467244,25.0,0.7214167235836878,0.14514993142069058,0.04570564373921861
0275,cdot_cos,P,T-P,60,12,9781,0.019839039820106805,-0.00031782877129148763,0.35115109707716174,0.9998460574968266,761.0,1.0825532046358943,0.5348824793713306,4.143181996590252,-0.017942150893848666,0.398,0.9999999999999828,-11.87688158384481,0.2980288220048095,60,2026-10-07 20:46:25.865243,25.0,0.4413053251693816,0.07957046532887097,0.11860975951436525
0275,cdot_cos,Q,P-Q,61,12,9895,-0.03967756359595152,-0.033921427356807934,-0.05951660341605833,0.1842348679320718,761.0,1.0986846107509582,0.5351101387468608,4.179343937479519,-0.0063141230305983845,0.114,0.9999999999999807,51.07642870482238,0.30299597397310873,61,2026-10-07 20:46:25.979244,25.0,0.15856505603389523,0.2745275262372127,0.14150356241284137
0275,cdot_cos,R,Q-R,62,12,9919,0.08600356543584615,0.20228348448685854,0.12568112903179768,0.958593460036189,761.0,1.1451454806179788,0.5362944363025617,4.222786770050295,-0.018701112553351603,0.024,0.9999999999999801,-10.459355812333781,0.3079631134830186,62,2026-10-07 20:46:26.003244,25.0,0.5156296779990547,1.2526424486316023,1.935869577792524
0275,cdot_cos,S,R-S,63,12,9973,0.003714586013510576,-0.016621547224970324,-0.08228897942233558,0.11332442013463234,761.0,1.1588114482852752,0.5364344165491784,4.25781633882811,-0.005647901395674722,0.054,0.9999999999999782,93.25037977260853,0.31293025774995487,63,2026-10-07 20:46:26.057244,25.0,0.09914604592253666,0.2128468849869881,0.25307347532030244
0275,cdot_cos,T,S-T,64,12,10163,-0.21652265212621072,0.013729797828784163,-0.2202372381397213,0.004046166747655049,761.0,1.1681329441965735,0.5364394143369706,4.291515473466701,-0.0038908397509349484,0.19,0.9999999999999768,351.56787718999436,0.31789742260799764,64,2026-10-07 20:46:26.247243,25.0,0.6366155666622446,0.15353593399354504,0.04906050479630728
0275,cdot_cos,P,T-P,65,13,10542,0.017502242968223072,0.0008047123982123466,0.2340248950944338,0.9971301523977204,797.0,1.2171551032028223,0.5376708346243261,4.334841023583247,-0.02096744814713667,0.379,0.9999999999999759,-13.867408691856697,0.32286461767089764,65,2026-10-07 20:46:26.626244,25.0,0.4428898110609146,0.08937616327913339,0.12934606597954812
0275,cdot_cos,Q,P-Q,66,13,10665,-0.030180262543591435,-0.02836384835324601,-0.04768250551181451,0.23289023762709093,797.0,1.2358800759621567,0.5379583801509135,4.370394737615606,-0.008235676664055738,0.123,0.9999999999999734,44.277411073587864,0.32783177285992443,66,2026-10-07 20:46:26.749243,25.0,0.21311379409516404,0.269919879448733,0.1522355508888974
0275,cdot_cos,R,Q-R,67,13,10686,0.08219692485394577,0.19356114750119477,0.1123771873975372,0.9431832645325464,797.0,1.2835553935472106,0.539122651946841,4.412909298681436,-0.02152852706662325,0.021,0.9999999999999721,-11.417308612185463,0.33279891149113333,67,2026-10-07 20:46:26.770243,25.0,0.5393164091110967,1.481099824817964,2.270253218335902
0275,cdot_cos,S,R-S,68,13,10745,0.003164804010253053,-0.018462118422032537,-0.07903212084369271,0.12176694980093246,797.0,1.2980862686045112,0.5392729310571183,4.446958716943009,-0.00672333299992731,0.059,0.9999999999999701,98.51797791040359,0.3377660570233106,68,2026-10-07 20:46:26.829243,25.0,0.11057495129281376,0.20691864173628316,0.24628601792034835
0275,cdot_cos,T,S-T,69,13,10939,-0.18443456259036442,0.028180018951436264,-0.18759936660061746,0.009103202043972358,797.0,1.307971793272092,0.5392841655195308,4.479630927136584,-0.004617205053325086,0.194,0.9999999999999681,187.47029179108543,0.3427332263270521,69,2026-10-07 20:46:27.023244,25.0,0.633720163676047,0.15631120230480297,0.05095631271948896
0275,cdot_cos,P,T-P,70,14,11339,0.021689661222352493,0.00148627481551465,0.20612422381271692,0.9942518106481562,741.0,1.3587350150987747,0.5405109509277538,4.522239289633351,-0.024252060925765682,0.4,0.999999999999967,-16.005126683795734,0.3477004337256977,70,2026-10-07 20:46:27.423244,25.0,0.445028937111893,0.08699497305410392,0.12690805456670673
0275,cdot_cos,Q,P-Q,71,14,11464,-0.029193974309805262,-0.03341219041070093,-0.05088363553215776,0.21889953659997272,741.0,1.3775677717153751,0.5407809808351411,4.5567017965759415,-0.00923132122679618,0.125,0.999999999999964,55.62620764604203,0.3526675913421465,71,2026-10-07 20:46:27.548243,25.0,0.19648886854918501,0.2680594003234864,0.15066205293280355
0275,cdot_cos,R,Q-R,72,14,11485,0.06524765323757567,0.21496830236190523,0.09444162754738093,0.9138078086752512,741.0,1.4257498651796463,0.5419079746874497,4.5982419115281505,-0.024186932257252318,0.021,0.9999999999999633,-13.270357242695889,0.3576347294210115,72,2026-10-07 20:46:27.569243,25.0,0.5388412115141151,1.5821557160828046,2.2943854030605313
0275,cdot_cos,S,R-S,73,14,11544,0.009285548405890668,-0.023644016083663774,-0.055962104831685004,0.19796648925323296,741.0,1.444018311790853,0.5421520695044824,4.632149579919816,-0.00938718446678223,0.059,0.9999999999999606,60.63114313684075,0.3626018754305789,73,2026-10-07 20:46:27.628243,25.0,0.20667852618454696,0.23986269971422566,0.3096346883255362
0275,cdot_cos,T,S-T,74,14,11739,-0.20968057304844473,-0.025195906549569665,-0.2189661214543354,0.004176264693293899,741.0,1.454053663745925,0.5421572186663794,4.663813012635069,-0.005207483886304969,0.195,0.9999999999999576,811.7244444848897,0.3675690490711883,74,2026-10-07 20:46:27.823244,25.0,0.44814725068422273,0.16071437833925592,0.05146334335934354
0275,cdot_cos,P,T-P,75,15,12080,0.012644054987326632,0.0009294867116691343,0.22232462803577135,0.996158776413908,717.0,1.5066969193431627,0.5433851815705004,4.705854002955142,-0.027896318586321356,0.341,0.9999999999999569,-18.47680790997349,0.3725362539744422,75,2026-10-07 20:46:28.164243,25.0,0.44338039386270345,0.10388966381686483,0.15437904867225163
0275,cdot_cos,Q,P-Q,76,15,12207,-0.045533663694856445,-0.05126964996838028,-0.05817771868218308,0.18931873067295527,717.0,1.5249064144690267,0.5436184952274099,4.739156493045805,-0.009879548134599984,0.127,0.9999999999999527,77.22124238407153,0.3775034144713608,76,2026-10-07 20:46:28.291244,25.0,0.16143653796796412,0.2680804408970865,0.14338185138475595
0275,cdot_cos,R,Q-R,77,15,12229,0.04953808185971332,0.2139398873321297,0.09507174555456976,0.9150404988048887,717.0,1.5747893513310227,0.5447459062379556,4.780126263256805,-0.027660718581427948,0.022,0.9999999999999517,-15.77168422208453,0.3824705523466927,77,2026-10-07 20:46:28.313244,25.0,0.5258017120314262,1.5985171382065184,2.2674062209998165
0275,cdot_cos,S,R-S,78,15,12288,0.0020713451760252712,-0.007859865490987704,-0.047466736683688046,0.23385531615847333,717.0,1.5952411685501136,0.5450339636106739,4.813609966806979,-0.01159691382233009,0.059,0.9999999999999482,55.76599066883333,0.3874376990329537,78,2026-10-07 20:46:28.372243,25.0,0.2502789253219265,0.26008466600851704,0.346640969815099
0275,cdot_cos,T,S-T,79,15,12481,-0.2735914623372529,-0.05967439516949763,-0.27566280751327815,0.0010152849281317559,717.0,1.6054793419200277,0.5450352141487472,4.844379288836619,-0.005861612730740302,0.193,0.9999999999999455,4586.26667509631,0.3924048768198851,79,2026-10-07 20:46:28.565243,25.0,0.37589288997518605,0.16778544903941392,0.053047530414063064
0275,cdot_cos,P,T-P,80,16,12797,0.01861137378840002,0.0011463695626157055,0.2922028361256529,0.9993283295901053,701.0,1.6600063518793273,0.546265820393418,4.885950395371838,-0.03183534276764748,0.316,0.9999999999999444,-21.106450702154902,0.3973720847152701,80,2026-10-07 20:46:28.881243,25.0,0.4422512183038035,0.11205712056167577,0.1725538289851253
0275,cdot_cos,Q,P-Q,81,16,12921,-0.05634159656917982,-0.06182657551365794,-0.07495297035757983,0.1330998437158483,701.0,1.6762994421150068,0.5464296816587102,4.917867534402584,-0.009718355050434217,0.124,0.9999999999999395,134.97386144169707,0.4023392471985641,81,2026-10-07 20:46:29.005243,25.0,0.10271517630603309,0.27689863872355286,0.13139588899741522
0275,cdot_cos,R,Q-R,82,16,12943,0.050395890810119554,0.21424655640467102,0.10673748737929938,0.9351383037926356,701.0,1.7286772142827684,0.5475806592201019,4.958554176385791,-0.03187094648673495,0.022,0.9999999999999383,-19.2467622127358,0.4073063847189993,82,2026-10-07 20:46:29.027244,25.0,0.4990386894122363,1.8408186040100558,2.380807825807347
0275,cdot_cos,S,R-S,83,16,13002,0.03420806212311813,-0.05505100024913382,-0.016187828687001422,0.40018466802303143,701.0,1.7572954606914493,0.5480730557990394,4.993183584678611,-0.017824535563537542,0.059,0.9999999999999356,28.526621678620334,0.4122735322493229,83,2026-10-07 20:46:29.086244,25.0,0.4547361239195934,0.33646855686029736,0.48505502387594623
0275,cdot_cos,T,S-T,84,16,13178,-0.1434024228229207,-0.043298016899633286,-0.17761048494603884,0.011655396622207366,701.0,1.7683805039922835,0.5480873954661523,5.023304373599334,-0.006982783885869504,0.176,0.999999999999932,756.0671801063407,0.4172407108265314,84,2026-10-07 20:46:29.262244,25.0,0.21168831434908222,0.1894566363509657,0.06298320057292195
0275,cdot_cos,P,T-P,85,17,13498,0.0240295788064399,-0.0010923009094171163,0.16743200162936062,0.9850178466114683,678.0,1.8239841966869892,0.5492989748332266,5.064286760920134,-0.035671874028441415,0.32,0.9999999999999307,-23.679084443182372,0.4222079292221529,85,2026-10-07 20:46:29.582243,25.0,0.4474235507110386,0.11288924149592539,0.1737615396709552
0275,cdot_cos,Q,P-Q,86,17,13609,-0.052323954611810684,-0.05082452163802465,-0.07635353341825059,0.1291114153657268,678.0,1.8406296185496758,0.549457739832489,5.095461944854676,-0.010892746325057077,0.111,0.9999999999999256,156.0742469593986,0.42717509116622,86,2026-10-07 20:46:29.693243,25.0,0.10281455925082293,0.3224161941010931,0.14995875551969895
0275,cdot_cos,R,Q-R,87,17,13633,0.07017994353358203,0.23386257981568026,0.12250389814539273,0.9553232893014868,678.0,1.8955605917774319,0.5506321613566211,5.135955387953447,-0.03663147177878745,0.024,0.9999999999999243,-21.916087984467413,0.43214222898373067,87,2026-10-07 20:46:29.717243,25.0,0.4952762081499868,1.5826166131555908,2.2887905511565036
0275,cdot_cos,S,R-S,88,17,13688,0.019155122692832136,-0.04199719291041084,-0.0510248208407499,0.21829662988902587,678.0,1.9165952159811441,0.5509004444105209,5.167904754111258,-0.014310858469309016,0.055,0.9999999999999202,83.19799922142714,0.4371093762770815,88,2026-10-07 20:46:29.772243,25.0,0.2101996009738223,0.2910695371633132,0.3824477127947686
0275,cdot_cos,T,S-T,89,17,13877,-0.21811529365794372,-0.06582356776813802,-0.23727041635077584,0.0026467820444132963,678.0,1.9275782408653963,0.5509036970817767,5.1972155910459445,-0.007535024230168312,0.189,0.9999999999999157,2083.1598727031505,0.442076563321633,89,2026-10-07 20:46:29.961244,25.0,0.4068766614776909,0.18206587309353742,0.058111242773821056
0275,cdot_cos,P,T-P,90,18,14176,0.035233898951168026,0.0020794463012382214,0.25334919260911176,0.998227746964722,700.0,1.9854161160105013,0.5521301216677555,5.237966783213788,-0.04037005875858304,0.299,0.9999999999999151,-26.772974795027604,0.44704378466162975,90,2026-10-07 20:46:30.260243,25.0,0.4433697663372818,0.1292010144629212,0.19343770951540123
0275,cdot_cos,Q,P-Q,91,18,14300,-0.02602054079757645,-0.03375816127177761,-0.06125443974874448,0.17779464342440468,700.0,2.004840447514223,0.5523484944367615,5.269069399182845,-0.013824348211180535,0.124,0.9999999999999097,121.5614504878162,0.4520109533010071,91,2026-10-07 20:46:30.384243,25.0,0.14657555373049988,0.2941404295544127,0.1566478347074348
0275,cdot_cos,R,Q-R,92,18,14323,0.058775950641734416,0.2627805103886795,0.08479649143931087,0.8928235364773769,700.0,2.0583629425399956,0.553444780431806,5.308456449348957,-0.038770277767454016,0.023,0.9999999999999079,-22.754946856053195,0.45697809050159044,92,2026-10-07 20:46:30.407244,25.0,0.5254873195000829,1.6112377251145407,2.327065001120541
0275,cdot_cos,S,R-S,93,18,14382,0.002577079313271898,-0.007192951037188856,-0.05619887132846252,0.19702834968240168,700.0,2.078957382869492,0.55368663927458,5.33956118154658,-0.015188595305916049,0.059,0.9999999999999032,97.50184111969271,0.461945239849634,93,2026-10-07 20:46:30.466244,25.0,0.21169866631212672,0.26959021294400554,0.3490583106694309
0275,cdot_cos,T,S-T,94,18,14558,-0.2587825804484023,-0.1482220116946732,-0.2613596597616742,0.0014510851356550392,700.0,2.0901745876673883,0.5536884204356395,5.368209015244337,-0.008336397806124062,0.176,0.9999999999998981,3847.0398076119295,0.4669124278155988,94,2026-10-07 20:46:30.642244,25.0,0.439568623303445,0.20076673101987086,0.06373411816986495
0275,cdot_cos,P,T-P,95,19,14876,0.01646338317892436,0.0010436045751549502,0.2752459636273267,0.9989740902786686,720.0,2.1496272721884866,0.5549142999323163,5.4086361993108385,-0.04490876596059401,0.318,0.9999999999998972,-29.833575203444827,0.47187966455867963,95,2026-10-07 20:46:30.960243,25.0,0.44291811606202663,0.12191831409681882,0.18695812742483744
0275,cdot_cos,Q,P-Q,96,19,15001,-0.056220371002789524,-0.05973211701670633,-0.07268375418171388,0.13978295290544884,720.0,2.167714635432965,0.5550857800319481,5.438708394088102,-0.013911457412238728,0.125,0.9999999999998908,180.763299152039,0.47684683655197363,96,2026-10-07 20:46:31.085243,25.0,0.10772371094513579,0.3031212384828912,0.14469890595582768
0275,cdot_cos,R,Q-R,97,19,15023,0.060828295909944,0.22905553217775487,0.11704866691273352,0.949127308493218,720.0,2.2254075818092094,0.5562497822739193,5.47842572452638,-0.04512829953386106,0.022,0.9999999999998889,-26.81854123301098,0.48181397298278733,97,2026-10-07 20:46:31.107244,25.0,0.500706391100685,1.9269140667611138,2.6224066534656516
0275,cdot_cos,S,R-S,98,19,15082,0.030357043406171402,-0.06169855416583967,-0.030471252503772597,0.3182596489652122,720.0,2.252498854370454,0.5566399558374863,5.510455141607276,-0.021596326477541748,0.059,0.9999999999998845,60.311551713525,0.48678112327343315,98,2026-10-07 20:46:31.166244,25.0,0.3363414177390925,0.3283221734553231,0.45917411120753665
0275,cdot_cos,T,S-T,99,19,15275,-0.19245545145248097,-0.04041031245596898,-0.22281249485865237,0.003794834705957018,720.0,2.2641495982769375,0.5566446077320566,5.538544642476403,-0.0093679483945225,0.193,0.9999999999998787,2628.68770952277,0.49174832283554387,99,2026-10-07 20:46:31.359244,25.0,0.27107976389109084,0.18785211256392725,0.06036654873825628
0275,cdot_cos,P,T-P,100,20,15596,0.024562270199287254,-0.001164588780636502,0.21701772165176822,0.9956161874627424,739.0,2.32500976982013,0.5578647373203977,5.578648136949785,-0.049692964576316126,0.321,0.9999999999998775,-33.04978140610567,0.4967155714125562,100,2026-10-07 20:46:31.680243,25.0,0.4441986500135608,0.1259170428359528,0.1895955499787927
0275,cdot_cos,Q,P-Q,101,20,15706,-0.03945672148515058,-0.03304811851627878,-0.06401899168443784,0.16791526658064068,739.0,2.3449883397776192,0.5580704494012126,5.608539433732086,-0.01659845666348675,0.11,0.9999999999998698,160.8778044620205,0.5016827411021623,101,2026-10-07 20:46:31.790244,25.0,0.13617282532475922,0.36418665515351595,0.18162336324990233
0275,cdot_cos,R,Q-R,102,20,15730,0.0969694311016916,0.22850790633055873,0.13642615258684218,0.968035839332185,739.0,2.4051308339539035,0.55925599416059,5.648209524537269,-0.05079576807934067,0.024,0.9999999999998683,-28.845230131854002,0.5066498778823197,102,2026-10-07 20:46:31.814244,25.0,0.5100576576308368,1.5885695029435414,2.5059372573451775
0275,cdot_cos,S,R-S,103,20,15787,0.0025551887303694757,-0.012227981571938407,-0.09441424237132212,0.08624613013606167,739.0,2.421239675918909,0.5593615864443883,5.676900937568642,-0.01382307013298556,0.057,0.9999999999998622,350.14583089231127,0.5116170283073955,103,2026-10-07 20:46:31.871244,25.0,0.06892684403651587,0.2453322931327838,0.28261126254396013
0275,cdot_cos,T,S-T,104,20,15975,-0.2347917347673706,0.004286315974735642,-0.2373469234977401,0.002641737800037601,739.0,2.433098715371041,0.5593648206743802,5.704425132225105,-0.010235249199784958,0.188,0.9999999999998549,1109.3277046312521,0.5165842315387742,104,2026-10-07 20:46:32.059244,25.0,0.7043106419050528,0.19774697521986095,0.06307999708580651
0275,cdot_cos,P,T-P,105,21,16335,0.026498082639188934,-0.0009830591290384675,0.26128981740655954,0.9985463826572145,721.0,2.495592538601577,0.5605869589536625,5.7443078694706005,-0.05473046886291552,0.36,0.9999999999998536,-36.40768022523625,0.5215515065692199,105,2026-10-07 20:46:32.419244,25.0,0.44353077173257177,0.11713528546318859,0.1735939534181558
0275,cdot_cos,Q,P-Q,106,21,16445,-0.030139035055372843,-0.027564274976558462,-0.05663711769456178,0.19530074758639576,721.0,2.5174361209045366,0.5608259055309249,5.774057080295322,-0.019455095429554124,0.11,0.9999999999998451,147.62870361026495,0.5265186788653407,106,2026-10-07 20:46:32.529243,25.0,0.1631363586214606,0.37733773825091677,0.19857802093599713
0275,cdot_cos,R,Q-R,107,21,16469,0.09695333903422362,0.24761994555460268,0.12709237408959648,0.9599714022483884,721.0,2.5786068410167786,0.5619999994670721,5.813374203636649,-0.05535178440748207,0.024,0.999999999999843,-30.5739497264786,0.5314858150642799,107,2026-10-07 20:46:32.553244,25.0,0.5228194511305253,1.6144674706298119,2.5487800046767504
0275,cdot_cos,S,R-S,108,21,16526,0.0010427860239560543,-0.006459669113317497,-0.09591055301026757,0.08334337501495605,721.0,2.5949305594947676,0.5621019001022834,5.841535307432046,-0.01499475385546245,0.057,0.9999999999998358,396.0429733173828,0.5364529661813093,108,2026-10-07 20:46:32.610244,25.0,0.067785294340485,0.24889089709720807,0.286381025929631
0275,cdot_cos,T,S-T,109,21,16714,-0.2668448802460376,-0.01683614744675892,-0.26788766626999366,0.0012328517846505543,721.0,2.6069804032858603,0.562103407421902,5.868532881067527,-0.011129525742157385,0.188,0.9999999999998278,2564.3055830345133,0.5414201750937535,109,2026-10-07 20:46:32.798244,25.0,0.7065968850433281,0.20220767400509085,0.06409491378240825
0275,cdot_cos,P,T-P,110,22,17056,0.013489467393165977,0.00126444443843532,0.28033434763920356,0.999096525411498,758.0,2.6709606449206817,0.5633245518945984,5.908198806984013,-0.059920080801471806,0.342,0.9999999999998261,-39.95477697375216,0.5463874543809322,110,2026-10-07 20:46:33.140243,25.0,0.44296677942206153,0.12774386944552485,0.1870767299263784
0275,cdot_cos,Q,P-Q,111,22,17186,-0.03816952668758646,-0.04121691019601569,-0.05165899408075244,0.21560328143368795,758.0,2.6943572099865993,0.5635879725723527,5.937768887876566,-0.022271553764714278,0.13,0.9999999999998169,142.92168465177122,0.5513546387044098,111,2026-10-07 20:46:33.270243,25.0,0.18443999553546553,0.32307331839323333,0.17997357743013526
0275,cdot_cos,R,Q-R,112,22,17210,0.06089795458189126,0.21927585031366656,0.09906748126947773,0.9224912481534197,758.0,2.7549597077029224,0.5647146508869785,5.976379291940631,-0.05855718863097329,0.024,0.999999999999814,-32.20585183474634,0.5563217742947395,112,2026-10-07 20:46:33.294244,25.0,0.5381265669894943,1.7584357654099603,2.525104071513462
0275,cdot_cos,S,R-S,113,22,17266,0.009892937013580018,-0.027000370416152917,-0.051005017568311245,0.21838112402144058,758.0,2.7787621267262774,0.5649812717983426,6.005834482251696,-0.023352047106310947,0.056,0.9999999999998069,132.04193678787306,0.5612889257028536,113,2026-10-07 20:46:33.350244,25.0,0.22144463625620003,0.3244134366038241,0.4250431968456251
0275,cdot_cos,T,S-T,114,22,17455,-0.20208826769907376,-0.01803604267618621,-0.21198120471265378,0.004969124410330957,758.0,2.7912940126025507,0.5649873381518495,6.0324152138911815,-0.012375454548152849,0.189,0.999999999999798,1809.4218455191449,0.5662561414302916,114,2026-10-07 20:46:33.539244,25.0,0.41190406891347814,0.20590333007389494,0.06630627447763648
0275,cdot_cos,P,T-P,115,23,17814,0.02470383233579952,0.0026611539828281278,0.22679210003487327,0.996563305307009,780.0,2.8565935854942097,0.5662035562634753,6.07185793832933,-0.06534306277456306,0.359,0.9999999999997958,-43.55107666963355,0.5712234419649395,115,2026-10-07 20:46:33.898243,25.0,0.4445876829121538,0.1251589363634809,0.181892960701
0275,cdot_cos,Q,P-Q,116,23,17942,-0.024194080171333072,-0.0261543661733287,-0.04889791250713259,0.22750596790921623,780.0,2.88115812891153,0.5664810961281184,6.101189471951545,-0.024968269195651212,0.128,0.9999999999997856,145.473853389802,0.5761906291646093,116,2026-10-07 20:46:34.026243,25.0,0.19848452380439133,0.33710632244978234,0.19191049544781472
0275,cdot_cos,R,Q-R,117,23,17966,0.07262580900952569,0.220999196271975,0.09681988918085876,0.9183770249486434,780.0,2.942892804041354,0.5676010201662088,6.139545126607121,-0.06365414341343174,0.024,0.9999999999997823,-34.54330195799888,0.5811577641131064,117,2026-10-07 20:46:34.050244,25.0,0.5445741983886064,1.7091843470949293,2.5722781304093334
0275,cdot_cos,S,R-S,118,23,18024,0.0012473606318259933,-0.005996923521335666,-0.07137844837769969,0.14375313877610707,780.0,2.9631989775720866,0.5677762591465014,6.167630252908901,-0.021230423790225054,0.058,0.9999999999997732,242.0906555857211,0.5861249173041259,118,2026-10-07 20:46:34.108243,25.0,0.1355721658754966,0.2841361198744647,0.35010644018504494
0275,cdot_cos,T,S-T,119,23,18214,-0.24180867244005697,0.00417596685754715,-0.24305603307188295,0.00229116554089569,780.0,2.975852593946792,0.5677790520023176,6.19373961811009,-0.013303364177514097,0.19,0.999999999999763,2838.334713455957,0.5910921398847594,119,2026-10-07 20:46:34.298244,25.0,0.5510835778929066,0.20912605451984986,0.06659798091950159
0275,cdot_cos,P,T-P,120,24,18594,0.021259568374907736,0.0024689455825062973,0.2630682408149647,0.9986095077811247,799.0,3.0426668782896296,0.5689959117707716,6.2330393718171235,-0.0711367538719804,0.38,0.9999999999997599,-47.52674974861198,0.5960594652804243,120,2026-10-07 20:46:34.678244,25.0,0.4435304249308354,0.12050141039597895,0.17582706406009907
0275,cdot_cos,Q,P-Q,121,24,18724,-0.028965658707018466,-0.03080741479740003,-0.0502252270819262,0.22172696374734122,799.0,3.067433665847736,0.5692659856211815,6.261927414644175,-0.026766215202054376,0.13,0.9999999999997483,164.29039169317903,0.6010266572538066,121,2026-10-07 20:46:34.808243,25.0,0.19057549490046471,0.33906254599621344,0.1905137504469719
0275,cdot_cos,R,Q-R,122,24,18748,0.07143204536833951,0.20597767364450031,0.10039770407535797,0.924835900616266,799.0,3.130823140248645,0.5703920330598375,6.300187537055267,-0.06945076092469753,0.024,0.9999999999997446,-37.9065253002011,0.6059937913959862,122,2026-10-07 20:46:34.832243,25.0,0.540856353406319,1.7773794729569563,2.641228100037881
0275,cdot_cos,S,R-S,123,24,18805,0.006731226276860549,-0.02360101893971698,-0.06470081909147896,0.16554711060454785,799.0,3.15274788054967,0.5705935208599843,6.328189885800966,-0.02434898953448382,0.057,0.9999999999997341,223.8436836243675,0.6109609447448116,123,2026-10-07 20:46:34.889244,25.0,0.15687504681299133,0.30641365567981793,0.38464456668464486
0275,cdot_cos,T,S-T,124,24,18995,-0.2148788227604787,0.01147032041903609,-0.22161004903733925,0.003910190904013022,799.0,3.1657542969961443,0.570598279680544,6.353915160999976,-0.014524813861532745,0.19,0.9999999999997223,2064.4139760375933,0.6159281739499217,124,2026-10-07 20:46:35.079243,25.0,0.5084583974910888,0.21344547990736046,0.06845482340249731
0275,cdot_cos,P,T-P,125,25,19393,0.01627379926539471,1.026833694707927e-05,0.23115262202587342,0.996917157306096,820.0,3.233857162914467,0.5718111298611193,6.393044472688948,-0.07697531708687658,0.398,0.9999999999997196,-51.490698707504876,0.6208955249771654,125,2026-10-07 20:46:35.477243,25.0,0.44427765346032627,0.11617300245710206,0.1711127284379962
0275,cdot_cos,Q,P-Q,126,25,19509,-0.037804702407274765,-0.029977755636170913,-0.05407850167266948,0.20554970543677767,820.0,3.2582280069519975,0.5720610950283578,6.421371695898784,-0.027939812474451382,0.116,0.9999999999997049,196.1693509305438,0.6258627125638084,126,2026-10-07 20:46:35.593244,25.0,0.1729002263398074,0.39360288263073534,0.2100934830821617
0275,cdot_cos,R,Q-R,127,25,19532,0.09536284271499106,0.18639126902905928,0.1331675451222658,0.9654166904190994,820.0,3.3251730316847974,0.5732346262303434,6.460028024315259,-0.07777405047246966,0.023,0.9999999999997018,-42.46520068124253,0.6308298452824063,127,2026-10-07 20:46:35.616243,25.0,0.526893612952831,1.8464775721211486,2.910653249252167
0275,cdot_cos,S,R-S,128,25,19583,0.0016715737478095974,-0.018461778202520564,-0.09369126896718145,0.08768122055653758,820.0,3.3431659752695704,0.5733411682324887,6.486616715773078,-0.021171824589323155,0.051,0.9999999999996887,531.2667750127246,0.6357969956588237,128,2026-10-07 20:46:35.667244,25.0,0.06901237565628321,0.31110358571200175,0.35280281538770575
0275,cdot_cos,T,S-T,129,25,19773,-0.1730739514533666,0.047989478059230394,-0.1747455252011762,0.01250999895777849,820.0,3.3569055974274216,0.5733563686562569,6.512078415368568,-0.01624383916750045,0.19,0.9999999999996756,324.2005286800426,0.6407642315780444,129,2026-10-07 20:46:35.857243,25.0,0.7383216866409136,0.21888298593540267,0.07231380083079571
0275,cdot_cos,P,T-P,130,26,20213,0.05583952437582915,0.007279576596625861,0.22891347582919574,0.9967402408914857,801.0,3.4263415099250234,0.5745670221174793,6.55107393644307,-0.0830497136015611,0.44,0.9999999999996727,-55.18166558298739,0.6457316251227363,130,2026-10-07 20:46:36.297244,25.0,0.44735257100336284,0.10537219792984226,0.15780889204000417
0275,cdot_cos,Q,P-Q,131,26,20323,-0.005270398065610358,-0.0060105925132922025,-0.06110992244143951,0.1783234102870441,801.0,3.4496331316056827,0.5747835221824885,6.578700225823129,-0.028235332778860922,0.11,0.9999999999996557,253.18413100881844,0.6506988120591279,131,2026-10-07 20:46:36.407244,25.0,0.14351151602531145,0.19358124560112555,0.21174201527872133
0275,cdot_cos,R,Q-R,132,26,20347,-0.0897873803167706,0.3810383099167437,-0.08451698225116024,0.10784695479958738,801.0,3.468929383957271,0.5749144438138553,6.605266236684243,-0.02353493131446427,0.024,0.99999999999964,35.90240524294803,0.6556659441556922,132,2026-10-07 20:46:36.431243,25.0,0.818959856414809,0.7178093609021552,0.8040105146495113
0275,cdot_cos,S,R-S,133,26,20400,-0.22166796526360572,0.3750829963495222,-0.13188058494683513,0.035673747354114306,801.0,3.484087980928986,0.5749577479190394,6.6307383780545495,-0.018579965004233336,0.053,0.9999999999996243,114.42255391628039,0.6606330951384655,133,2026-10-07 20:46:36.484244,25.0,0.7659156014553292,0.2712661505923893,0.2860112636172675
0275,cdot_cos,T,S-T,134,26,20593,-0.4093740056282742,0.002671302253834299,-0.18770604036466848,0.009079177685714814,801.0,3.4976835959200643,0.574968768883879,6.655746868178171,-0.016733012406129868,0.193,0.9999999999996085,167.58538158681367,0.6656003360876671,134,2026-10-07 20:46:36.677243,25.0,0.8954957797711655,0.2184832320104729,0.07044360099004189
0275,cdot_cos,P,T-P,135,27,21014,0.024329748305809095,0.0028850550942969956,0.4337037539340833,0.9999804515272935,774.0,3.5684225084850287,0.5761821593018246,6.694633970302908,-0.08804852308297602,0.421,0.9999999999996049,-58.77375461526555,0.6705677272775595,135,2026-10-07 20:46:37.098243,25.0,0.44487723056540246,0.11482610873819335,0.1680259205818633
0275,cdot_cos,Q,P-Q,136,27,21143,-0.026263871711150872,-0.03045505622766975,-0.05059362001695997,0.22014175256231985,774.0,3.594367179477623,0.5764491596179717,6.722497059548395,-0.032729656024914865,0.129,0.9999999999995862,207.18652268403565,0.6755349279642011,136,2026-10-07 20:46:37.227243,25.0,0.1844871193000025,0.3567527746518816,0.20112148056274684
0275,cdot_cos,R,Q-R,137,27,21166,0.066286566148661,0.2104197343979043,0.09255043785981187,0.9100103202848383,774.0,3.660464724345214,0.5775523961174803,6.760079946504667,-0.08439591386880003,0.023,0.9999999999995808,-46.831534187726554,0.6805020582063762,137,2026-10-07 20:46:37.250243,25.0,0.5421627252176976,1.934699457671035,2.8738062985909183
0275,cdot_cos,S,R-S,138,27,21221,0.001106449357259764,-0.0057738909947308015,-0.06518011679140125,0.16389846760846363,774.0,3.6833633545304907,0.5777510139444819,6.787040136463707,-0.029592786117851842,0.055,0.9999999999995655,275.92250191373495,0.6854692110111124,138,2026-10-07 20:46:37.305243,25.0,0.1569373886887262,0.3301211581422078,0.41633873064139076
0275,cdot_cos,T,S-T,139,27,21412,-0.2565382777407139,-0.0016791437286948765,-0.2576447270979737,0.0015920838394093725,774.0,3.696778051740857,0.5777529431634948,6.811609226840836,-0.017422035651318397,0.191,0.9999999999995473,6308.641157540739,0.6904364578753373,139,2026-10-07 20:46:37.496243,25.0,0.4972891061476352,0.2235719486176217,0.07023401680820086
0275,cdot_cos,P,T-P,140,28,21788,0.021345949883383286,0.000810901365459773,0.2778842276240972,0.9990395096690591,722.0,3.768767838902422,0.5789630663154821,6.850385947469323,-0.09450352462452662,0.376,0.9999999999995438,-63.697226886884614,0.695403835978998,140,2026-10-07 20:46:37.872243,25.0,0.44235316048584117,0.12833966713583572,0.19146219989777957
0275,cdot_cos,Q,P-Q,141,28,21906,-0.037191814904665624,-0.03924873066541272,-0.05853776478804891,0.18794112119973158,722.0,3.7932894814270055,0.5791906113473994,6.87751018408187,-0.032601754295624966,0.118,0.9999999999995238,272.0418451122906,0.7003710332098555,141,2026-10-07 20:46:37.990243,25.0,0.14975942060512581,0.3952279877964086,0.20781052986935028
0275,cdot_cos,R,Q-R,142,28,21931,0.06924863739776956,0.2254599797422941,0.10644045230243518,0.9346864317279527,722.0,3.8620416440223746,0.5803217581807091,6.915334635094867,-0.09246558917513226,0.025,0.9999999999995179,-52.9231335107452,0.7053381641807963,142,2026-10-07 20:46:38.015244,25.0,0.5233957345867273,1.8316892470367563,2.7500865038147637
0275,cdot_cos,S,R-S,143,28,21979,0.0016722740508455173,-0.008570938707961249,-0.06757636334692403,0.1558535671770429,722.0,3.8848739437788433,0.5805102886565678,6.941896175011628,-0.031070928556936262,0.048,0.9999999999995014,325.6484679123716,0.7103053126959306,143,2026-10-07 20:46:38.063244,25.0,0.13862928685209483,0.38002748638825873,0.4756729115930983
0275,cdot_cos,T,S-T,144,28,22170,-0.25786974243130373,-0.03969251296131145,-0.25954201648214925,0.0015184427000618148,722.0,3.8985242827156474,0.5805121253467893,6.966148298038083,-0.018663278480977253,0.191,0.9999999999994815,6755.4397202809205,0.7152725672256253,144,2026-10-07 20:46:38.254244,25.0,0.5143680544472936,0.2275137370170091,0.07146774312462889
0275,cdot_cos,P,T-P,145,29,22510,0.014556021640270927,0.0005432665081044309,0.27242576407157465,0.9988992301473607,714.0,3.971784191319341,0.5817198962836768,7.004838028805842,-0.10120075175070958,0.34,0.9999999999994782,-68.33868140794634,0.7202399352597125,145,2026-10-07 20:46:38.594244,25.0,0.44238195340439496,0.14143550152569503,0.2154703194226275
0275,cdot_cos,Q,P-Q,146,29,22628,-0.053583983372400036,-0.05343345180939049,-0.06814000501267096,0.15400868126744954,714.0,3.99470042375312,0.5819060217041518,7.031200255581195,-0.032039167121675635,0.118,0.9999999999994567,371.5859147693061,0.7252071366872858,146,2026-10-07 20:46:38.712243,25.0,0.11548006258047078,0.3986831537546827,0.1942053596082989
0275,cdot_cos,R,Q-R,147,29,22653,0.06865428921299532,0.23258647308138466,0.12223827258539535,0.9550390036336537,714.0,4.065873415605446,0.5830597004239846,7.069226267148892,-0.10060337821047459,0.025,0.9999999999994512,-59.430940269696016,0.730174267199488,147,2026-10-07 20:46:38.737243,25.0,0.5058425076099234,1.9522867409231193,2.8469196740930336
0275,cdot_cos,S,R-S,148,29,22701,0.015439308970795672,-0.03599889033829188,-0.05321498024219965,0.20909742426785508,714.0,4.092314760799276,0.5833121674209149,7.096301885534643,-0.037821053872142026,0.048,0.9999999999994345,248.6753718375054,0.7351414164754373,148,2026-10-07 20:46:38.785243,25.0,0.19014212265931357,0.42123764804585795,0.5508613582047942
0275,cdot_cos,T,S-T,149,29,22890,-0.21394616236788316,-0.04086324245201798,-0.22938547133867884,0.003221643558694203,714.0,4.106312229817848,0.5833160569345551,7.12028300110559,-0.020120829536561136,0.189,0.9999999999994138,4550.75517727824,0.7401086776719482,149,2026-10-07 20:46:38.974244,25.0,0.4149087964667952,0.23391924244849263,0.07406068263794835
0275,cdot_cos,P,T-P,150,30,23224,0.021698015346810068,0.0008557320502594251,0.23564417771469323,0.9972436957947909,743.0,4.180736234444806,0.5845195357391036,7.158876238275688,-0.10804558650098414,0.334,0.9999999999994101,-73.0588329699813,0.7450760570208057,150,2026-10-07 20:46:39.308243,25.0,0.44318205764411006,0.14949225253179943,0.2228263611585568
0275,cdot_cos,Q,P-Q,151,30,23343,-0.03661643996670202,-0.035831242064606444,-0.058314455313512085,0.18879463908024469,743.0,4.20617305450909,0.5847472610895569,7.185498018886365,-0.03736714963061559,0.119,0.9999999999993878,310.36701328903297,0.7500432638131018,151,2026-10-07 20:46:39.427244,25.0,0.1508515339924287,0.4089245545929216,0.2137547904561685
0275,cdot_cos,R,Q-R,152,30,23368,0.07856000223101801,0.23620600542659262,0.11517644219772002,0.9468192164968136,743.0,4.278060278437922,0.5858887729809261,7.223325342775682,-0.10674338522234264,0.025,0.9999999999993829,-60.775744971443494,0.7550103939168357,152,2026-10-07 20:46:39.452243,25.0,0.5220798403659854,1.8842640412665546,2.8754889571532516
0275,cdot_cos,S,R-S,153,30,23419,0.0041618947765907,-0.016328599392161552,-0.07439810745442732,0.13470856683712717,743.0,4.300386256572418,0.5860511067816746,7.249055278771693,-0.03351551303551358,0.051,0.9999999999993634,451.0944230295415,0.759977546531075,153,2026-10-07 20:46:39.503244,25.0,0.1124895601000929,0.3573759549482247,0.437764277146989
0275,cdot_cos,T,S-T,154,30,23609,-0.25450059858173124,-0.01687281118208556,-0.2586624933583219,0.0015521477104394684,743.0,4.3145126258426405,0.5860529771257631,7.272729637471395,-0.021296435616586278,0.19,0.9999999999993411,6533.063885993603,0.7649448167449642,154,2026-10-07 20:46:39.693243,25.0,0.5634021424070803,0.23654781266362335,0.07434931194853939
0275,cdot_cos,P,T-P,155,31,23967,0.020095879117072574,3.8536093904334136e-05,0.2745964776988038,0.9989573139682372,741.0,4.390274425384595,0.5872562075766735,7.3112843739198485,-0.11530843290674271,0.358,0.9999999999993381,-78.13299374115958,0.7699122325501639,155,2026-10-07 20:46:40.051244,25.0,0.44250259532947495,0.14504087500119106,0.21162513838534747
0275,cdot_cos,Q,P-Q,156,31,24082,-0.029417657270528932,-0.027374716853530868,-0.0495135363876015,0.22481246591760023,741.0,4.418361892343493,0.5875268480417436,7.3382117334752675,-0.04325030288451079,0.115,0.999999999999315,266.25039239262503,0.7748794402877766,156,2026-10-07 20:46:40.166244,25.0,0.18898790447401315,0.44147803695233245,0.24423884312085573
0275,cdot_cos,R,Q-R,157,31,24107,0.09096935238444766,0.24572295426632887,0.12038700965497659,0.953009312937741,741.0,4.491814373883631,0.5886735389467032,7.376062110655668,-0.11431373030965475,0.025,0.9999999999993094,-61.97260928624029,0.779846569798422,157,2026-10-07 20:46:40.191243,25.0,0.5370561659151184,1.8714803113114442,2.9380992616055224
0275,cdot_cos,S,R-S,158,31,24158,0.00011451007508702179,-0.0021176734997803903,-0.09085484230936064,0.09352191524680457,741.0,4.5119359079090655,0.5887860158092421,7.400929270929402,-0.031641306372056636,0.051,0.9999999999992871,735.0171588312638,0.7848137232442457,158,2026-10-07 20:46:40.242244,25.0,0.07332889180863669,0.33771403128774025,0.39453988285165004
0275,cdot_cos,T,S-T,159,31,24348,-0.271987635755958,-0.011682125127281631,-0.27210214583104503,0.0011097017829827614,741.0,4.526261205074981,0.5887873503688241,7.424329828780959,-0.02261283053243589,0.19,0.9999999999992637,6765.13507597631,0.7897810017997491,159,2026-10-07 20:46:40.432243,25.0,0.6708139786282439,0.24032071702025518,0.07539630087323869
0275,cdot_cos,P,T-P,160,32,24708,0.01767154293524959,0.0010675549579307233,0.2896591786912076,0.9992842613432693,780.0,4.6032577803767625,0.5899885861901332,7.46283484352795,-0.12266010231809743,0.36,0.9999999999992604,-83.28695332831091,0.7947484369815219,160,2026-10-07 20:46:40.792243,25.0,0.4423532944865472,0.14774728354272687,0.21387937583828226
0275,cdot_cos,Q,P-Q,161,32,24831,-0.028813725444049813,-0.02784443906035437,-0.04648526837929941,0.23828015824268656,780.0,4.632639249225744,0.5902748639875086,7.489752541238178,-0.047341713462275795,0.123,0.9999999999992362,263.09546023593225,0.7997156564315684,161,2026-10-07 20:46:40.915244,25.0,0.20373158784825296,0.4205964475967689,0.23887373047952634
0275,cdot_cos,R,Q-R,162,32,24854,0.08464918754383323,0.22462975361764465,0.11346291298788304,0.9446204505297529,780.0,4.706724506485568,0.5914091591036509,7.527413908145606,-0.12060636067047409,0.023,0.9999999999992303,-64.59046342134565,0.8046827833650567,162,2026-10-07 20:46:40.938244,25.0,0.5447277330312864,2.074633439809423,3.2210981417314524
0275,cdot_cos,S,R-S,163,32,24913,0.00015907480744225126,-0.001340377132114894,-0.08449011273639098,0.10791160375077595,780.0,4.728072387456978,0.5915386770847431,7.5522644883859895,-0.03510475300485995,0.059,0.9999999999992069,660.152412387932,0.8096499452280219,163,2026-10-07 20:46:40.997243,25.0,0.08754402896340997,0.30412979654575545,0.3618284910408483
0275,cdot_cos,T,S-T,164,32,25106,-0.27962900548032704,-0.017071103270051135,-0.2797880802877693,0.0009158863132294674,780.0,4.742611822477967,0.5915397762981284,7.575409612823093,-0.02399977405594642,0.193,0.9999999999991807,10102.659863210336,0.814617235211413,164,2026-10-07 20:46:41.190243,25.0,0.6295740418437802,0.24027555012033147,0.0753338602123787
0275,cdot_cos,P,T-P,165,33,25488,0.020888240810945424,0.0017669357145232852,0.30051724629127247,0.9994543195372982,798.0,4.820818749803426,0.5927387371387761,7.613871308880056,-0.13023862343407225,0.382,0.9999999999991771,-88.60910696693793,0.8195847098907483,165,2026-10-07 20:46:41.572243,25.0,0.44231870581333516,0.14182818328839525,0.2047301762446567
0275,cdot_cos,Q,P-Q,166,33,25615,-0.02452635436378042,-0.02536361431563327,-0.04541459517472585,0.24317239084207137,798.0,4.850968554510301,0.5930302840974172,7.640665351948005,-0.050766203541456084,0.127,0.9999999999991503,272.5887461252918,0.8245519379601766,166,2026-10-07 20:46:41.699244,25.0,0.20899202401786957,0.4112248242880023,0.2374000370620088
0275,cdot_cos,R,Q-R,167,33,25638,0.07908775847908582,0.2097801416454092,0.10361411284286624,0.9302381169801618,798.0,4.925269855172578,0.5941449692420215,7.678049814369152,-0.12635021992396617,0.023,0.9999999999991436,-67.80750308585057,0.8295190638595278,167,2026-10-07 20:46:41.722244,25.0,0.5497946653517615,2.114831559575341,3.2304913331424987
0275,cdot_cos,S,R-S,168,33,25696,0.0024255840931917223,-0.011688817629033791,-0.0766621743858941,0.1282462929011239,798.0,4.948250806250766,0.5942985683357512,7.702994536656507,-0.03946351461354754,0.058,0.999999999999119,565.6719919410633,0.8344862257738347,168,2026-10-07 20:46:41.780244,25.0,0.11061527483402346,0.32729452644321566,0.39622329445152077
0275,cdot_cos,T,S-T,169,33,25887,-0.21502184757571238,0.019907447693108555,-0.2174474316689041,0.004337173553001849,798.0,4.963236020239991,0.5943037625956675,7.7259536420309765,-0.025831864731914577,0.191,0.9999999999990904,2624.3680719295594,0.839453522596745,169,2026-10-07 20:46:41.971244,25.0,0.5899563255819266,0.24668141506893113,0.07845661774463251
0275,cdot_cos,P,T-P,170,34,26286,0.02040794313858481,-0.0001438384537568108,0.2354297907142972,0.9972289242869524,802.0,5.042483106807098,0.5954974954647141,7.764342262201243,-0.1377771526610434,0.399,0.9999999999990867,-93.77750318506355,0.8444210346877832,170,2026-10-07 20:46:42.370244,25.0,0.44374295759138116,0.13519891825227048,0.1986142520478869
0275,cdot_cos,Q,P-Q,171,34,26400,-0.03188317156378204,-0.026788542580768245,-0.052291114702366845,0.21294271188368769,802.0,5.071124757005303,0.5957522527213077,7.790476731832717,-0.05032246730504723,0.114,0.9999999999990561,343.2863366694892,0.8493882541396907,171,2026-10-07 20:46:42.484244,25.0,0.17589193430396616,0.46529262845766034,0.25124254559828924
0275,cdot_cos,R,Q-R,172,34,26424,0.09688283012376302,0.19722950354031335,0.12876600168754504,0.9615486014281677,802.0,5.148569826095445,0.5969019716524173,7.828301173190386,-0.13736933845697752,0.024,0.9999999999990498,-75.71143589670292,0.8543553800318081,172,2026-10-07 20:46:42.508243,25.0,0.5306406074399278,2.0372796823830974,3.2268778787558996
0275,cdot_cos,S,R-S,173,34,26478,0.0006045193368379165,-0.010562697365124392,-0.0962783107869251,0.08264366819004126,802.0,5.168914181759692,0.5970007388033151,7.85232394910437,-0.036428506724808574,0.054,0.9999999999990209,1022.0081354445587,0.8593225386691367,173,2026-10-07 20:46:42.562243,25.0,0.06260377405201577,0.3275636459119678,0.3767473271156867
0275,cdot_cos,T,S-T,174,34,26666,-0.25315682552827745,0.05005348730139806,-0.25376134486511537,0.0017541177068761083,802.0,5.183946699853937,0.5970028350578671,7.875013490310446,-0.027009406431080758,0.188,0.9999999999989898,4493.299864037346,0.8642898410332519,174,2026-10-07 20:46:42.750243,25.0,0.705580738823008,0.2541188677807934,0.07996020262896511
0275,cdot_cos,P,T-P,175,35,27088,0.021455206715763866,0.001693811533035249,0.2746120322440413,0.998957718929565,817.0,5.26446287604527,0.5981960595225817,7.913395410257073,-0.14585976021807506,0.422,0.9999999999989854,-99.6043555102787,0.8692573990977771,175,2026-10-07 20:46:43.172243,25.0,0.44271626586817997,0.1321938921216957,0.19079662604581255
0275,cdot_cos,Q,P-Q,176,35,27214,-0.023926203158694447,-0.023285667378686918,-0.04538140987445831,0.2433251085906696,817.0,5.295518344804648,0.5984865284003921,7.939826715351444,-0.056846037821849264,0.126,0.9999999999989534,306.4483984213213,0.8742246359629949,176,2026-10-07 20:46:43.298244,25.0,0.20890538768716949,0.42915599645284735,0.24647197428077983
0275,cdot_cos,R,Q-R,177,35,27236,0.08560448296971966,0.20508759568260485,0.1095306861284141,0.9392472925290053,817.0,5.372610187151388,0.5996071028021626,7.977259430734638,-0.1424276192232528,0.022,0.9999999999989456,-76.37295771363856,0.8791917584094271,177,2026-10-07 20:46:43.320243,25.0,0.5483301510375176,2.2553572075423505,3.5041746521245125
0275,cdot_cos,S,R-S,178,35,27295,8.291824752285514e-05,-0.0022726668243764807,-0.08552156472219681,0.1054542235774802,817.0,5.394754061936512,0.5997328507707687,8.001439995387287,-0.041287187767410444,0.059,0.9999999999989145,804.3106586688925,0.8841589233267846,178,2026-10-07 20:46:43.379244,25.0,0.08632113518990908,0.3181666305978575,0.37531991161227357
0275,cdot_cos,T,S-T,179,35,27486,-0.2204178326206741,0.0410974811032259,-0.22050075086819695,0.00401970573943012,817.0,5.410153849561935,0.5997376437739596,8.023948615451879,-0.028812861969042602,0.191,0.9999999999988809,2602.6116198012983,0.8891262378303864,179,2026-10-07 20:46:43.570244,25.0,0.6485974855930347,0.2537954091394349,0.08062716034252902
0275,cdot_cos,P,T-P,180,36,27905,0.01541990468851694,-0.0002675430497948301,0.23583773730919105,0.9972569648068408,839.0,5.491703908227776,0.6009261576888476,8.062276376299788,-0.153795479819396,0.419,0.9999999999988757,-105.15873334316431,0.894093815506008,180,2026-10-07 20:46:43.989243,25.0,0.44367867248119036,0.13098029301745132,0.19463021161298588
0275,cdot_cos,Q,P-Q,181,36,28019,-0.041502415733106535,-0.03008620534657057,-0.05692232042162347,0.19418263159873853,839.0,5.519915335110559,0.6011574434941538,8.087752528037186,-0.05372920606166704,0.114,0.9999999999988392,432.6520325156112,0.8990610433551061,181,2026-10-07 20:46:44.103244,25.0,0.1552965725273363,0.47602189266655565,0.24746865686651848
0275,cdot_cos,R,Q-R,182,36,28042,0.09951093735308351,0.17591801751015354,0.14101335308619006,0.971400061539069,839.0,5.600236899755751,0.6023137730197109,8.125663409404368,-0.15433010029353225,0.023,0.9999999999988312,-87.00019502087574,0.9040281656721671,182,2026-10-07 20:46:44.126244,25.0,0.5210781217820324,2.1932934733476093,3.492241941095286
0275,cdot_cos,S,R-S,183,36,28096,0.0004239920819682637,-0.0176055334855312,-0.09908694527111525,0.07747396653838072,839.0,5.620806834884549,0.6024059470477058,8.149202972932823,-0.039878591110457294,0.054,0.9999999999987971,1241.6893529859265,0.9089953256000263,183,2026-10-07 20:46:44.180243,25.0,0.05669899383608628,0.3384065445593492,0.3809247246073788
0275,cdot_cos,T,S-T,184,36,28286,-0.1853675070541027,0.06359298051167613,-0.185791499136071,0.009520069276954809,839.0,5.63678480656816,0.6024172729724245,8.17159186671912,-0.03107682186679986,0.19,0.9999999999987607,777.1347119307817,0.9139626479393068,184,2026-10-07 20:46:44.370244,25.0,0.7533493833044101,0.2592171284337238,0.08409458780848031
0275,cdot_cos,P,T-P,185,37,28744,0.026932525360616476,0.0009355318357656191,0.21230003241471918,0.9950701310390954,762.0,5.719309343689364,0.6036004901752416,8.20986081621648,-0.16174809322069297,0.458,0.9999999999987544,-110.43726463981349,0.9189302957557811,185,2026-10-07 20:46:44.828243,25.0,0.4458070667222061,0.12808852030437914,0.18018457886725714
0275,cdot_cos,Q,P-Q,186,37,28864,-0.009686970192304786,-0.01372355196133353,-0.036619495552921266,0.2858782614945216,762.0,5.754113891166972,0.6039401986654617,8.236653111825511,-0.06890141559964799,0.12,0.9999999999987176,273.3127969834055,0.923897535206909,186,2026-10-07 20:46:44.948243,25.0,0.2598815525956658,0.46763999879241663,0.29003789564672944
0275,cdot_cos,R,Q-R,187,37,28887,0.08409641037334407,0.22619807234259298,0.09378338056564886,0.9125028122195472,762.0,5.831542943399544,0.6050238514533646,8.273583769694724,-0.15463662281285967,0.023,0.9999999999987058,-79.11686120341889,0.9288646560328706,187,2026-10-07 20:46:44.971244,25.0,0.574399484926414,2.1829388566832404,3.3664805318509767
0275,cdot_cos,S,R-S,188,37,28935,2.5399582954418376e-06,-0.0002720817406818116,-0.08409387041504864,0.10886893766853535,762.0,5.854529078574401,0.6051530712970498,8.297447912409703,-0.046299148175210025,0.048,0.9999999999986698,838.3965770890763,0.9338318089247079,188,2026-10-07 20:46:45.019244,25.0,0.0963329065162934,0.4017828917902977,0.47887781614284564
0275,cdot_cos,T,S-T,189,37,29144,-0.30293275465483915,-0.05538135779024642,-0.3029352946131346,0.0005136871248130327,762.0,5.870114101011413,0.6051536809730573,8.319494716449043,-0.03149527336541288,0.209,0.9999999999986299,24281.54401031744,0.9387991643943029,189,2026-10-07 20:46:45.228243,25.0,0.6249805127771567,0.2381305873844092,0.07456948534455496
0275,cdot_cos,P,T-P,190,38,29506,0.016359984084014862,0.0015787294123444603,0.319292738738854,0.999658669675858,720.0,5.954067664101084,0.6063395164836464,8.357820699168663,-0.1709197708911438,0.362,0.9999999999986225,-117.57490501905669,0.9437667165630258,190,2026-10-07 20:46:45.590244,25.0,0.4423160266112871,0.1560422119630124,0.23191592013721288
0275,cdot_cos,Q,P-Q,191,38,29634,-0.04040785513409161,-0.04839581847230192,-0.05676783921810648,0.19478765943554457,720.0,5.983088662472634,0.6065704361670454,8.382977787836435,-0.05963564296622474,0.128,0.9999999999985809,481.917029708582,0.9487339714622655,191,2026-10-07 20:46:45.718244,25.0,0.15473096523227406,0.4168175271246008,0.22672654977773377
0275,cdot_cos,R,Q-R,192,38,29658,0.048116503612973864,0.2196231455113303,0.08852435874706548,0.901420539589572,720.0,6.0607729510449815,0.6076384436804828,8.419692934205704,-0.16090702688658717,0.024,0.9999999999985691,-94.82272610088683,0.9537010925130617,192,2026-10-07 20:46:45.742244,25.0,0.5329230398571583,2.363748608465055,3.2368453571811617
0275,cdot_cos,S,R-S,193,38,29714,0.012304749954645956,-0.024568062162907734,-0.03581175365832791,0.2900185736841809,720.0,6.096548595678956,0.6079818407832099,8.446361349169608,-0.07477675003611303,0.056,0.9999999999985374,250.8182980184184,0.9586682565834082,193,2026-10-07 20:46:45.798244,25.0,0.31605712335144337,0.4626811747941915,0.6388507970352635
0275,cdot_cos,T,S-T,194,38,29906,-0.20926303866365198,-0.051190654013955485,-0.22156778861829793,0.003914308065571867,720.0,6.112593242621931,0.6079864747980316,8.468279405929794,-0.033678660743237734,0.192,0.9999999999984944,8868.786759353958,0.9636356011258448,194,2026-10-07 20:46:45.990243,25.0,0.2951414395002091,0.26275600897696094,0.08356586949465987
0275,cdot_cos,P,T-P,195,39,30226,0.016720799693735397,0.0017261177721426232,0.2259838383573874,0.9964934012213945,697.0,6.197446903126109,0.6091655539900906,8.506541911770242,-0.17939179764152896,0.32,0.9999999999984875,-123.58214603365857,0.9686031192092255,195,2026-10-07 20:46:46.310244,25.0,0.4438529430150617,0.17498142954976426,0.2651676890755572
0275,cdot_cos,Q,P-Q,196,39,30355,-0.04902804137485661,-0.06078298068803937,-0.06574884106859201,0.16195937756982096,697.0,6.22458135753378,0.6093570689229233,8.531007166854785,-0.05787751499968292,0.129,0.9999999999984436,634.4898585429319,0.9735703819137689,196,2026-10-07 20:46:46.439244,25.0,0.12251674058054096,0.4110797365665651,0.21034460781140166
0275,cdot_cos,R,Q-R,197,39,30378,0.040940198553963386,0.23182687226810428,0.08996823992882,0.9045820241309946,697.0,6.303505475160283,0.6104261046947775,8.567746971741187,-0.16961403580081974,0.023,0.9999999999984319,-104.52084368264849,0.9785375009670947,197,2026-10-07 20:46:46.462244,25.0,0.5174878114481825,2.648588728150552,3.431483375065347
0275,cdot_cos,S,R-S,198,39,30437,0.022261593156491108,-0.03651120402189081,-0.018678605397472278,0.3853348065386034,697.0,6.3464164390287054,0.6108811721799605,8.595868342639253,-0.09307638180451341,0.059,0.9999999999984022,168.1896784287519,0.9835046708660745,198,2026-10-07 20:46:46.521244,25.0,0.4394153632384258,0.5010767139676736,0.7273044723461426
0275,cdot_cos,T,S-T,199,39,30624,-0.21004895652947167,-0.07786857147570797,-0.23231054968596276,0.002995142769301523,697.0,6.3626325274084685,0.6108847085876967,8.617597652911032,-0.03533794154451121,0.187,0.9999999999983573,16326.861766786382,0.9884720198077644,199,2026-10-07 20:46:46.708243,25.0,0.1951681653510478,0.2732570460405083,0.08671705015916081
0275,cdot_cos,P,T-P,200,40,30923,0.018491628035437618,0.0013223813335786186,0.22854058456490928,0.9967098108643986,700.0,6.448614574247856,0.6120608880319875,8.655856621223498,-0.18866951123484985,0.299,0.9999999999983501,-130.36409574628254,0.9934395288612675,200,2026-10-07 20:46:47.007244,25.0,0.4436589036203727,0.19027971042838002,0.2875653740447727
0275,cdot_cos,Q,P-Q,201,40,31049,-0.0460264807720807,-0.05511602391890683,-0.06451810880751832,0.16617907069375223,700.0,6.47641979424464,0.6122568631169527,8.680247996202766,-0.06154322621032143,0.126,0.9999999999983057,648.685954375925,0.9984067943880254,201,2026-10-07 20:46:47.133244,25.0,0.12673687433623335,0.4298277834799299,0.22067634918082701
0275,cdot_cos,R,Q-R,202,40,31073,0.047764636917127824,0.2408723834392997,0.09379111768920853,0.9125182545625702,700.0,6.556931175684798,0.6133323477619584,8.71709946201199,-0.17951114393902684,0.024,0.9999999999982947,-109.68814689871913,1.0033739143973042,202,2026-10-07 20:46:47.157243,25.0,0.5183201976354962,2.50159261028469,3.354640893339922
0275,cdot_cos,S,R-S,203,40,31131,0.019439165591113337,-0.03614009507860392,-0.028325471326014488,0.33001067364015213,700.0,6.596496239538305,0.6137210235270817,8.744187559833534,-0.0889953396010433,0.058,0.9999999999982616,232.882552657435,1.0083410849253707,203,2026-10-07 20:46:47.215244,25.0,0.3616476918162819,0.48198880305164454,0.6821562733363276
0275,cdot_cos,T,S-T,204,40,31323,-0.236464341126652,-0.08117531030233657,-0.25590350671776535,0.0016628008277855555,700.0,6.612841876838789,0.6137229815529782,8.765726499306208,-0.03692314731346398,0.192,0.9999999999982147,26594.230638025565,1.0133084523764628,204,2026-10-07 20:46:47.407244,25.0,0.24407350414855505,0.26963103875838934,0.08513352760668631
0275,cdot_cos,P,T-P,205,41,31623,0.02060418969107616,0.001825654419814944,0.2570685308177281,0.9983848536747203,758.0,6.700034558421526,0.6148979603441468,8.80400816720223,-0.1982782738193743,0.3,0.9999999999982085,-137.32599066357236,1.0182759821224545,205,2026-10-07 20:46:47.707244,25.0,0.4431791564635607,0.19557258028802002,0.2906422719424592
0275,cdot_cos,Q,P-Q,206,41,31752,-0.03637467123931552,-0.0411208607174973,-0.05697886093039169,0.19396154676062574,758.0,6.730185425011601,0.6151260748687994,8.82872960296165,-0.06915283128157954,0.129,0.9999999999981627,566.0553300339407,1.0232432590086873,206,2026-10-07 20:46:47.836244,25.0,0.15454849121658568,0.4371136862312111,0.2337276479850718
0275,cdot_cos,R,Q-R,207,41,31775,0.06578884264885908,0.22529858378649062,0.1021635138881746,0.9278476603014568,758.0,6.812809889469179,0.6162165975412193,8.865822603941968,-0.19089180277820952,0.023,0.9999999999981518,-111.63359971828577,1.0282103769632307,207,2026-10-07 20:46:47.859244,25.0,0.5284864680452233,2.452729816590538,3.5923680198947046
0275,cdot_cos,S,R-S,208,41,31831,0.008344384624435732,-0.026105340791539543,-0.05744445802442334,0.1921482350752661,758.0,6.843010996574765,0.616442288578454,8.890466775023713,-0.07034095020286132,0.056,0.9999999999981114,534.1410720266747,1.0331775462994033,208,2026-10-07 20:46:47.915244,25.0,0.18017844377833245,0.4175532324666085,0.5393054840283311
0275,cdot_cos,T,S-T,209,41,32022,-0.2426597965727493,-0.019804193191888034,-0.25100418119718504,0.001879056754595441,758.0,6.859575851505439,0.6164444954095913,8.911844391573434,-0.03871301001310456,0.191,0.9999999999980625,14331.835206577696,1.0381449233586348,209,2026-10-07 20:46:48.106244,25.0,0.441761654434055,0.27445658541361057,0.08672698916583042
0275,cdot_cos,P,T-P,210,42,32381,0.02255746349463952,0.0006122801278598395,0.2652172600673888,0.9986821454760278,802.0,6.947853412202765,0.6176167024840352,8.950126227412389,-0.20764687506355517,0.359,0.9999999999980566,-144.11605998078196,1.0431125634931562,210,2026-10-07 20:46:48.465244,25.0,0.443275749649505,0.16969938892910474,0.24589849776413822
0275,cdot_cos,Q,P-Q,211,42,32499,-0.024388376950726313,-0.02167835182332418,-0.04694584044536583,0.23619658304088423,802.0,6.981420012756536,0.6178937397020327,8.975435341533489,-0.07963026455313545,0.118,0.9999999999980089,462.0917414482762,1.048079829525125,211,2026-10-07 20:46:48.583244,25.0,0.20036037895147896,0.5043997873587921,0.28446271655738636
0275,cdot_cos,R,Q-R,212,42,32523,0.09628411835577935,0.21217490563841904,0.12067249530650567,0.953327901004187,802.0,7.06689176201944,0.6190111266449013,9.012948495329047,-0.20426867250981945,0.024,0.9999999999979994,-111.5445358943425,1.0530469480491633,212,2026-10-07 20:46:48.607244,25.0,0.5432590603234824,2.2518924821065545,3.561322885954306
0275,cdot_cos,S,R-S,213,42,32573,-0.00013642736274744886,-0.0019747639513225407,-0.0964205457185268,0.08237448407726651,802.0,7.089510851897651,0.6191076180957451,9.035588668466664,-0.054467937039449986,0.05,0.9999999999979513,1552.4767651477498,1.058014109067489,213,2026-10-07 20:46:48.657243,25.0,0.06391153904831165,0.39280440332657207,0.45238179756422525
0275,cdot_cos,T,S-T,214,42,32780,-0.30160265880765563,-0.013522624632986644,-0.3014662314449082,0.0005328935769543127,802.0,7.106172202352097,0.6191082422836056,9.056783282044776,-0.04023270168458869,0.207,0.9999999999978986,22806.011227518073,1.0629815225389911,214,2026-10-07 20:46:48.864243,25.0,0.7019995566293771,0.25616381469464944,0.08048961572196109
0275,cdot_cos,P,T-P,215,43,33183,0.014488844619029212,0.0007217964720495504,0.31609150342668485,0.9996302403705867,857.0,7.195562671181236,0.6202784323840836,9.095077894696061,-0.21720817279126042,0.403,0.9999999999978916,-151.23651365224856,1.0679492565176596,215,2026-10-07 20:46:49.267244,25.0,0.44273958035420546,0.15567806689046285,0.22181257773979882
0275,cdot_cos,Q,P-Q,216,43,33309,-0.026249077538437693,-0.022378907399083183,-0.0407379221574669,0.26532981103091774,857.0,7.23164872426581,0.6205887994473879,9.120766626583817,-0.08842604890872997,0.126,0.9999999999978414,414.9348919678868,1.0729165409147599,216,2026-10-07 20:46:49.393243,25.0,0.23307798014766204,0.4862142298273915,0.2863972467029693
0275,cdot_cos,R,Q-R,217,43,33333,0.09397469509704458,0.1965763555390432,0.12022377263548227,0.952826220408934,857.0,7.318088657097738,0.6217025443069889,9.15826172430705,-0.21336830323503178,0.024,0.9999999999978301,-112.18211536442844,1.0778836579467497,217,2026-10-07 20:46:49.417243,25.0,0.5567879400686062,2.287247283135544,3.6016638679970217
0275,cdot_cos,S,R-S,218,43,33390,0.000792085682978328,-0.00893668712465739,-0.09318260941406625,0.08870380136122197,857.0,7.341436593856316,0.6218061638176523,9.18086935786008,-0.058060708354312436,0.057,0.999999999997778,1498.8257895293925,1.0828508311108667,218,2026-10-07 20:46:49.474244,25.0,0.06891252526245012,0.3555542213397142,0.40961292558908075
0275,cdot_cos,T,S-T,219,43,33580,-0.21108235449151627,0.0653884314204427,-0.2118744401744946,0.004982339113529819,857.0,7.358621838330466,0.6218119836165551,9.201988457306834,-0.042853486615310285,0.19,0.9999999999977213,2613.0149843662243,1.0878182277726605,219,2026-10-07 20:46:49.664243,25.0,0.7012677936340261,0.28277483904093464,0.09044865512710432
0275,cdot_cos,P,T-P,220,44,34040,0.027718578145960782,-0.0002416532832479202,0.23880093263747706,0.9974523253592102,841.0,7.448891032691871,0.6229763847518325,9.240244693964609,-0.22646759865595495,0.46,0.9999999999977145,-157.68973979650437,1.0927860845725144,220,2026-10-07 20:46:50.124243,25.0,0.4445137395292127,0.13886747506830402,0.19623737904653335
0275,cdot_cos,Q,P-Q,221,44,34153,-0.010327521368889077,-0.010551241071774152,-0.03804609951484986,0.2786531064306907,841.0,7.4863799153933055,0.623301424577002,9.266054090443692,-0.0948313726197081,0.113,0.9999999999976583,404.9849152103,1.0977533522773613,221,2026-10-07 20:46:50.237243,25.0,0.24954689842807137,0.5546176424763853,0.3317600239064987
0275,cdot_cos,R,Q-R,222,44,34176,0.11523886033109294,0.20498844881804099,0.12556638169998202,0.9584794462348968,841.0,7.574234619891534,0.624418611256732,9.303640150581009,-0.2238369872708273,0.023,0.9999999999976462,-115.47364195417386,1.1027204658257461,222,2026-10-07 20:46:50.260243,25.0,0.56195284200301,3.0865684655676517,3.8197697607925543
0275,cdot_cos,S,R-S,223,44,34229,0.11523886033109294,0.20498844881804099,0.0,0.5,841.0,7.6283620648094175,0.6250008780741846,9.3332658189196,-0.13912028509902813,0.053,0.9999999999976118,145.494642031019,1.1076876330879082,223,2026-10-07 20:46:50.313244,25.0,0.5439240151211926,0.6718318134717753,1.0212725456204386
0275,cdot_cos,T,S-T,224,44,34421,-0.30974923909493557,0.0480780463022267,-0.4249880994260285,2.430747131340273e-05,841.0,7.645448792119542,0.6250009063722788,9.354169463322417,-0.04412266188180971,0.192,0.9999999999975512,3357032.5457837875,1.112655046419861,224,2026-10-07 20:46:50.505243,25.0,0.11613119616020814,0.28286670507362416,0.08899337140690078
0275,cdot_cos,P,T-P,225,45,34881,0.01766358772613157,0.001598439644183929,0.32741282682106715,0.9997213626233341,859.0,7.736982879557689,0.6261640302916082,9.39247313057617,-0.23775040962594218,0.46,0.9999999999975415,-166.47215703015743,1.1176229400751425,225,2026-10-07 20:46:50.965244,25.0,0.442897885339465,0.1364391913194417,0.1989871466046668
0275,cdot_cos,Q,P-Q,226,45,35008,-0.03177097593485664,-0.028240853359422165,-0.04943456366098821,0.2251567208642313,859.0,7.770972848133429,0.6264257879108098,9.417257865280986,-0.08898077207462321,0.127,0.9999999999974789,568.3488335699743,1.1225902392821698,226,2026-10-07 20:46:51.092243,25.0,0.18788406687840506,0.481950618412265,0.2676375478404698
0275,cdot_cos,R,Q-R,227,45,35032,0.08779539515108097,0.1855476021311157,0.11956637108593761,0.9520819693567794,859.0,7.8593983366344045,0.6275318181564322,9.454733655914422,-0.23303217596331863,0.024,0.9999999999974631,-130.24183059988022,1.1275573529475014,227,2026-10-07 20:46:51.116243,25.0,0.5389346253888595,2.3658705606430983,3.6843953542073185
0275,cdot_cos,S,R-S,228,45,35089,0.0019031223379080593,-0.01659996291470838,-0.08589227281317291,0.10458315888858546,859.0,7.8845346350442975,0.6276532309464504,9.477369444457137,-0.066715435448482,0.057,0.9999999999974032,1369.8453061650152,1.1325245281161804,228,2026-10-07 20:46:51.173243,25.0,0.08266760653312438,0.3766978842295306,0.4409876914016327
0275,cdot_cos,T,S-T,229,45,35281,-0.19558875782156301,0.05557394834656226,-0.19749188015947108,0.007122864216104711,859.0,7.902341895436571,0.6276614994439053,9.498255565663897,-0.047391590875057475,0.192,0.9999999999973372,2337.0442669882527,1.137491952000746,229,2026-10-07 20:46:51.365243,25.0,0.665146219495561,0.28666747827388317,0.0927461478764241
0275,cdot_cos,P,T-P,230,46,35740,0.026145012805648685,0.0005124551138146075,0.2217337706272117,0.9961018377139442,778.0,7.994614946701469,0.6288170756594398,9.536496931383727,-0.2469706704527254,0.459,0.9999999999973255,-172.70957717431915,1.1424598744309862,230,2026-10-07 20:46:51.824243,25.0,0.44570034488241295,0.14005169364712997,0.2010306127775549
0275,cdot_cos,Q,P-Q,231,46,35856,-0.017637720429919866,-0.019171626940702357,-0.043782733235568555,0.25075900839864645,778.0,8.030909350204636,0.6291077493076295,9.561624478872659,-0.09789691545819759,0.116,0.9999999999972592,512.8561048549035,1.1474271587847786,231,2026-10-07 20:46:51.940243,25.0,0.21810852185280566,0.5372216594398969,0.31288278882041026
0275,cdot_cos,R,Q-R,232,46,35880,0.09111647684783232,0.2159420674072964,0.10875419727775218,0.9381301050174111,778.0,8.119250371691525,0.6301943761148194,9.598849398759626,-0.23984542642963202,0.024,0.9999999999972403,-130.6322557406035,1.1523942705905212,232,2026-10-07 20:46:51.964243,25.0,0.5533119657503931,2.3514058406867155,3.6808758952870204
0275,cdot_cos,S,R-S,233,46,35930,-1.2014886407830863e-05,-0.0002761569332497808,-0.09112849173424015,0.09294355618434592,778.0,8.143776830557599,0.6303019601288358,9.621156503034124,-0.06704655265981019,0.05,0.9999999999971746,1606.1761159383852,1.1573614330054198,233,2026-10-07 20:46:52.014244,25.0,0.07597910417716931,0.42048069113898023,0.49052917732147705
0275,cdot_cos,T,S-T,234,46,36139,-0.2829539826481386,0.024613086139151544,-0.28294196776173075,0.0008465036401450244,778.0,8.161298440805423,0.6303029399141652,9.641795664151786,-0.048021607638469764,0.209,0.9999999999971037,19417.46263185219,1.1623289003321768,234,2026-10-07 20:46:52.223244,25.0,0.6728891456459447,0.2656620679529557,0.08383545573121613
0275,cdot_cos,P,T-P,235,47,36518,0.018095234389804676,-0.00048217701304150264,0.3010492170379433,0.9994615247622716,719.0,8.254823574961934,0.63145901543569,9.680098394199826,-0.25773537063078655,0.379,0.99999999999709,-181.40143882270377,1.1672966990544207,235,2026-10-07 20:46:52.602243,25.0,0.4432246047781295,0.1646444828531063,0.2467681640013491
0275,cdot_cos,Q,P-Q,236,47,36632,-0.042583729887763086,-0.039531224477474945,-0.06067896427756776,0.1799075297914369,719.0,8.286098958808077,0.6316669543587126,9.703867464023816,-0.08682315072214704,0.114,0.999999999997017,821.9347172926228,1.1722639850261698,236,2026-10-07 20:46:52.716243,25.0,0.13966483481959838,0.533308069100113,0.27434547233458995
0275,cdot_cos,R,Q-R,237,47,36655,0.0767266368318846,0.21834573249901937,0.11931036671964769,0.9517891379906485,719.0,8.37641781471676,0.6327662260834086,9.741327952519336,-0.25226039303693326,0.023,0.9999999999969987,-150.4971324178575,1.1772310935090218,237,2026-10-07 20:46:52.739244,25.0,0.5190166416687886,2.575460669077516,3.9269067786383696
0275,cdot_cos,S,R-S,238,47,36708,0.003114000278761236,-0.011858380207736427,-0.07361263655312336,0.1370139342881852,719.0,8.404570149585643,0.6329243574127259,9.764297145753908,-0.07917419873592701,0.053,0.9999999999969317,1094.5724357612705,1.1821982625497847,238,2026-10-07 20:46:52.792243,25.0,0.1123491401084965,0.43269575014452905,0.5311761296015707
0275,cdot_cos,T,S-T,239,47,36899,-0.2740192665563274,-0.03821058327614975,-0.27713326683508865,0.0009786751142517075,719.0,8.42228356423208,0.6329254868241498,9.784806358530565,-0.049952423695134925,0.191,0.9999999999968564,25873.454457255808,1.1871657067973376,239,2026-10-07 20:46:52.983244,25.0,0.5571102428541548,0.2937441267092133,0.092740390819041
0275,cdot_cos,P,T-P,240,48,37237,0.014709168934255612,0.0006937535268435073,0.288728435490583,0.9992674241929221,700.0,8.516780405988563,0.634077898756975,9.82310862950648,-0.26790577683113775,0.338,0.999999999996843,-189.12799054561555,1.1921334490735038,240,2026-10-07 20:46:53.321243,25.0,0.44328392251569454,0.18353373452615984,0.2795764549008362
0275,cdot_cos,Q,P-Q,241,48,37361,-0.05355379965495429,-0.0587110712511131,-0.06826296858920991,0.15360858399697258,700.0,8.546352368771764,0.6342549132517267,9.84630068570458,-0.08443559918418189,0.124,0.9999999999967666,1036.4697981614208,1.1971007613119367,241,2026-10-07 20:46:53.445244,25.0,0.11384689493964008,0.48145654249170766,0.23848357083226934
0275,cdot_cos,R,Q-R,242,48,37383,0.05198132275966277,0.2231645890117256,0.10553512241461706,0.9332910552481923,700.0,8.636181628526506,0.6353296324099093,9.883426383464233,-0.2579578347794767,0.022,0.9999999999967469,-161.45821377999087,1.2020678666936389,242,2026-10-07 20:46:53.467244,25.0,0.5103406980417479,3.007211832415934,4.083148170670095
0275,cdot_cos,S,R-S,243,48,37442,0.02155855408730264,-0.04160812416582441,-0.030422768672360125,0.31852269584042486,700.0,8.678669689398065,0.6356961150740881,9.909538496038744,-0.12289756049754778,0.059,0.9999999999966896,368.53114071454837,1.2070350495543565,243,2026-10-07 20:46:53.526243,25.0,0.3332153587296697,0.5134550788737379,0.7201366249416777
0275,cdot_cos,T,S-T,244,48,37637,-0.2061757227886106,-0.06298383468892639,-0.22773427687591324,0.003356959823768867,700.0,8.696769327833607,0.6356999766542569,9.929967916235222,-0.05253655797180239,0.195,0.9999999999966109,18220.779952543533,1.2120025149194937,244,2026-10-07 20:46:53.721244,25.0,0.26203505756254514,0.2907457360145544,0.09281865864380551
0275,cdot_cos,P,T-P,245,49,37937,0.021539128222566453,0.001212537660395341,0.22771485101117706,0.9966414149609247,700.0,8.792060526443741,0.6368456592660852,9.968228436861775,-0.2780244946871308,0.3,0.9999999999965976,-196.81536089258043,1.2169702026100375,245,2026-10-07 20:46:54.021244,25.0,0.4443973317880393,0.21327052117669906,0.31763732870044714
0275,cdot_cos,Q,P-Q,246,49,38061,-0.036654735111124916,-0.04137922344217303,-0.058193863333691365,0.18925679256350594,700.0,8.824731640539627,0.6370630432507475,9.991961049867683,-0.09599501081681047,0.124,0.9999999999965219,837.3638203066726,1.221937522548198,246,2026-10-07 20:46:54.145243,25.0,0.15013220509352707,0.49084280994556967,0.26347672657972016
0275,cdot_cos,R,Q-R,247,49,38083,0.05652058199410998,0.24502480748084426,0.0931753171052349,0.9112814606094496,700.0,8.913789543310243,0.6381089731456806,10.028687530596786,-0.2631519627629475,0.022,0.9999999999965017,-159.81659263771613,1.2269046271482253,247,2026-10-07 20:46:54.167244,25.0,0.5298238235995274,2.8339342373780694,4.048086489573454
0275,cdot_cos,S,R-S,248,49,38129,0.007077536705422277,-0.0172484101932181,-0.049443045288687704,0.22511973015240827,700.0,8.949424746984262,0.6383671549615431,10.053033826255177,-0.10600381787197216,0.046,0.9999999999964361,608.6723976513275,1.2318717842601214,248,2026-10-07 20:46:54.213243,25.0,0.22707469257190796,0.5842720098704877,0.774678340739545
0275,cdot_cos,T,S-T,249,49,38337,-0.2624685155328119,-0.07927417871596792,-0.2695460522382342,0.0011828424886318914,700.0,8.967542568218327,0.6383685113106936,10.073303067282703,-0.05405709554557035,0.208,0.999999999996355,38298.93085076817,1.2368392907839447,249,2026-10-07 20:46:54.421243,25.0,0.38252537344345805,0.2754255791169938,0.0871049097791625
0275,cdot_cos,P,T-P,250,50,38637,0.019184687489283144,0.0011336871083075782,0.28165320302209507,0.9991258028669199,760.0,9.064001787896931,0.6395134055996241,10.111612982342653,-0.28924075803327437,0.3,0.9999999999963421,-205.41954376189665,1.241807000028874,250,2026-10-07 20:46:54.721244,25.0,0.4434780717780447,0.21075274492138085,0.321530732262012
0275,cdot_cos,Q,P-Q,251,50,38764,-0.049896351799675276,-0.050350586230143,-0.06908103928895842,0.15096838465240806,760.0,9.093994215171156,0.6396862621577898,10.134555082587212,-0.0905465008951045,0.127,0.9999999999962613,1149.474797176776,1.2467743338063377,251,2026-10-07 20:46:54.848243,25.0,0.11142660811938934,0.4848255795797868,0.23616084467893628
0275,cdot_cos,R,Q-R,252,50,38787,0.06947546212704339,0.2202728443123233,0.11937181392671867,0.9518595791351404,760.0,9.187147485110197,0.640775291861081,10.172011327557101,-0.28275963336251064,0.023,0.9999999999962437,-176.49943971823456,1.2517414396774462,252,2026-10-07 20:46:54.871244,25.0,0.5067306307597185,2.7482281257944208,4.0501421712626495
0275,cdot_cos,S,R-S,253,50,38846,0.01161820663416108,-0.0353721700614324,-0.057857255492882315,0.1905513866347596,760.0,9.2204127089577,0.6409931293943147,10.195638789791218,-0.10164524586023993,0.059,0.9999999999961735,831.4195667460758,1.2567086267974745,253,2026-10-07 20:46:54.930244,25.0,0.16833008816988873,0.43821726763624247,0.5638173533474985
0275,cdot_cos,T,S-T,254,50,39037,-0.2201982536117994,-0.013878832766075369,-0.23181646024596048,0.003032256040196787,760.0,9.238857122691273,0.6409965953868001,10.215823682822556,-0.056516882606495115,0.191,0.9999999999960887,13020.329225890475,1.261676109221384,254,2026-10-07 20:46:55.121243,25.0,0.45000638952021205,0.30296383021173634,0.09656761117054552
0275,cdot_cos,P,T-P,255,51,39397,0.018757370112045164,0.001249310196257072,0.23895562372384457,0.997462133940195,819.0,9.336144892098583,0.6421359346771602,10.254107883562178,-0.29955473959747475,0.36,0.9999999999960768,-213.3147334137455,1.2666439751960061,255,2026-10-07 20:46:55.481244,25.0,0.4442666349671553,0.18585020740136127,0.27024380390919195
0275,cdot_cos,Q,P-Q,256,51,39523,-0.029705156672335756,-0.026928150394566096,-0.04846252678438092,0.22942458297201274,819.0,9.372669272020254,0.6423977657374901,10.278384232460372,-0.11323418675515728,0.126,0.9999999999959971,711.6059974229171,1.2716113138928506,256,2026-10-07 20:46:55.607244,25.0,0.19292681668081943,0.5184815733511832,0.2898760311243731
0275,cdot_cos,R,Q-R,257,51,39546,0.09019723755924047,0.21862007978411108,0.11990239423157623,0.952463767437536,819.0,9.46680224858308,0.6434838560854754,10.315851136948377,-0.2934751652747515,0.023,0.999999999995979,-165.9539455938761,1.2765784184285844,257,2026-10-07 20:46:55.630244,25.0,0.5410947247698767,2.611261999559976,4.092738111427267
0275,cdot_cos,S,R-S,258,51,39603,6.814833453883855e-05,-0.002008749393029303,-0.09012908922470163,0.09507145391579797,819.0,9.492787324000012,0.6435921849254241,10.337641385604204,-0.08151832311078099,0.057,0.9999999999958973,1956.605851814898,1.2815456025208323,258,2026-10-07 20:46:55.687244,25.0,0.07426519442396486,0.3898125013442323,0.45587851608652163
0275,cdot_cos,T,S-T,259,51,39797,-0.279133173289091,0.019805609606677516,-0.2792013216236298,0.00092940786340038,819.0,9.511240873736323,0.6435932438635128,10.357673280200903,-0.058026654310260516,0.194,0.9999999999958079,22184.175875886616,1.2865131040838989,259,2026-10-07 20:46:55.881243,25.0,0.6670817184960082,0.30117600651971754,0.09512139039335436
0275,cdot_cos,P,T-P,260,52,40216,0.030050314355225566,0.001536311518857654,0.3091834876443166,0.9995605676247152,782.0,9.609643614529663,0.6447312972865438,10.396000378025292,-0.31088147829307233,0.419,0.999999999995796,-222.1818579565316,1.2914811337341476,260,2026-10-07 20:46:56.300243,25.0,0.4433711784617641,0.1661506067099092,0.23485141000797055
0275,cdot_cos,Q,P-Q,261,52,40336,-0.007984098375300078,-0.010866499916891701,-0.038034412730525644,0.27871183794205023,782.0,9.650475082159227,0.6450483347423676,10.421096174777755,-0.1298851707252726,0.12,0.9999999999957137,570.898814140116,1.2964484648171155,261,2026-10-07 20:46:56.420243,25.0,0.2482025382903788,0.5566203491916166,0.3402622302463687
0275,cdot_cos,R,Q-R,262,52,40360,0.0919141691890929,0.23610328389313134,0.09989826756439298,0.9239633319898686,782.0,9.74323249833565,0.6460984403435162,10.458038460491297,-0.2967116542276176,0.024,0.9999999999956914,-158.86638764698642,1.3014155698441698,262,2026-10-07 20:46:56.444243,25.0,0.5699246046054274,3.158547415187026,3.8648923406843227
0275,cdot_cos,S,R-S,263,52,40419,0.0919141691890929,0.23610328389313134,0.0,0.5,782.0,9.802085358088204,0.6466661155567195,10.487183639473262,-0.18959188146349276,0.059,0.9999999999956387,188.69904880936903,1.3063827601175646,263,2026-10-07 20:46:56.503244,25.0,0.5683590683351868,0.6565663524271493,0.9975060975009068
0275,cdot_cos,T,S-T,264,52,40615,-0.3016529517667636,-0.020994472732227626,-0.3935671209558565,5.3318278807904295e-05,782.0,9.820707327922054,0.6466661760696286,10.507103364592796,-0.06022770808108451,0.196,0.9999999999955442,2137794.649877998,1.3113502815597033,264,2026-10-07 20:46:56.699244,25.0,0.11672693993244623,0.30112005496927907,0.09501005017270467
0275,cdot_cos,P,T-P,265,53,40998,0.020217561407211287,0.0021450085630974206,0.32187051317397486,0.9996799658709895,836.0,9.920124419636162,0.6477999222024441,10.545440737465778,-0.3229986924837351,0.383,0.9999999999955304,-231.7723313861297,1.3163182606759358,265,2026-10-07 20:46:57.082243,25.0,0.4432879355581024,0.18170510475363347,0.2595746519950582
0275,cdot_cos,Q,P-Q,266,53,41127,-0.02161324774357906,-0.021459795618504838,-0.04183080915079035,0.2600381598180664,836.0,9.959893438163338,0.648094561721021,10.570125232222566,-0.13006789860693768,0.129,0.9999999999954432,654.8028411417941,1.321285621955352,266,2026-10-07 20:46:57.211244,25.0,0.22688583843676896,0.5196322814594408,0.3082869653269454
0275,cdot_cos,R,Q-R,267,53,41151,0.0826860302958233,0.20227364301706224,0.10429927803940237,0.9313415557656095,836.0,10.054189548252698,0.6491489041014946,10.607203516660817,-0.31005628534260615,0.024,0.9999999999954199,-170.7115165519695,1.326252725650523,267,2026-10-07 20:46:57.235244,25.0,0.5596172003001905,2.5465714750079194,3.9290045870566574
0275,cdot_cos,S,R-S,268,53,41204,-2.5968700715550402e-05,-0.001531194174467926,-0.08271199899653886,0.11226611144398477,836.0,10.082128868963718,0.6492758989925458,10.62912758953503,-0.09241342947397947,0.053,0.9999999999953301,1713.7922168926796,1.3312199026168081,268,2026-10-07 20:46:57.288243,25.0,0.09488402986171356,0.44299133144642744,0.5271569945475537
0275,cdot_cos,T,S-T,269,53,41395,-0.235557588066374,0.050600765321845896,-0.23553161936565845,0.002764049785920445,836.0,10.101146629386019,0.649279025405912,10.648990899081063,-0.06305051915066219,0.191,0.9999999999952305,9391.883568824887,1.3361874244377234,269,2026-10-07 20:46:57.479244,25.0,0.627692741566651,0.31218580963390063,0.09956942629476946
0275,cdot_cos,P,T-P,270,54,41834,0.018891725380260578,-0.00016549818142358273,0.2544493134466346,0.9982757422004341,777.0,10.201383848243868,0.6504073340760747,10.687306519539257,-0.3337880604628368,0.439,0.999999999995215,-239.94989001825363,1.3411555732219567,270,2026-10-07 20:46:57.918243,25.0,0.4443662682823914,0.15475939926177817,0.2283307946648043
0275,cdot_cos,Q,P-Q,271,54,41948,-0.035319237429218796,-0.030274394726059622,-0.054210962809479374,0.20500946335093267,777.0,10.23702538193786,0.6506388397484641,10.710891508954822,-0.11944341776803225,0.114,0.9999999999951157,925.8720984347161,1.3461229030632391,271,2026-10-07 20:46:58.032243,25.0,0.16620576460348202,0.5843077757386373,0.3126450324034398
0275,cdot_cos,R,Q-R,272,54,41972,0.09265521823851422,0.20428544118353162,0.12797445566773302,0.9608102381692936,777.0,10.334606021112277,0.6517228810474718,10.74851371035727,-0.32867309059811056,0.024,0.9999999999950936,-193.00894995570206,1.3510900047637864,272,2026-10-07 20:46:58.056243,25.0,0.5290940914922709,2.5926680478192132,4.0658599656007155
0275,cdot_cos,S,R-S,273,54,42024,0.00300529540521712,-0.01814505767074237,-0.0896499228332971,0.09610706650873914,777.0,10.361473448233182,0.6518312284003809,10.770044035020119,-0.09102976679792037,0.052,0.9999999999949962,2193.346836997177,1.3560571796043452,273,2026-10-07 20:46:58.108243,25.0,0.07348961716687379,0.44166322838274247,0.5166812907866358
0275,cdot_cos,T,S-T,274,54,42233,-0.2632083339601032,-0.020666129384997803,-0.2662136293653203,0.0012854749269099646,777.0,10.380538996864082,0.6518326774881877,10.789775379360224,-0.06473943014549025,0.209,0.9999999999948905,18142.6801936906,1.3610247598318443,274,2026-10-07 20:46:58.317244,25.0,0.6662470997649356,0.2877705539670698,0.0912227207220103
0275,cdot_cos,P,T-P,275,55,42611,0.016653933005421954,0.0010764575156153174,0.27986226696552513,0.9990858092251216,781.0,10.481761539791417,0.6529580737275366,10.828109770725725,-0.3451838780368468,0.378,0.9999999999948728,-249.19618360696526,1.3659927825914864,275,2026-10-07 20:46:58.695244,25.0,0.44376974717654744,0.18128412890959078,0.2677845050987699
0275,cdot_cos,Q,P-Q,276,55,42738,-0.037954346095113015,-0.03765001008075589,-0.054608279100534965,0.20339533517942893,781.0,10.517589798319733,0.6531869746906587,10.851582962457636,-0.12294435928837433,0.127,0.9999999999947703,970.8981374181125,1.3709601524575894,276,2026-10-07 20:46:58.822243,25.0,0.16404031348375123,0.5212122758089278,0.2821122718765009
0275,cdot_cos,R,Q-R,277,55,42760,0.07052893237812151,0.20010659495161923,0.10848327847323452,0.9377358196994913,781.0,10.614149457846885,0.6542413844138308,10.888772901816964,-0.33295518858713596,0.022,0.9999999999947435,-199.17383601788964,1.3759272471404111,277,2026-10-07 20:46:58.844243,25.0,0.5321935552998118,2.951452613089237,4.3890754330523665
0275,cdot_cos,S,R-S,278,55,42819,0.007388602989610806,-0.025001473329907,-0.0631403293885107,0.17100685613000804,781.0,10.64745371329566,0.6544335051131493,10.911613263838948,-0.11551464243361023,0.059,0.9999999999946484,1131.7913526487796,1.3808944413334712,278,2026-10-07 20:46:58.903244,25.0,0.15222988553192707,0.4465972586418985,0.5644789059114298
0275,cdot_cos,T,S-T,279,55,43013,-0.222938889722536,0.0009543205385113953,-0.2303274927121468,0.0031468945353360905,781.0,10.66684793436663,0.6544370400757901,10.931279946821693,-0.06743463904897264,0.194,0.9999999999945373,13601.276242877246,1.3858619958259555,279,2026-10-07 20:46:59.097243,25.0,0.49017797531123725,0.3129139011758756,0.0999702117060292
0275,cdot_cos,P,T-P,280,56,43392,0.018028976166435617,0.00014521995934214967,0.24096786588897162,0.9975863453297362,759.0,10.7688643069519,0.6555567846817645,10.969589785106603,-0.35618818924083095,0.379,0.9999999999945187,-257.8744730282326,1.3908300503494826,280,2026-10-07 20:46:59.476243,25.0,0.44455702731360863,0.18525627683954904,0.2691724870323749
0275,cdot_cos,Q,P-Q,281,56,43510,-0.030194037848883776,-0.027485710335304236,-0.04822301401531939,0.23048487788404812,759.0,10.807272192211007,0.6558152483707441,10.993494348428667,-0.13493085226814855,0.118,0.9999999999944142,856.0480501000415,1.3957974032293086,281,2026-10-07 20:46:59.594244,25.0,0.19402211285034224,0.5784374077305606,0.325490553043289
0275,cdot_cos,R,Q-R,282,56,43533,0.08416120250919659,0.21945229289480672,0.11435524035808037,0.9457759420120162,759.0,10.905375535176312,0.6568748664327713,11.030832523144936,-0.3463183540049772,0.023,0.9999999999943873,-199.49405291603387,1.4007644989745867,282,2026-10-07 20:46:59.617243,25.0,0.5431417612419652,2.750224869363286,4.265362737621922
0275,cdot_cos,S,R-S,283,56,43582,2.4892414173374506e-05,-0.0014213817398603808,-0.08413631009502322,0.10876604665471046,759.0,10.933782536201718,0.6569966246378847,11.052421673809691,-0.10084794075510306,0.049,0.999999999994282,2016.048224604314,1.4057316671950222,283,2026-10-07 20:46:59.666244,25.0,0.08767971503434224,0.48790859028497685,0.5797347148042232
0275,cdot_cos,T,S-T,284,56,43792,-0.2662949594114079,0.004600535281483606,-0.26631985182558127,0.0012820701684987579,759.0,10.95319057702424,0.656998059728841,11.071955912249893,-0.06905141823189187,0.21,0.9999999999941656,22156.451048485775,1.4106992789163892,284,2026-10-07 20:46:59.876243,25.0,0.6309832108149435,0.2915968401076568,0.09241924201200376
0275,cdot_cos,P,T-P,285,57,44151,0.02261379168006996,0.0006283638705475136,0.28890875109147784,0.9992707167289586,740.0,11.056253209046934,0.6581157234918414,11.110300393321715,-0.3681589845303179,0.359,0.9999999999941461,-267.6185595347925,1.4156673070346788,285,2026-10-07 20:47:00.235244,25.0,0.44377335604039747,0.19448543419971107,0.2870825404531896
0275,cdot_cos,Q,P-Q,286,57,44271,-0.03167574191403662,-0.031190668484331167,-0.05428953359410658,0.20468951103957997,740.0,11.092831118779632,0.658344448509115,11.133643979605532,-0.131449932683822,0.12,0.9999999999940352,1034.9066956824854,1.4206346721319134,286,2026-10-07 20:47:00.355244,25.0,0.16517422473576968,0.5603783059844103,0.3048159144391457
0275,cdot_cos,R,Q-R,287,57,44294,0.0738637571646829,0.22381888652339585,0.10553949907871951,0.9332978670783403,740.0,11.190744002483193,0.6593864036229683,11.170743412374023,-0.3534844918289828,0.023,0.9999999999940068,-213.0941690223538,1.425601766299352,287,2026-10-07 20:47:00.378243,25.0,0.5335881582429322,2.8110698399007354,4.257081900154826
0275,cdot_cos,S,R-S,288,57,44344,0.0017077578626757167,-0.007382986597345744,-0.07215599930200718,0.14137698538064394,740.0,11.222140331415066,0.6595441061289605,11.192863966703491,-0.1139791618545226,0.05,0.9999999999938997,1518.7160690158007,1.430568938042427,288,2026-10-07 20:47:00.428244,25.0,0.1222963542266669,0.5096562198616894,0.6279265786374566
0275,cdot_cos,T,S-T,289,57,44552,-0.26654505520998684,-0.02164827853450686,-0.2682528130726626,0.0012216623862852018,740.0,11.241709624469362,0.6595454687089838,11.212302377339306,-0.0712045463685717,0.208,0.9999999999937784,31392.369443172098,1.4355365587656226,289,2026-10-07 20:47:00.636243,25.0,0.5484118557067753,0.2969203080183199,0.09408313968411593
0275,cdot_cos,P,T-P,290,58,44891,0.015985449418779975,-0.00039381944288895175,0.28253050462876683,0.9991447512796813,699.0,11.345659179550687,0.660658978842189,11.250646867890447,-0.3797044064167857,0.339,0.9999999999937587,-277.0516862385348,1.4405045573909927,290,2026-10-07 20:47:00.975244,25.0,0.4437589620190057,0.20242500863216267,0.3066358556971238
0275,cdot_cos,Q,P-Q,291,58,45006,-0.04968312103778391,-0.04885358980247408,-0.06566857045656388,0.1622319376940152,699.0,11.378953780321968,0.6608396131956626,11.273110018650723,-0.12232509923249396,0.115,0.9999999999936395,1424.8635557682721,1.445471915058648,291,2026-10-07 20:47:01.090244,25.0,0.12196030403541805,0.5782883959181362,0.28951826757635934
0275,cdot_cos,R,Q-R,292,58,45030,0.06376278278085981,0.21169302360433206,0.11344590381864372,0.944598201453509,699.0,11.478665510611858,0.6618904285875455,11.31041950854774,-0.3679293577752445,0.024,0.9999999999936122,-233.72731351285776,1.4504390107735772,292,2026-10-07 20:47:01.114244,25.0,0.5129735382796248,2.892633818921427,4.154655428745417
0275,cdot_cos,S,R-S,293,58,45081,0.015273331581890523,-0.03384206006477671,-0.04848945119896929,0.22930560617503543,699.0,11.517800203630197,0.6621452785966478,11.334132389146705,-0.1452279751556746,0.051,0.9999999999935114,873.8527552108974,1.455406186516712,293,2026-10-07 20:47:01.165244,25.0,0.21578761209573902,0.579805099220183,0.7673469219282059
0275,cdot_cos,T,S-T,294,58,45273,-0.20242757952834559,-0.04976052761059353,-0.2177009111102361,0.004309893927112524,699.0,11.537805630732317,0.6621500677074803,11.353539586937087,-0.07443019431091588,0.192,0.9999999999933857,14783.074211795125,1.4603737757225133,294,2026-10-07 20:47:01.357243,25.0,0.386278354240274,0.3244738199211737,0.10419493282354253
0275,cdot_cos,P,T-P,295,59,45590,0.019827196964886357,0.0007231271907915439,0.22225477649323194,0.996152088502625,683.0,11.642398150479927,0.6632560884154657,11.39182883596813,-0.3906092034599825,0.317,0.9999999999933664,-285.8707860226127,1.465341736788593,295,2026-10-07 20:47:01.674243,25.0,0.4451023617222444,0.21971431169134029,0.3299448572479827
0275,cdot_cos,Q,P-Q,296,59,45712,-0.04209427136473827,-0.04917616144503473,-0.06192146832962463,0.17537000939493294,683.0,11.677104504344626,0.6634506159458549,11.414468216179744,-0.1303556034669509,0.122,0.9999999999932464,1337.8754126593874,1.4703091226381364,296,2026-10-07 20:47:01.796243,25.0,0.13581120596156196,0.5407247278520033,0.2844783103663871
0275,cdot_cos,R,Q-R,297,59,45736,0.04834756454085274,0.2391096449245641,0.09044183590559102,0.9055990821337391,683.0,11.774334984075816,0.6644542606213227,11.45102983602409,-0.36671808980738013,0.024,0.999999999993215,-235.5041501418248,1.475276217411772,297,2026-10-07 20:47:01.820243,25.0,0.5249067926081485,2.9021704451726027,4.051269988799566
0275,cdot_cos,S,R-S,298,59,45784,0.006446812496621556,-0.015800936756839273,-0.04190075204423119,0.25970184367585963,683.0,11.816408685712911,0.6647418058754992,11.475255208932786,-0.159561699108301,0.048,0.9999999999931153,720.4305676765352,1.4802433856135748,298,2026-10-07 20:47:01.868243,25.0,0.272999876641208,0.6459312350229895,0.8765354507728196
0275,cdot_cos,T,S-T,299,59,45989,-0.254478719033443,-0.1007490884697397,-0.26092553153006454,0.001466896606574624,683.0,11.836344382638023,0.6647434296955929,11.494520972766498,-0.0758034561942741,0.205,0.9999999999929853,51580.98686154627,1.4852110284348927,299,2026-10-07 20:47:02.073244,25.0,0.3312308777231392,0.30650617784827233,0.0972473020737154
0275,cdot_cos,P,T-P,300,60,46273,0.024504535725440826,0.0024989009633259716,0.2789832547588838,0.999065516221456,717.0,11.942076218630703,0.6658484647542907,11.532866722282435,-0.40350710030917025,0.284,0.999999999992967,-296.5549749173147,1.4901789147777686,300,2026-10-07 20:47:02.357243,25.0,0.44390776150948913,0.24669429934129625,0.37229519715732395
0275,cdot_cos,Q,P-Q,301,60,46401,-0.03941449037763029,-0.047473025235821524,-0.06391902610307112,0.16826473553267132,717.0,11.97646674466388,0.6660343985282832,11.555298692430078,-0.13198237719549502,0.128,0.9999999999928434,1460.3302954776618,1.4951463271939553,301,2026-10-07 20:47:02.485244,25.0,0.12780109901671757,0.5172177447161155,0.2686759846341896
0275,cdot_cos,R,Q-R,302,60,46425,0.05084903542638313,0.2356661293478457,0.09026352580401342,0.9052173019631962,717.0,12.074483961278029,0.6670337838019348,11.591845293566836,-0.3776818706712703,0.024,0.999999999992813,-245.85062433231786,1.5001134211645926,302,2026-10-07 20:47:02.509243,25.0,0.5217607302055863,2.9495360027140447,4.084050692256221
0275,cdot_cos,S,R-S,303,60,46477,0.01162909987907049,-0.023799210606304792,-0.03921993554731264,0.272792903644479,717.0,12.118044472794153,0.6673346609853993,11.61625850844364,-0.16875992234308682,0.052,0.9999999999927122,694.376176759295,1.5050806032038286,303,2026-10-07 20:47:02.561243,25.0,0.28996843758686036,0.6119169594622264,0.8377021445408622
0275,cdot_cos,T,S-T,304,60,46670,-0.25954039377299526,-0.07135545603186068,-0.2711694936520658,0.0011358501960370936,717.0,12.1381233250621,0.6673359134873695,11.635433340261901,-0.07799307175903754,0.193,0.9999999999925788,72468.42938371701,1.5100482244908144,304,2026-10-07 20:47:02.754244,25.0,0.31230314546626087,0.32821683119152584,0.10403550397899845
0275,cdot_cos,P,T-P,305,61,46990,0.017909780856045186,0.000738225508513453,0.2774501746290404,0.9990290404968881,742.0,12.244736169634082,0.6684366254728557,11.67377835944984,-0.4155893759024314,0.32,0.9999999999925618,-306.70721187277644,1.5150162468981019,305,2026-10-07 20:47:03.074244,25.0,0.44382212728152376,0.21914004466588866,0.3331651392874446
0275,cdot_cos,Q,P-Q,306,61,47112,-0.04954735858573184,-0.047898935825024455,-0.06745713944177703,0.1562461065981028,742.0,12.278372953648269,0.6686086085588966,11.695909332639756,-0.13183999748412384,0.122,0.9999999999924329,1649.8679314939372,1.5199836488331167,306,2026-10-07 20:47:03.196243,25.0,0.11622523352808371,0.5604237102369723,0.2757113443785775
0275,cdot_cos,R,Q-R,307,61,47135,0.07206197036771493,0.22373905100745614,0.12160932895344677,0.9543589890347712,742.0,12.381479554931904,0.6696581115809362,11.733393675388246,-0.40573005200999346,0.023,0.9999999999924083,-260.97119186334345,1.524950738584464,307,2026-10-07 20:47:03.219244,25.0,0.5091284751632648,2.992586756432079,4.482895707984122
0275,cdot_cos,S,R-S,308,61,47181,0.007269693093162119,-0.02524197767807671,-0.0647922772745528,0.16523149836720688,742.0,12.416031944444144,0.6698396446140535,11.755673735144391,-0.1366865984273676,0.046,0.9999999999922913,1482.0633411043293,1.5299179029395302,308,2026-10-07 20:47:03.265243,25.0,0.1396908417488697,0.5955850859182917,0.7511389024400179
0275,cdot_cos,T,S-T,309,61,47389,-0.2628652943168203,-0.031418402919777516,-0.27013498740998243,0.0011655747804684882,742.0,12.436273382836387,0.6698409250033083,11.774764686288028,-0.0802504552968349,0.208,0.9999999999921538,44077.33267204558,1.5348855863983282,309,2026-10-07 20:47:03.473243,25.0,0.49497395689516654,0.307055343109426,0.0973146076550097
0275,cdot_cos,P,T-P,310,62,47732,0.021494767060990967,0.002055424194418338,0.2843600613778113,0.9991829570640826,796.0,12.543766967177666,0.6709376043156023,11.813111797580884,-0.42764114628471794,0.343,0.9999999999921366,-316.7659744225503,1.53985370844097,310,2026-10-07 20:47:03.816243,25.0,0.4438176073091696,0.21325986159964047,0.3133923741728256
0275,cdot_cos,Q,P-Q,311,62,47862,-0.030987654791693506,-0.031218341828359922,-0.05248242185268447,0.212142244436968,796.0,12.58256964789374,0.6711702075893416,11.836252773696051,-0.15521675294631687,0.13,0.9999999999920097,1171.1975887481456,1.544821143870225,311,2026-10-07 20:47:03.946244,25.0,0.17288608710617465,0.5418106847743003,0.29848215935441674
0275,cdot_cos,R,Q-R,312,62,47886,0.07432467879841297,0.22022322431641322,0.10531233359010647,0.9329434528104144,796.0,12.684637745218984,0.6721921361960048,11.87331792382129,-0.4099240939424571,0.024,0.9999999999919809,-249.24181526517586,1.549788235287186,312,2026-10-07 20:47:03.970243,25.0,0.53721738520722,2.7972110414642795,4.252837388551829
0275,cdot_cos,S,R-S,313,62,47937,0.00011633548483440235,-0.0017919316234668214,-0.07420834331357856,0.13526250876439333,796.0,12.716835777884025,0.6723401650956385,11.89494929856499,-0.12997042003837636,0.051,0.9999999999918551,1891.2095854038441,1.5547554165616284,313,2026-10-07 20:47:04.021244,25.0,0.11602148240195058,0.5158116541930668,0.6313339738243433
0275,cdot_cos,T,S-T,314,62,48131,-0.2649806671080847,0.014001077928313016,-0.26509700259291913,0.001321817287203865,796.0,12.737250533946677,0.6723416115000417,11.913961331750725,-0.0825767001477759,0.194,0.9999999999917111,32766.57606114455,1.5597230690361852,314,2026-10-07 20:47:04.215244,25.0,0.5633040492542694,0.331887517340242,0.10523070135387272
0275,cdot_cos,P,T-P,315,63,48528,0.02124652512637705,0.001974854398232628,0.28622719223446175,0.9992201897369216,821.0,12.84560813461204,0.6734340746564046,11.952307245566068,-0.4397620546327743,0.397,0.9999999999916946,-326.9541424849144,1.5646913976857306,315,2026-10-07 20:47:04.612243,25.0,0.44386974126366074,0.18881581823006796,0.2729410596104851
0275,cdot_cos,Q,P-Q,316,63,48656,-0.02488079388016611,-0.024350026687114522,-0.046127319006543155,0.23990817996419495,821.0,12.88717029362135,0.6736960906162754,11.975922928830437,-0.16959570677004662,0.128,0.9999999999915635,1031.106456247517,1.5696588341291324,316,2026-10-07 20:47:04.740243,25.0,0.20331428773073715,0.5653340675633236,0.3247043672602451
0275,cdot_cos,R,Q-R,317,63,48680,0.08250145444206698,0.2051463054526008,0.10738224832223309,0.9361091669720258,821.0,12.99033365590825,0.6747174249670806,12.013041764081377,-0.422643220599244,0.024,0.9999999999915329,-247.76167924803357,1.5746259235433047,317,2026-10-07 20:47:04.764243,25.0,0.5495112300714655,2.784430643644827,4.298473428620812
0275,cdot_cos,S,R-S,318,63,48738,0.00011467307088459732,-0.0027912386014528126,-0.08238678137118238,0.11307896894078176,821.0,13.020822964516302,0.674840686757353,12.03417287655899,-0.12553034870431637,0.058,0.9999999999913983,2410.421520233398,1.5795931289810266,318,2026-10-07 20:47:04.822243,25.0,0.0937746343412991,0.44181687903263694,0.5256777346215898
0275,cdot_cos,T,S-T,319,63,48929,-0.22676269618982492,0.033748206552114426,-0.2268773692607095,0.0034294014860950695,821.0,13.041584413876036,0.6748444246001242,12.053146502030975,-0.08564688799718759,0.191,0.9999999999912481,10670.181478616109,1.5845607848482632,319,2026-10-07 20:47:05.013243,25.0,0.6277123847158436,0.33989788334411714,0.10869868774729673
0275,cdot_cos,P,T-P,320,64,49349,0.016410499944142648,-0.0005610348399325456,0.24317319613396757,0.9977155203307307,838.0,13.150663955953755,0.6759309280105822,12.091460184239374,-0.45143919187597725,0.42,0.9999999999912292,-336.66926431882007,1.58952922419387,320,2026-10-07 20:47:05.433243,25.0,0.44473337022528975,0.17888476304516124,0.2597131954231407
0275,cdot_cos,Q,P-Q,321,64,49461,-0.03147251058379688,-0.022768010783070697,-0.04788301052793953,0.23199591948869433,838.0,13.191847614833971,0.6761832985750306,12.11486115597187,-0.17135213651699802,0.112,0.9999999999910896,1109.8245786753387,1.594496613002195,321,2026-10-07 20:47:05.545243,25.0,0.19503622616079824,0.6614124851138182,0.3677112400019317
0275,cdot_cos,R,Q-R,322,64,49486,0.10728528541398556,0.18886314499693496,0.13875779599778243,0.969791123302779,838.0,13.29882035261925,0.6772371494464238,12.15262782598979,-0.4468209797881202,0.025,0.9999999999910616,-261.3926227597547,1.599463703734035,322,2026-10-07 20:47:05.570244,25.0,0.5398260605622909,2.668471692594032,4.2789095114111575
0275,cdot_cos,S,R-S,323,64,49540,0.0007431016034488598,-0.012600668303675764,-0.1065421838105367,0.0651584779329594,838.0,13.325271199463673,0.6773078913701109,12.172755074054615,-0.11102813457250346,0.054,0.9999999999909136,4746.730477680362,1.604430896267232,323,2026-10-07 20:47:05.624243,25.0,0.04858724695750368,0.4401229553500538,0.48983049711893833
0275,cdot_cos,T,S-T,324,64,49728,-0.20890820610962674,0.07314563496646334,-0.2096513077130756,0.0052655893923635655,838.0,13.346353631797056,0.6773136078146093,12.191686731916,-0.08865130802062315,0.188,0.9999999999907572,3914.4658114799017,1.6093985548996919,324,2026-10-07 20:47:05.812243,25.0,0.7769230666313877,0.34820382761908164,0.11214059751799542
0275,cdot_cos,P,T-P,325,65,50187,0.02070762657514168,0.0005873335822940769,0.22961583268476843,0.9967967974121306,800.0,13.456195838648448,0.6783947968327941,12.229978401741295,-0.46333394576430065,0.459,0.9999999999907355,-346.54684004532476,1.614367165041804,325,2026-10-07 20:47:06.271244,25.0,0.4454516825702816,0.1679233659422455,0.23930764019911016
0275,cdot_cos,Q,P-Q,326,65,50307,-0.020435668189227145,-0.019797278382256703,-0.04114329476436883,0.2633590337757505,800.0,13.500507281732038,0.6786801343842058,12.253932579764356,-0.18790096357049316,0.12,0.9999999999905927,965.2882378471361,1.6193345876686185,326,2026-10-07 20:47:06.391244,25.0,0.23088368024056208,0.6239773070425263,0.36926202569658173
0275,cdot_cos,R,Q-R,327,65,50330,0.09221885923015853,0.20957852880159392,0.11265452741938567,0.9435536813735542,800.0,13.605950392338654,0.6797013360811183,12.291179294700006,-0.4488563436870449,0.023,0.9999999999905572,-255.53755042274045,1.6243016687909169,327,2026-10-07 20:47:06.414243,25.0,0.55912713780775,2.92115158018898,4.584483069852891
0275,cdot_cos,S,R-S,328,65,50379,-8.009213480039741e-05,-0.001138019937430004,-0.09229895136495893,0.09050587405290765,800.0,13.63488025442073,0.6797991997428385,12.311731123290441,-0.1237410577253802,0.049,0.9999999999904048,3322.1246808746805,1.6292688437143608,328,2026-10-07 20:47:06.463244,25.0,0.07226726006532398,0.5111315475171068,0.5904053486138081
0275,cdot_cos,T,S-T,329,65,50586,-0.2174193822806588,0.033664682098071136,-0.2173392901458584,0.004348864069066652,800.0,13.65604128399533,0.6798039017549466,12.33057004321122,-0.09067742823873551,0.207,0.9999999999902401,7031.80441189824,1.6342365830134793,329,2026-10-07 20:47:06.670244,25.0,0.6944541728192317,0.3185074103777209,0.10222719601255974
0275,cdot_cos,P,T-P,330,66,50987,0.014585182877034402,0.0010314003696799536,0.2320045651576932,0.9969819271046643,759.0,13.766742322317107,0.680880877918546,12.368860032608616,-0.47580641715583744,0.401,0.9999999999902147,-357.60214750711083,1.6392050228587545,330,2026-10-07 20:47:07.071244,25.0,0.44511451344282643,0.18879177499898422,0.27606243970517846
0275,cdot_cos,Q,P-Q,331,66,51114,-0.03609278904695496,-0.037427397388715734,-0.05067797192398936,0.21977992919351783,759.0,13.807452287544516,0.6811180331655416,12.391902435979254,-0.17587315590672906,0.127,0.9999999999900607,1264.7127358503215,1.6441724775764035,331,2026-10-07 20:47:07.198244,25.0,0.181700537724264,0.5729019406238528,0.3205509073024313
0275,cdot_cos,R,Q-R,332,66,51136,0.06599721052687824,0.21004613546374162,0.10208999957383319,0.9277245255826304,759.0,13.912259415235566,0.6821180673020081,12.428828918520361,-0.4544101098816693,0.022,0.9999999999900206,-278.52744603212835,1.649139552738667,332,2026-10-07 20:47:07.220243,25.0,0.541742862372649,3.2592397183278767,4.763960349593174
0275,cdot_cos,S,R-S,333,66,51195,0.009250057216975412,-0.02733530002347643,-0.05674715330990282,0.1948687844912177,759.0,13.950858835150942,0.6823279118180956,12.451362185092263,-0.168161428113822,0.059,0.9999999999898772,1364.0989390852628,1.6541067644843592,333,2026-10-07 20:47:07.279244,25.0,0.18227740232098086,0.5074276615329979,0.6542274561928262
0275,cdot_cos,T,S-T,334,66,51387,-0.21348046178798985,-0.015328309317880472,-0.22273051900496527,0.0038025901974444156,759.0,13.97213587929646,0.6823320059021837,12.470118800544626,-0.09289385919401037,0.192,0.9999999999897046,18384.47069002731,1.65907446415443,334,2026-10-07 20:47:07.471244,25.0,0.4447453359055281,0.34590133798451106,0.1108179382579011
0275,cdot_cos,P,T-P,335,67,51746,0.019501861040524374,0.0015438022635164495,0.23298232282851422,0.9970545916869067,722.0,14.083684948936995,0.6834045170076904,12.508403322413805,-0.4884436867947355,0.359,0.9999999999896785,-368.8072091466366,1.6640427832760782,335,2026-10-07 20:47:07.830244,25.0,0.4449396407529328,0.21068897722464897,0.3107216424527444
0275,cdot_cos,Q,P-Q,336,67,51873,-0.03457529953640402,-0.04148729997172475,-0.05407716057692839,0.20555518048146892,722.0,14.123410564943757,0.6836253867194122,12.531108389185073,-0.1748205371027149,0.127,0.9999999999895184,1419.946389422201,1.6690102462410188,336,2026-10-07 20:47:07.957243,25.0,0.16629831812741724,0.5631955099618267,0.31280012603750174
0275,cdot_cos,R,Q-R,337,67,51896,0.05458283890446828,0.22608111496090805,0.08915813844087231,0.9028195781643297,722.0,14.226736608467299,0.6845944878721048,12.567532581325866,-0.45625830019315217,0.023,0.999999999989474,-290.4111323245152,1.6739773232950492,337,2026-10-07 20:47:07.980243,25.0,0.5396477484018148,3.133685757134338,4.492436674936576
0275,cdot_cos,S,R-S,338,67,51953,0.003034233899196692,-0.008517711251890736,-0.051548605005271586,0.21607036862341128,722.0,14.267560109771937,0.684826183772994,12.590424557595568,-0.1811099358145228,0.057,0.9999999999893285,1187.540924645772,1.6789445292127152,338,2026-10-07 20:47:08.037244,25.0,0.21887949392466208,0.5437366759922225,0.7162017772743561
0275,cdot_cos,T,S-T,339,67,52145,-0.28286048058819385,-0.0626774584254403,-0.28589471448739057,0.000786313896857387,722.0,14.288722589530412,0.6848270267828642,12.609051276072545,-0.09408981728225815,0.192,0.9999999999891498,103225.50376200191,1.6839122433474265,339,2026-10-07 20:47:08.229243,25.0,0.39658605170620004,0.348362535657884,0.11022124874205767
