record_id,input,event,transition,event_index,k,peak,value_cos,value_sin,value_return,x_input,rr,knowledge,decision,decision_norm,entropy,delta_t,cosine_similarity,delta_h_over_delta_d,frobenius_norm,matrix_size,timestamp,scale,P,zdot,zdot_back
0515,cdot_cos,Q,P-Q,1,0,949,-0.040937838676840914,-0.03488901045509548,-0.06280803957594708,0.1407745656712788,878.0,0.000699247191529334,0.5001748117907596,0.5001748117907596,,,1.0,,0.004967141530112327,1,2026-10-07 20:16:17.033243,28.8,,,
0515,cdot_cos,R,Q-R,2,0,982,0.2389746252000456,0.4153677076066755,0.2799124638768865,0.9996846395759209,878.0,0.00801126849932978,0.501416201783263,0.7091095929554949,-1.1485829985728462e-05,,1.0000000000000002,,0.009934283060224654,2,2026-10-07 20:16:17.066243,28.8,,,
0515,cdot_cos,S,R-S,3,0,1041,0.026154204145494627,-0.10638455369904504,-0.21282042105455096,0.002173527143885168,878.0,0.009830459604170332,0.5014189008158044,0.8684830120883128,-5.853239504354831e-06,0.059,1.0,2.0868923937899417,0.01490142459838825,3,2026-10-07 20:16:17.125243,28.8,0.38201206260021137,0.031155920404235617,0.03083374753967035
0515,cdot_cos,T,S-T,4,0,1255,-0.09019663881933448,0.017430005043727815,-0.11635084296482912,0.03386556491459466,878.0,0.011687667107029584,0.501460954230486,1.0029219084614025,-7.206854169090835e-06,0.214,1.0000000000000002,-0.03218798461400017,0.019868566160516292,4,2026-10-07 20:16:17.339243,28.8,0.8287611901972866,0.03278919463459886,0.00867853973298716
0515,cdot_cos,P,T-P,5,1,1714,0.03310089647607613,0.0013287325618207037,0.12329753529541061,0.972103716109251,795.0,0.023864234907778642,0.5026680772486013,1.1239999908494738,-7.80656386614384e-05,0.459,0.9999999999999999,-0.05870054951232673,0.024835707838010476,5,2026-10-07 20:16:17.798244,28.8,0.40345830853174686,0.018284175702805147,0.026528470154137382
0515,cdot_cos,Q,P-Q,6,1,1825,-0.016898075167634412,-0.020317934659273604,-0.04999897164371054,0.1915499349129867,795.0,0.02847254040220471,0.502905933762978,1.2318629263464271,-4.349287375840552e-05,0.111,0.9999999999999998,0.1453513476123705,0.029802849415189337,6,2026-10-07 20:16:17.909244,28.8,0.45162349246365735,0.09019114773073446,0.04151626571555018
0515,cdot_cos,R,Q-R,7,1,1857,0.23603675827884382,0.5138826388573208,0.2529348334464782,0.9993143950997337,795.0,0.04388666970400169,0.5041468054088616,1.3338470713953616,-0.00020112566521387207,0.032,0.9999999999999999,-0.1270339216617519,0.03476999094858068,7,2026-10-07 20:16:17.941243,28.8,0.4566889559856016,0.2884364523951156,0.48169154068115566
0515,cdot_cos,S,R-S,8,1,1904,-3.053430236813644e-05,-0.00046129631959617557,-0.23606729258121195,0.0011139393453552687,795.0,0.04693247335549211,0.5041481885872788,1.425946411510673,-4.988086328937563e-05,0.047,1.0,109.34583712312235,0.03973713252769101,8,2026-10-07 20:16:17.988243,28.8,0.04821328003863959,0.06269532914675738,0.0648043330104344
0515,cdot_cos,T,S-T,9,1,2133,-0.3499815755446934,-0.25691567983969965,-0.34995104124232523,4.1966790474056015e-05,795.0,0.04978003064379689,0.5041482406974388,1.5124447221190958,-4.966034767195245e-05,0.229,1.0,4.231720216783987,0.04470427441572274,9,2026-10-07 20:16:18.217243,28.8,0.9955693676266122,0.04639199715652769,0.012434747983863651
0515,cdot_cos,P,T-P,10,2,2509,0.036165401915862254,-0.0005847849318231594,0.38614697746055565,0.999985202432496,863.0,0.06818000805318179,0.5053898940951717,1.5981831718454942,-0.00039136887014914285,0.376,1.0,-0.27520443555433305,0.049671416731876854,10,2026-10-07 20:16:18.593244,28.8,0.4176501555381084,0.03264988536556826,0.04893611013134284
0515,cdot_cos,Q,P-Q,11,2,2620,-0.018528714010379185,-0.0184688217450761,-0.05469411592624144,0.1714776978611091,863.0,0.07433274443870422,0.5056028068592098,1.6768948034572382,-0.0001581073473141284,0.111,1.0000000000000002,1.0955732216845915,0.054638558474896175,11,2026-10-07 20:16:18.704243,28.8,0.2287017813778719,0.12009537048236525,0.05543005752722906
0515,cdot_cos,R,Q-R,12,2,2649,0.27639261588098313,0.4558309523345555,0.2949213298913623,0.9997952946699232,863.0,0.09484118030026688,0.5068441450573357,1.7557596217095663,-0.0006255602355976864,0.029,1.0000000000000002,-0.3765717424866943,0.05960569998343977,12,2026-10-07 20:16:18.733243,28.8,0.47366507528291546,0.4204908615311858,0.7071874435021607
0515,cdot_cos,S,R-S,13,2,2702,0.005791315098920454,-0.03332997607315458,-0.2706013007820627,0.00041231214594238304,863.0,0.098721214407513,0.5068446569645907,1.8274543995825825,-0.0001354127906822337,0.053,0.9999999999999999,957.492670985914,0.06457284164822383,13,2026-10-07 20:16:18.786243,28.8,0.02679194579805938,0.07359291923399691,0.07320819070275697
0515,cdot_cos,T,S-T,14,2,2912,-0.15222326609893422,0.036871331853056466,-0.15801458119785466,0.01044822543483552,863.0,0.10264202973907055,0.5068576289822203,1.8964875917561719,-0.000142350644274047,0.21,0.9999999999999999,-0.5348322666453662,0.06953998408906256,14,2026-10-07 20:16:18.996243,28.8,0.952430848669743,0.06345273668532651,0.018670549197893113
0515,cdot_cos,P,T-P,15,3,3372,0.0266075140838277,0.0009146347156534077,0.1788307801827619,0.9942359056957427,840.0,0.12537136381535013,0.5080919800411758,1.9678317774214658,-0.0009343677853842431,0.46,0.9999999999999998,-0.6416465845465203,0.07450712814935548,15,2026-10-07 20:16:19.456243,28.8,0.4284204061896562,0.03367973212884352,0.049411595817999095
0515,cdot_cos,Q,P-Q,16,3,3485,-0.019692573501467695,-0.02207479068949158,-0.0463000875852954,0.20859050175699043,840.0,0.1336273832976066,0.5083509346390492,2.0334037392861397,-0.00038550654867224737,0.113,1.0,2.119526902473991,0.07947427016884019,16,2026-10-07 20:16:19.569243,28.8,0.2408116054751927,0.14530072922492576,0.07306211931200407
0515,cdot_cos,R,Q-R,17,3,3517,0.24276548495532266,0.4707164770474587,0.2624580584567904,0.9994787670276905,840.0,0.15820932862018336,0.509591672555915,2.101100292725093,-0.0012932451957702923,0.032,0.9999999999999998,-0.7316119180036873,0.08444141163956699,17,2026-10-07 20:16:19.601243,28.8,0.495638914663787,0.45625103197773553,0.7681857913305239
0515,cdot_cos,S,R-S,18,3,3576,0.016803616835242126,-0.057256642856479766,-0.22596186812008054,0.0014896820149991675,840.0,0.16282744934418167,0.5095935217403827,2.162022210094429,-0.00026726661301304045,0.059,1.0,554.8276013766618,0.08940855344180824,18,2026-10-07 20:16:19.660243,28.8,0.02151977077386888,0.07813831111228514,0.07827323261014084
0515,cdot_cos,T,S-T,19,3,3790,-0.15792532748121618,0.013574932375206405,-0.1747289443164583,0.006482189844206215,840.0,0.167429649331433,0.509601568263132,2.221301738477476,-0.00027399461029266667,0.214,0.9999999999999999,-0.8361372345938214,0.0943756967912547,19,2026-10-07 20:16:19.874244,28.8,0.9757438091900258,0.07259394062467318,0.021505607417062325
0515,cdot_cos,P,T-P,20,4,4212,0.031221102193577377,0.0011756690461797248,0.18914642967479356,0.9957110586150634,777.0,0.1938976559315418,0.5108375105320259,2.2845347993321155,-0.001723861958945764,0.422,0.9999999999999997,-1.1730866280272556,0.09934284270340595,20,2026-10-07 20:16:20.296243,28.8,0.43125415102506215,0.04209067293970918,0.06272039478698764
0515,cdot_cos,Q,P-Q,21,4,4324,-0.019690682997858838,-0.025357542658535348,-0.050911785191436215,0.18751183058366233,777.0,0.20295417729254756,0.5110702482220145,2.3420181000114177,-0.0006478305353719116,0.112,0.9999999999999999,4.623365573604691,0.10430998512034909,21,2026-10-07 20:16:20.408243,28.8,0.18995336238089774,0.16563727262062844,0.0808617978661229
0515,cdot_cos,R,Q-R,22,4,4357,0.21401385572382292,0.5217499766567997,0.23370453872168176,0.9988077150792687,777.0,0.23100040499856256,0.5123098744178606,2.4029463112117577,-0.0021935117577744755,0.033,0.9999999999999998,-1.2468929969228535,0.10927712655166796,22,2026-10-07 20:16:20.441243,28.8,0.4942763232090959,0.5049788757949044,0.8498856880610607
0515,cdot_cos,S,R-S,23,4,4416,0.02071978936004596,-0.0506850928814631,-0.19329406636377697,0.003807873989186752,777.0,0.23628278309501125,0.5123146001128854,2.4569745114509427,-0.000444867490243129,0.059,0.9999999999999998,370.02901336937106,0.11424426850099054,23,2026-10-07 20:16:20.500243,28.8,0.019629766900502443,0.08919041353870592,0.08953183214319808
0515,cdot_cos,T,S-T,24,4,4629,-0.15347666295891788,-0.022971790807858015,-0.17419645231896383,0.006581706058917129,777.0,0.24152487379612986,0.5123227682182107,2.5098587340167198,-0.00045141742216313704,0.213,1.0,-0.8018912170220716,0.11921141302358734,24,2026-10-07 20:16:20.713243,28.8,0.9855950572138841,0.08207169170282726,0.024610754465345597
0515,cdot_cos,P,T-P,25,5,4989,0.0394116659936737,0.0024298072672598054,0.19288832895259156,0.9961475415349721,815.0,0.27124532376041566,0.5135589404210332,2.567794705324265,-0.00274626991543563,0.36,0.9999999999999997,-1.85641813335765,0.12417856052279501,25,2026-10-07 20:16:21.073244,28.8,0.4336032848438625,0.05467586262677073,0.08255680545634944
0515,cdot_cos,Q,P-Q,26,5,5102,-0.015949178620340045,-0.0189642812622201,-0.05536084461401374,0.1687668246905128,815.0,0.2808914948874048,0.5137683560893694,2.6197148776139576,-0.0009597470482663201,0.113,0.9999999999999999,8.530989497410019,0.12914570352247767,26,2026-10-07 20:16:21.186244,28.8,0.15544678936721865,0.18048561894196788,0.08536434625654091
0515,cdot_cos,R,Q-R,27,5,5135,0.23788756854356868,0.5055534832739427,0.25383674716390875,0.9993319627208247,815.0,0.3120350736413004,0.515008283645598,2.67606154564347,-0.0033270743514815177,0.033,0.9999999999999994,-1.9092464647013279,0.13411284492720424,27,2026-10-07 20:16:21.219244,28.8,0.4908904781023835,0.5590508676016751,0.9437448107241095
0515,cdot_cos,S,R-S,28,5,5194,0.00012755769526645109,-0.003047442338979922,-0.23776001084830223,0.0010609931571135946,815.0,0.31778885214911534,0.5150095999842041,2.725174653679979,-0.0006529280167341867,0.059,0.9999999999999994,2031.5033854674555,0.13907998708514518,28,2026-10-07 20:16:21.278244,28.8,0.01664539001251751,0.09645136312031653,0.09752166962398211
0515,cdot_cos,T,S-T,29,5,5408,-0.32253015531485285,-0.1642028298131082,-0.3226577130101193,9.210012669684457e-05,815.0,0.32341633448949775,0.5150097142497309,2.773412193694433,-0.0006501359350556716,0.214,0.9999999999999997,24.435030922920753,0.14404713312283826,29,2026-10-07 20:16:21.492243,28.8,0.9957145965207237,0.08962968231619545,0.026296646450385076
0515,cdot_cos,P,T-P,30,6,5804,0.03127041990677283,-0.0006433529905088254,0.35380057522162567,0.9999624371162709,848.0,0.356150356180447,0.5162502389396927,2.827619018158166,-0.004007347662410835,0.396,0.9999999999999996,-2.7062836834456405,0.14901428442287493,30,2026-10-07 20:16:21.888243,28.8,0.43267689518573205,0.054802473988362424,0.08266167093674051
0515,cdot_cos,Q,P-Q,31,6,5914,-0.02307154430199141,-0.02328911505401838,-0.05434196420876424,0.17292340337332038,848.0,0.3668198938882808,0.5164647428678881,2.8755539984965757,-0.0013895666999633807,0.11,0.9999999999999993,12.203883558077797,0.15398142798316772,31,2026-10-07 20:16:21.998244,28.8,0.15199876047526048,0.20286551537344347,0.09699579734394362
0515,cdot_cos,R,Q-R,32,6,5944,0.2649652330399051,0.45165784150408717,0.28803677734189653,0.9997504144470992,848.0,0.40078076956260456,0.5177047681879527,2.928580427029899,-0.004695197852026286,0.03,0.9999999999999994,-2.6657771406560027,0.15894856922034323,32,2026-10-07 20:16:22.028243,28.8,0.4945806122051233,0.669937065902528,1.1320291891441256
0515,cdot_cos,S,R-S,33,6,5997,0.015022881207292574,-0.06310127940329575,-0.24994235183261254,0.0007472675434942629,848.0,0.40701611784243247,0.5177056949703129,2.9739928064408896,-0.0009071988921900662,0.053,0.9999999999999992,4087.2583710639356,0.16391571138303765,33,2026-10-07 20:16:22.081243,28.8,0.015367675622503511,0.11970834577005339,0.11764808075147005
0515,cdot_cos,T,S-T,34,6,6207,-0.13964837350823953,0.022286461627494796,-0.1546712547155321,0.011492152891219161,848.0,0.4134698542142302,0.5177199478482878,3.018800120428096,-0.0009537205102874474,0.21,0.9999999999999991,-3.264015743309185,0.16888285906365968,34,2026-10-07 20:16:22.291244,28.8,0.9523914997754489,0.09923038586180827,0.030732077960941653
0515,cdot_cos,P,T-P,35,7,6652,0.03348865957539946,0.0008869320959757275,0.17313703308363898,0.9932157661090055,813.0,0.44869287990439194,0.5189516494101857,3.0701593726580163,-0.00546859897002705,0.445,0.9999999999999993,-3.665562015511911,0.173850015954148,35,2026-10-07 20:16:22.736243,28.8,0.4379718780503241,0.05224754629083119,0.07915286671946455
0515,cdot_cos,Q,P-Q,36,7,6768,-0.022854820172185982,-0.02705911389188988,-0.05634347974758544,0.1648339151827868,813.0,0.45997017041307,0.5191560405061334,3.114936257935438,-0.0018452459294949503,0.116,0.9999999999999991,17.727548373530382,0.17881716046201157,36,2026-10-07 20:16:22.852243,28.8,0.14035010242246268,0.20609271193057546,0.09721802162653481
0515,cdot_cos,R,Q-R,37,7,6797,0.22729631665559197,0.4794720227934255,0.25015113682777795,0.9992572089723665,813.0,0.49650638907228545,0.5203949618033845,3.1654389904789144,-0.006291573753303039,0.029,0.9999999999999984,-3.58887028068165,0.18378430149436661,37,2026-10-07 20:16:22.881243,28.8,0.49326360723655127,0.7475742521427069,1.2598696089384644
0515,cdot_cos,S,R-S,38,7,6854,0.044661692764755914,-0.10292151387196671,-0.18263462389083607,0.005169084638612148,813.0,0.503329477037347,0.5204013700139036,3.207969508452971,-0.0012282042345701375,0.057,0.9999999999999984,790.1378245344885,0.18875144397554777,38,2026-10-07 20:16:22.938244,28.8,0.016202666776768855,0.12312949400386519,0.11970329763265852
0515,cdot_cos,T,S-T,39,7,7066,-0.08970650727487896,-0.0030880651396878863,-0.13436820003963487,0.02043610734075602,813.0,0.5105431513887261,0.5204267049711114,3.2500637473067657,-0.0013167370018894189,0.212,0.9999999999999988,-3.4944905015280967,0.19371859372758388,39,2026-10-07 20:16:23.150244,28.8,0.9349740681016333,0.10394334163091323,0.034026765808391965
0515,cdot_cos,P,T-P,40,8,7465,0.026753314032234254,0.0003266270942036631,0.11645982130711321,0.9662369750840548,859.0,0.5474014538888542,0.5216244416356998,3.2990426563699136,-0.007018910690632002,0.399,0.9999999999999981,-4.760790795948825,0.19868575319944984,40,2026-10-07 20:16:23.549243,28.8,0.44379101405324023,0.06347676280693951,0.09237669799530855
0515,cdot_cos,Q,P-Q,41,8,7573,-0.017201654329527645,-0.01745550311570536,-0.043954968361761895,0.21995938231469422,859.0,0.5611976081086638,0.521897066609751,3.341771780164761,-0.00275285511403484,0.108,0.999999999999998,15.648073297186441,0.20365289823245045,41,2026-10-07 20:16:23.657243,28.8,0.21231505076961918,0.24435822608857952,0.12774216870194094
0515,cdot_cos,R,Q-R,42,8,7605,0.27020608075654184,0.4545202730528646,0.2874077350860695,0.9997458528047595,859.0,0.6001828307239874,0.5231360180813204,3.390308907949891,-0.008147572088676525,0.032,0.9999999999999978,-4.354260113035892,0.20862003931249226,42,2026-10-07 20:16:23.689243,28.8,0.515753824040597,0.7203397902121617,1.2182882067288612
0515,cdot_cos,S,R-S,43,8,7654,-0.00015826728411878115,-0.0008820569389576067,-0.2703643480406606,0.00041513431309806066,859.0,0.6072993546822422,0.5231365324852634,3.4304356765698567,-0.001546330396645883,0.049,0.9999999999999977,12832.797613425117,0.2135871815840148,43,2026-10-07 20:16:23.738244,28.8,0.01399615905587368,0.14426727791579533,0.14523518282152642
0515,cdot_cos,T,S-T,44,8,7882,-0.37722736456935096,-0.11563347778456516,-0.3770690972852322,1.9219037743748512e-05,859.0,0.6143210239597353,0.5231365563000817,3.4700953682529203,-0.0015435840499396258,0.228,0.9999999999999973,115.32091772010921,0.21855433467986446,44,2026-10-07 20:16:23.966244,28.8,0.9982223805675527,0.10369221957194202,0.03079679507672433
0515,cdot_cos,P,T-P,45,9,8324,0.022902907575715215,-0.0014361596134576087,0.4001302721450662,0.9999901077776425,1078.0,0.6545830068070477,0.5243755255814341,3.517617991927944,-0.009191260753547821,0.442,0.9999999999999973,-6.172612040276393,0.22352150192027564,45,2026-10-07 20:16:24.408243,28.8,0.4351521254383114,0.061645054110589376,0.09109045893057108
0515,cdot_cos,Q,P-Q,46,9,8426,-0.02357304489732277,-0.015238227992233554,-0.046475952473037985,0.20775561810510534,1078.0,0.6688152517934963,0.5246328938235764,3.5582334423345654,-0.003388388165956502,0.102,0.9999999999999961,22.546964377925057,0.22848864746364045,46,2026-10-07 20:16:24.510243,28.8,0.18040046402977516,0.2721162166302049,0.13953181359263328
0515,cdot_cos,R,Q-R,47,9,8456,0.28899579001045045,0.2814155467046374,0.3125688349077732,0.9998768497746052,1078.0,0.7100947149996095,0.5258713586321848,3.605192437045075,-0.010237412519432684,0.03,0.9999999999999966,-5.530253508916246,0.2334557882348703,47,2026-10-07 20:16:24.540244,28.8,0.5122107668203704,0.8133303141875197,1.37598210687044
0515,cdot_cos,S,R-S,48,9,8512,-0.011981870338025478,-0.0630144079081488,-0.30097766034847595,0.00017194625875375063,1078.0,0.7176150706447475,0.5258715715808708,3.643345159194578,-0.0019310723637898238,0.056,0.9999999999999962,39006.29917452584,0.23842293115640206,48,2026-10-07 20:16:24.596244,28.8,0.01354939746816868,0.1845670643137751,0.1342920650917496
0515,cdot_cos,T,S-T,49,9,8723,-0.06844695736581229,0.07498139052472795,-0.05646508702778681,0.1643523428291591,1078.0,0.7307662262027523,0.5260751111857597,3.6825258174266704,-0.00342569456374948,0.211,0.9999999999999957,-7.343151721140216,0.24339008595305556,49,2026-10-07 20:16:24.807244,28.8,0.6464253431219327,0.12490248964445709,0.06232775145973855
0515,cdot_cos,P,T-P,50,10,9402,0.014075256393218622,0.0014292497142449716,0.0825222137590309,0.9150285349941387,899.0,0.7703239212747084,0.5272081537646598,3.7279246497699865,-0.010676634909735196,0.679,0.9999999999999956,-6.399530327469611,0.24835727891308582,50,2026-10-07 20:16:25.486243,28.8,0.5070523710799671,0.04201711472757361,0.058258755628801256
0515,cdot_cos,Q,P-Q,51,10,9509,-0.019185641357236816,-0.017109700124988927,-0.03326089775045544,0.2772960701717998,899.0,0.7878254680027973,0.5275514634076032,3.7674710778138225,-0.004902859056777663,0.107,0.9999999999999946,16.81798333264348,0.25332442554376916,51,2026-10-07 20:16:25.593244,28.8,0.3080064744362772,0.28505002213768277,0.1635658572718589
0515,cdot_cos,R,Q-R,52,10,9538,0.2844800845092006,0.40534456885200254,0.3036657258664374,0.9998408609256634,899.0,0.8313246260121725,0.5287891094089763,3.8131525575961764,-0.012659318425416068,0.029,0.9999999999999946,-6.267106555536082,0.2582915656860454,52,2026-10-07 20:16:25.622243,28.8,0.5418817352837663,0.8873812593144581,1.4999709658405243
0515,cdot_cos,S,R-S,53,10,9591,0.010468342978405548,-0.06785314460446448,-0.27401174153079505,0.00037375428059385746,899.0,0.8392935810430359,0.5287895719928708,3.8496462545243753,-0.0023928799159505534,0.053,0.9999999999999937,22193.679094813015,0.26325870829842596,53,2026-10-07 20:16:25.675244,28.8,0.013699292606084185,0.1630687237379689,0.15035764209176164
0515,cdot_cos,T,S-T,54,10,9819,-0.10049441710714897,0.0334150224124169,-0.11096276008555452,0.039326821834348324,899.0,0.8486099107283972,0.5288382452844161,3.8861516354428947,-0.002826375694687585,0.228,0.9999999999999931,-8.906235123490688,0.26822586742196936,54,2026-10-07 20:16:25.903244,28.8,0.85780786010273,0.11565047543283348,0.040861095111233925
0515,cdot_cos,P,T-P,55,11,10301,0.01611709383999742,-0.0004919889657315927,0.11661151094714639,0.966379204372075,858.0,0.8920301978404079,0.5300341210044623,3.9308383161301967,-0.013580519267033634,0.482,0.9999999999999926,-8.992693297536443,0.2731930521600391,55,2026-10-07 20:16:26.385243,28.8,0.4529923027156116,0.0635954908382103,0.09008358321993928
0515,cdot_cos,Q,P-Q,56,11,10389,-0.01948384507386344,-0.014442215536050068,-0.03560093891386086,0.26399494324291023,858.0,0.9099159638964319,0.5303607502990314,3.9688565228062354,-0.005790681273832569,0.088,0.9999999999999916,23.849171285994608,0.2781601979971505,56,2026-10-07 20:16:26.473243,28.8,0.26047799927359927,0.3606460781510114,0.20324734154572716
0515,cdot_cos,R,Q-R,57,11,10420,0.33307036953225655,0.4015059924067345,0.35255421460611996,0.9999610643516539,858.0,0.9555039075949859,0.5315977198440334,4.013474858167283,-0.015274719870778055,0.031,0.9999999999999915,-7.667156103613224,0.28312733812178703,57,2026-10-07 20:16:26.504243,28.8,0.5374617358973367,0.8699279352570257,1.4705788289856132
0515,cdot_cos,S,R-S,58,11,10470,-0.0022589479075641287,-0.019423769681556353,-0.3353293174398207,6.394109523292073e-05,858.0,0.9638514958823675,0.5315977989280486,4.048528307838915,-0.002877816281243966,0.05,0.9999999999999903,156756.122640003,0.28809448064184956,58,2026-10-07 20:16:26.554244,28.8,0.013463853536926558,0.16623271008688878,0.1669517657476316
0515,cdot_cos,T,S-T,59,11,10700,-0.34237533489496486,-0.06905719747957631,-0.3401163869874007,5.570683800711363e-05,858.0,0.9721271786036748,0.5315978678277183,4.0832807909600035,-0.002877736585275489,0.23,0.9999999999999891,1.1566959430891306,0.29306164361078735,59,2026-10-07 20:16:26.784243,28.8,0.9999723064072835,0.1194648835310264,0.03598122922307521
0515,cdot_cos,P,T-P,60,12,11159,0.026678041269253647,0.0006719889129563631,0.3690533761642185,0.9999757904032482,880.0,1.0188053423066397,0.5328344673243508,4.127318134071226,-0.01668698781621637,0.459,0.9999999999999892,-11.167116975663152,0.2980288343002388,60,2026-10-07 20:16:27.243244,28.8,0.4371206335767677,0.06921259997130483,0.10169534575809334
0515,cdot_cos,Q,P-Q,61,12,11249,-0.017954956605211753,-0.013265498814653762,-0.0446329978744654,0.21662727765664003,880.0,1.0356643453773327,0.5331023023648213,4.16366220010996,-0.006218826787668889,0.09,0.9999999999999872,39.084359575058116,0.3029959813194401,61,2026-10-07 20:16:27.333244,28.8,0.18575965998457894,0.35790857539248244,0.18732225634103322
0515,cdot_cos,R,Q-R,62,12,11280,0.3394842895048454,0.4043807423255813,0.3574392461100571,0.9999661741114233,880.0,1.0832288858772865,0.534338397342057,4.2073848670082885,-0.018089382126894413,0.031,0.9999999999999869,-9.603271235492999,0.3079631212388332,62,2026-10-07 20:16:27.364243,28.8,0.5188104218246435,0.9075414135098688,1.5343400161275433
0515,cdot_cos,S,R-S,63,12,11329,0.0002903576244248007,-0.02263070663805295,-0.3391939318804206,5.7206533371145076e-05,880.0,1.0919319130149445,0.5343384680452412,4.241180226643377,-0.003397762761776549,0.049,0.9999999999999863,207792.89549880702,0.312930263833027,63,2026-10-07 20:16:27.413243,28.8,0.013247986500213698,0.18157552686250558,0.17761279872771482
0515,cdot_cos,T,S-T,64,12,11558,-0.15417383850977875,0.06745448972309914,-0.15446419613420356,0.011560094048878752,880.0,1.101023287509812,0.5343527554664751,4.274822164755606,-0.003578400461500799,0.229,0.9999999999999847,-12.64312829916888,0.3178974306226216,64,2026-10-07 20:16:27.642244,28.8,0.9507729321367153,0.12515459554012445,0.039700325305098344
0515,cdot_cos,P,T-P,65,13,12039,0.006724514507898324,0.0002655710574628021,0.16089835301767708,0.9903764563190791,897.0,1.1492527177723215,0.5355765758169195,4.317956529855825,-0.01947278877525358,0.481,0.9999999999999845,-12.987517578033932,0.3228646332371921,65,2026-10-07 20:16:28.123244,28.8,0.4420926290752496,0.07149759103165322,0.10026908578484299
0515,cdot_cos,Q,P-Q,66,13,12133,-0.024189643023799258,-0.018520190669057305,-0.030914157531697583,0.2910421986705394,897.0,1.1698039700822624,0.5359361394635924,4.353965934756806,-0.008550371608312683,0.094,0.9999999999999823,30.37686726121538,0.32783178185604,66,2026-10-07 20:16:28.217243,28.8,0.2787555150202961,0.3725270401444854,0.21863034372277582
0515,cdot_cos,R,Q-R,67,13,12165,0.3083047059520102,0.38163116274426,0.3324943489758095,0.9999306196334543,897.0,1.2192878013194848,0.5371712015565355,4.396935943036913,-0.02120185140459625,0.032,0.9999999999999818,-10.243598170951524,0.3327989216672468,67,2026-10-07 20:16:28.249243,28.8,0.5506170043254607,0.9149321160792124,1.546369726163198
0515,cdot_cos,S,R-S,68,13,12224,0.0038082869183877666,-0.07135123698921265,-0.30449641903362246,0.00015537760259812504,897.0,1.228359625511332,0.5371713934357951,4.429628948555245,-0.0039821819442610665,0.059,0.9999999999999808,89742.21339462776,0.3377660660100541,68,2026-10-07 20:16:28.308243,28.8,0.013244412907349715,0.16241461770911605,0.1537597320652079
0515,cdot_cos,T,S-T,69,13,12438,-0.12130218236654397,0.05308489601373953,-0.12511046928493175,0.0265147493768263,897.0,1.2384527262091605,0.5372041369286406,4.462352865782042,-0.004465129716820186,0.214,0.9999999999999789,-14.749427461477485,0.34273323479843365,69,2026-10-07 20:16:28.522244,28.8,0.8974841196830352,0.1394904738451196,0.04716402195246929
0515,cdot_cos,P,T-P,70,14,12936,0.011352631833529435,1.4921270340488656e-05,0.1326548142000734,0.9785523383636939,839.0,1.2880615483170432,0.5384123402548076,4.504681003899674,-0.022469551698157963,0.498,0.9999999999999785,-14.90181461298937,0.34770045061758686,70,2026-10-07 20:16:29.020243,28.8,0.44875379959927014,0.06996480179953217,0.09961610865036698
0515,cdot_cos,Q,P-Q,71,14,13030,-0.024852924596212436,-0.020962619188453855,-0.03620555642974187,0.2606255042957755,839.0,1.3081376688014945,0.538734055014401,4.5394540412611315,-0.009343039201117391,0.094,0.999999999999976,40.80171053895652,0.3526676004094741,71,2026-10-07 20:16:29.114244,28.8,0.24537907373494536,0.37978508747266276,0.21357574983458816
0515,cdot_cos,R,Q-R,72,14,13062,0.29541441669581053,0.4143599315202927,0.32026734129202294,0.9999013367575017,839.0,1.3594611447619038,0.5399680263507777,4.58178084751209,-0.02453223859028032,0.032,0.9999999999999755,-12.309199526273272,0.3576347399163156,72,2026-10-07 20:16:29.146244,28.8,0.538400483107682,0.9491464736205296,1.603858623762791
0515,cdot_cos,S,R-S,73,14,13121,0.016446692019586293,-0.08786857252306647,-0.2789677246762242,0.0003240558828619514,839.0,1.3688830431132084,0.5399684261873157,4.613492467442034,-0.00460615046527892,0.059,0.9999999999999732,49835.585875119345,0.3626018846454519,73,2026-10-07 20:16:29.205244,28.8,0.013220664103695694,0.16473421729016957,0.1596931923949929
0515,cdot_cos,T,S-T,74,14,13336,-0.12714515227266696,0.02260184581690726,-0.14359184429225325,0.015743714407243925,839.0,1.3788997824021438,0.5399878515164467,4.64515135382475,-0.004931813084979587,0.215,0.999999999999971,-16.764844369131527,0.36756905783037286,74,2026-10-07 20:16:29.420243,28.8,0.9360999333328777,0.14410578914576327,0.046589485064815944
0515,cdot_cos,P,T-P,75,15,13775,0.039272042852987035,0.0032812877461388143,0.166417195125654,0.9917790552439463,899.0,1.4308485324458866,0.5412113074600521,4.687027640650739,-0.02614367458496132,0.439,0.9999999999999707,-17.337658630741156,0.37253627397861355,75,2026-10-07 20:16:29.859244,28.8,0.4442546652561231,0.07800148178481632,0.11833428255977853
0515,cdot_cos,Q,P-Q,76,15,13868,-0.01770852346504503,-0.013380424440327771,-0.05698056631803207,0.16232355713293756,899.0,1.4473850834092126,0.541411502447413,4.7199163146392165,-0.00852444576309946,0.093,0.9999999999999672,88.01033959006547,0.377503424914277,76,2026-10-07 20:16:29.952243,28.8,0.12657679431343358,0.37425880946306594,0.17781237594974147
0515,cdot_cos,R,Q-R,77,15,13900,0.3279300387754677,0.3985616330430359,0.34563856224051276,0.999952483717203,899.0,1.5004606710060169,0.5426444548793264,4.761686035025652,-0.02801002034355541,0.032,0.9999999999999666,-15.80399541466142,0.38247056420070197,77,2026-10-07 20:16:29.984244,28.8,0.4987429626484261,0.9811050842917154,1.6586121124001345
0515,cdot_cos,S,R-S,78,15,13959,-0.0015487922545939427,-0.020097004179704815,-0.32947883103006165,7.567474965068304e-05,899.0,1.5101758088038824,0.5426445481675533,4.792507154296618,-0.0052362591514058,0.059,0.9999999999999643,244122.5647745412,0.3874377094129463,78,2026-10-07 20:16:30.043243,28.8,0.012916592331974572,0.1692700696516941,0.1646633525061946
0515,cdot_cos,T,S-T,79,15,14173,-0.1498028337491371,0.07069474095071886,-0.14825404149454316,0.013792845739921346,899.0,1.5204345392249168,0.5426615512808706,4.823281643587207,-0.005565895250338135,0.214,0.9999999999999618,-19.38680833213317,0.3924048868297356,79,2026-10-07 20:16:30.257244,28.8,0.9424953693345505,0.14924451412866963,0.047937992621656184
0515,cdot_cos,P,T-P,80,16,14674,0.0132248537202789,-0.0005006870535098488,0.163027687469416,0.9909437029240484,839.0,1.574052460850953,0.5438828733926003,4.864636597145475,-0.02969100788746271,0.501,0.9999999999999613,-19.75327590111025,0.3973721264679293,80,2026-10-07 20:16:30.758244,28.8,0.4437298431783032,0.07430620231208594,0.10702179965276683
0515,cdot_cos,Q,P-Q,81,16,14763,-0.025531449537201326,-0.01914882031337789,-0.038756303257480224,0.2467202565540885,839.0,1.594889353941627,0.5441868706715957,4.897682169792325,-0.011814807742890298,0.089,0.9999999999999575,58.803816282997694,0.40233927774531103,81,2026-10-07 20:16:30.847244,28.8,0.22024085858149203,0.4248840995315078,0.23412239427723525
0515,cdot_cos,R,Q-R,82,16,14793,0.32769834270357395,0.4099580674281272,0.3532297922407753,0.999961814557551,839.0,1.6496818305675613,0.545418637890801,4.938976167794055,-0.03179540610201657,0.03,0.9999999999999568,-16.22108304848055,0.4073064162170283,82,2026-10-07 20:16:30.877243,28.8,0.5334385034876368,1.0804518696868457,1.8264158875311485
0515,cdot_cos,S,R-S,83,16,14844,0.018191274800573105,-0.10048318843130002,-0.30950706790300087,0.00013450111543389682,839.0,1.6597164661228376,0.545418803534152,4.969002123579438,-0.005939320481789342,0.051,0.9999999999999541,156094.92005514694,0.41227355997504816,83,2026-10-07 20:16:30.928244,28.8,0.01286333348856389,0.2192099852290325,0.19675755990737812
0515,cdot_cos,T,S-T,84,16,15072,-0.08277954884398929,0.02131927131049884,-0.10097082364456239,0.05176148538569373,839.0,1.6720412490609227,0.5454825490683906,4.999430487241862,-0.007343932173379433,0.228,0.9999999999999509,-22.03466812800692,0.41724074553975266,84,2026-10-07 20:16:31.156243,28.8,0.8259165593073831,0.14396340724123477,0.05405606551791681
0515,cdot_cos,P,T-P,85,17,15513,0.017805358504523576,-0.00022768640232635176,0.10058490734851286,0.9476902699012524,819.0,1.7253637798248407,0.5466493871793118,5.039858694023189,-0.032385133335347385,0.441,0.9999999999999497,-21.460733007938774,0.4222079837334599,85,2026-10-07 20:16:31.597243,28.8,0.4615193144321226,0.08498601936157098,0.1209127681721497
0515,cdot_cos,Q,P-Q,86,17,15606,-0.020342514984654385,-0.017557716070360357,-0.03814787348917796,0.2499912873849252,819.0,1.7469989181378283,0.546957102605214,5.0722719143886525,-0.01342832642841849,0.093,0.9999999999999455,61.60499380668405,0.42717513741322155,86,2026-10-07 20:16:31.690243,28.8,0.24372789359155045,0.41983555234635483,0.2326358958385761
0515,cdot_cos,R,Q-R,87,17,15638,0.3065618259138607,0.44671304437223414,0.3269043408985151,0.9999185015470129,819.0,1.8034531925612627,0.5481875457834819,5.113153451169845,-0.03581066525065317,0.032,0.9999999999999445,-18.19046926956994,0.4321422761043264,87,2026-10-07 20:16:31.722244,28.8,0.5352513686870232,1.043693657517105,1.7641960757323258
0515,cdot_cos,S,R-S,88,17,15697,0.0012093705155103666,-0.02737985324267953,-0.3053524553983504,0.0001515943550421318,819.0,1.813795312218923,0.5481877322826554,5.1424571785720925,-0.006683743557574279,0.059,0.9999999999999414,156177.21599592865,0.4371094223216126,88,2026-10-07 20:16:31.781244,28.8,0.012805565350827903,0.1755970573824971,0.1752901636891576
0515,cdot_cos,T,S-T,89,17,15912,-0.21163539897978087,-0.06683000169663848,-0.21284476949529124,0.0021720068339570664,819.0,1.8241736453323973,0.5481904043957015,5.171618357624906,-0.006745560129531274,0.215,0.9999999999999373,-23.13396584987915,0.4420766099471503,89,2026-10-07 20:16:31.996243,28.8,0.9908778234424598,0.15744103542503837,0.04827131680685748
0515,cdot_cos,P,T-P,90,18,16332,0.05666715643860412,0.00011217540578141585,0.268302555418385,0.9995594797809111,916.0,1.8814949574516895,0.5494198158822087,5.212254479263404,-0.03793181682401629,0.42,0.9999999999999368,-25.366817405528003,0.4470438543883164,90,2026-10-07 20:16:32.416243,28.8,0.439478635674559,0.08700777389490377,0.13647931456974322
0515,cdot_cos,Q,P-Q,91,18,16421,-0.014972990256859166,-0.010454011076016812,-0.07164014669546329,0.11272175134823127,916.0,1.8972601754041165,0.5495584208005416,5.242453710297918,-0.010637647837637904,0.089,0.9999999999999318,196.92063827643761,0.45201100852407816,91,2026-10-07 20:16:32.505243,28.8,0.07685700481238207,0.4146244900548134,0.1771372803643486
0515,cdot_cos,R,Q-R,92,18,16453,0.3511405023768763,0.392634786787589,0.36611349263373544,0.9999736513873919,916.0,1.9552981166814463,0.5507876691858493,5.282970241273589,-0.039906315415506974,0.032,0.9999999999999302,-23.8102143779045,0.45697814697451994,92,2026-10-07 20:16:32.537244,28.8,0.48025672368194766,1.4466644497010301,1.8136856649165547
0515,cdot_cos,S,R-S,93,18,16501,0.3511405023768763,0.392634786787589,0.0,0.5,916.0,1.9898467001849824,0.551402077971997,5.3175295784451855,-0.02431998979228637,0.048,0.9999999999999285,25.368005755492916,0.4619452906994702,93,2026-10-07 20:16:32.585243,28.8,0.5268257824748938,0.4710217363435483,0.7197621563236704
0515,cdot_cos,T,S-T,94,18,16728,-0.2576309187190708,0.0676744759165349,-0.6087714210959471,2.4304192955703134e-08,916.0,2.000516203370427,0.5514020780018587,5.346042007604606,-0.00759673174742564,0.227,0.999999999999924,560024230.9495885,0.46691248868859164,94,2026-10-07 20:16:32.812243,28.8,0.11065086947008992,0.15346407851932772,0.04700221667596679
0515,cdot_cos,P,T-P,95,19,17248,0.007264433576701578,-0.00040221373643014837,0.2648953522957724,0.9995140827332021,900.0,2.0595193918327572,0.5526298264663189,5.386369811892132,-0.0427219634275578,0.52,0.999999999999923,-28.609469037761365,0.47187977838320727,95,2026-10-07 20:16:33.332243,28.8,0.4394716562225862,0.08005574885145075,0.113467670119866
0515,cdot_cos,Q,P-Q,96,19,17333,-0.026182176267858456,-0.016688014578972128,-0.033446609844560035,0.27622549103192817,900.0,2.0837741821759357,0.5529690142546375,5.417968333001915,-0.017919512538049454,0.085,0.999999999999917,73.12306558102735,0.47684693308163134,96,2026-10-07 20:16:33.417243,28.8,0.25054844339469345,0.4941119655959943,0.2853504746256289
0515,cdot_cos,R,Q-R,97,19,17362,0.33886895733836747,0.35151921522017854,0.36505113360622593,0.9999728327896973,900.0,2.1435184259840763,0.5541965044159739,5.458203195185516,-0.04501011926818524,0.029,0.9999999999999158,-22.069917611919468,0.4818140702409636,97,2026-10-07 20:16:33.446244,28.8,0.5477818600012176,1.2201326678370061,2.060146338211744
0515,cdot_cos,S,R-S,98,19,17419,-0.0014315916267156827,-0.07793683356535715,-0.34030054896508316,5.5412174950588044e-05,900.0,2.154541876910482,0.5541965724175495,5.4862667930427635,-0.008443876243648054,0.057,0.9999999999999108,537726.4086282362,0.48678121719441997,98,2026-10-07 20:16:33.503244,28.8,0.01316090776816057,0.2115924804627536,0.1933938759018557
0515,cdot_cos,T,S-T,99,19,17630,-0.10902022413198646,0.05686233438302985,-0.10758863250527077,0.04316699760302637,900.0,2.16763996875683,0.5542495461493115,5.514713991376483,-0.010089107460884527,0.211,0.9999999999999056,-31.057491373772837,0.4917484159537789,99,2026-10-07 20:16:33.714243,28.8,0.8495316800772447,0.170653870217776,0.06207626467463572
0515,cdot_cos,P,T-P,100,20,18148,0.007508097549111049,-0.00047590920572909554,0.11652832168109752,0.9663012750898716,840.0,2.2265578101423835,0.5554350482423186,5.554351151830981,-0.046114707830962366,0.518,0.9999999999999043,-30.388474708381267,0.4967157213770847,100,2026-10-07 20:16:34.232243,28.8,0.4578484043734531,0.07779991309695714,0.11374100653581726
0515,cdot_cos,Q,P-Q,101,20,18234,-0.03810169798770424,-0.022996493588353747,-0.04560979553681529,0.21189138445150774,840.0,2.2482406787252778,0.5556949223173517,5.584665607817276,-0.01728034709109639,0.086,0.9999999999998969,110.95512600165662,0.5016828777017832,101,2026-10-07 20:16:34.318244,28.8,0.18850672072979785,0.48226723029295665,0.2521263788708634
0515,cdot_cos,R,Q-R,102,20,18263,0.33442562851002305,0.38991780195682874,0.3725273264977273,0.9999780952907078,840.0,2.309507773752772,0.5569209314571164,5.62462646417972,-0.04970464161609577,0.029,0.9999999999998954,-26.447025126764636,0.5066500142128871,102,2026-10-07 20:16:34.347244,28.8,0.5208259466704863,1.2511144187297534,2.1126584492239404
0515,cdot_cos,S,R-S,103,20,18317,0.006987459060794396,-0.07914947640126081,-0.32743816944922866,8.025515682515376e-05,840.0,2.3208053150116035,0.5569210298252084,5.652131910348745,-0.009311370172023992,0.054,0.9999999999998892,410633.8815834213,0.51161716040194,103,2026-10-07 20:16:34.401243,28.8,0.013061859109052786,0.22508464013202442,0.20921372701539673
0515,cdot_cos,T,S-T,104,20,18529,-0.1081820253227882,0.03313789387291581,-0.1151694843835826,0.03499658515687715,840.0,2.3338169148870307,0.5569639244290303,5.679940613025244,-0.01078017566083496,0.212,0.999999999999883,-34.24219733814557,0.5165843652227896,104,2026-10-07 20:16:34.613244,28.8,0.8726239184944808,0.17652098811918474,0.06137547111050574
0515,cdot_cos,P,T-P,105,21,18988,0.07509179059661004,0.0004590377979674095,0.18327381591939823,0.9949247226171335,878.0,2.395650213974138,0.5581830257147672,5.71967479452528,-0.05202333417089496,0.459,0.9999999999998815,-33.83078911702633,0.5215516648838989,105,2026-10-07 20:16:35.072243,28.8,0.4525839919894069,0.08391947867177912,0.13471306990655144
0515,cdot_cos,Q,P-Q,106,21,19077,-0.012257302448703655,-0.008799751707959925,-0.0873490930453137,0.07476804504941567,878.0,2.410854996307724,0.5582746123688713,5.747789822983145,-0.013000330783349709,0.089,0.999999999999873,426.0773992592306,0.5265188238605829,106,2026-10-07 20:16:35.161243,28.8,0.04970284452323662,0.43773410648481276,0.17084025093917002
0515,cdot_cos,R,Q-R,107,21,19106,0.27292109912401447,0.5517986231707102,0.2851784015727181,0.9997290046774895,878.0,2.4735668849284345,0.5594988409546517,5.787501922961476,-0.054457013839532324,0.029,0.9999999999998711,-33.863514982175424,0.5314859598544185,107,2026-10-07 20:16:35.190243,28.8,0.46707121975409455,1.3045091216806555,2.1624789179555353
0515,cdot_cos,S,R-S,108,21,19156,0.14906874931928327,0.5949072332667058,-0.1238523498047312,0.027466226671344535,878.0,2.486516525365202,0.5595324648677976,5.814832857552815,-0.011419061840988414,0.05,0.9999999999998633,1279.980465445141,0.5364531047980556,108,2026-10-07 20:16:35.240243,28.8,0.023076121275243652,0.24434785262946512,0.2589928087353499
0515,cdot_cos,T,S-T,109,21,19385,-0.3859455548083256,0.028292967631820286,-0.5350143041276089,2.0333475793989812e-07,878.0,2.498001670191381,0.5595324651167163,5.841691355523197,-0.010177553615296004,0.229,0.9999999999998566,4987606.025356808,0.5414203223456051,109,2026-10-07 20:16:35.469243,28.8,0.8851617025394873,0.1637842850350018,0.05015347085667693
0515,cdot_cos,P,T-P,110,22,19866,0.016265431757413656,-0.0002364601433132894,0.4022109865657393,0.999990683147771,839.0,2.561529727911233,0.5607562705762781,5.881262343937367,-0.05710841530273754,0.481,0.9999999999998544,-38.348302273668374,0.5463876454470619,110,2026-10-07 20:16:35.950243,28.8,0.43964601112002355,0.09181429989566624,0.132074964074536
0515,cdot_cos,Q,P-Q,111,22,19956,-0.02153868250463827,-0.01724751230449,-0.03780411426205192,0.2518521347641911,839.0,2.586327026691012,0.5610643756258177,5.911181053279195,-0.022677171502466037,0.09,0.9999999999998456,111.7516374746932,0.5513548064101524,111,2026-10-07 20:16:36.040244,28.8,0.21907923792264958,0.4943670639255185,0.27552554199754553
0515,cdot_cos,R,Q-R,112,22,19988,0.3233131434573064,0.4281479963931487,0.34485182596194464,0.9999513948562426,839.0,2.650515799417826,0.5622872063868424,5.950689527198477,-0.0596788683669425,0.032,0.9999999999998438,-30.25904977518732,0.5563219431290399,112,2026-10-07 20:16:36.072243,28.8,0.537937240183196,1.187508499316453,2.0058991477129444
0515,cdot_cos,S,R-S,113,22,20036,0.0043903074023197266,-0.048171594895389684,-0.31892283605498667,0.00010255818705898483,839.0,2.662327570647265,0.5622873317656971,5.977197401144984,-0.011141252009792659,0.048,0.9999999999998354,387127.60980871174,0.5612890874210003,113,2026-10-07 20:16:36.120243,28.8,0.01282232489596559,0.2537225611417883,0.2460785672799744
0515,cdot_cos,T,S-T,114,22,20265,-0.1410943307159604,0.03928875917631342,-0.1454846381182801,0.014920921313056765,839.0,2.674873165287438,0.5623055727212369,6.003781683880599,-0.011887560354204884,0.229,0.9999999999998272,-40.91388429642143,0.5662563121059447,114,2026-10-07 20:16:36.349244,28.8,0.9391494868328221,0.16793218430824036,0.05478425607062405
0515,cdot_cos,P,T-P,115,23,20705,0.013944328853695304,-0.0002204661167879397,0.1550386595696557,0.9886274318489752,819.0,2.739240511060439,0.5635138006403833,6.0430134100987685,-0.0618318966730776,0.44,0.9999999999998253,-41.336850049087694,0.5712236336817865,115,2026-10-07 20:16:36.789243,28.8,0.4458628510488519,0.10244740426977166,0.14628942221136632
0515,cdot_cos,Q,P-Q,116,23,20796,-0.022398969407586497,-0.018949643111455704,-0.0363432982612818,0.25986179699110207,819.0,2.765026881044837,0.5638312601802125,6.072649749630352,-0.025178969365381495,0.091,0.9999999999998159,115.45700383556284,0.5761907970363266,116,2026-10-07 20:16:36.880243,28.8,0.23323795229049696,0.50221470907176,0.28336670312525136
0515,cdot_cos,R,Q-R,117,23,20829,0.30909749522637286,0.4405548215302693,0.3314964646339594,0.9999285969224841,819.0,2.8306435881114993,0.5650523304374004,6.111976699427511,-0.06509337097574842,0.033,0.9999999999998139,-32.68804671590826,0.581157933887379,117,2026-10-07 20:16:36.913243,28.8,0.5416220267174122,1.1772256714809672,1.9883850626261348
0515,cdot_cos,S,R-S,118,23,20888,0.007700232622344058,-0.05310740275063756,-0.3013972626040288,0.00016988122209896786,819.0,2.8427237753625807,0.5650525378225079,6.13804293486284,-0.01215023692197026,0.059,0.9999999999998042,255288.98729692565,0.5861250838132468,118,2026-10-07 20:16:36.972243,28.8,0.012811979783324441,0.2091134805563809,0.20474893645900674
0515,cdot_cos,T,S-T,119,23,21104,-0.14975981097613034,0.02263709083030017,-0.1574600435984744,0.010614644892801832,819.0,2.8553189788171522,0.5650654957679068,6.1641380800365555,-0.012723250692547537,0.216,0.9999999999997949,-44.22103604678385,0.5910923097631932,119,2026-10-07 20:16:37.188244,28.8,0.9559623563371386,0.18200767004990495,0.0583111271044979
0515,cdot_cos,P,T-P,120,24,21524,0.024997079689520422,-0.0008237128119402966,0.17475689066565075,0.9935229915003864,858.0,2.9213510888241396,0.5662779540344479,6.2032654967503245,-0.06758003479635068,0.42,0.9999999999997934,-45.24426581732687,0.5960596377153343,120,2026-10-07 20:16:37.608243,28.8,0.444088848084367,0.1078223495886472,0.15721930954044616
0515,cdot_cos,Q,P-Q,121,24,21612,-0.017591606571890843,-0.01285687185551743,-0.04258868626141127,0.22678509655207424,858.0,2.945889752471616,0.566554603431735,6.232102055809543,-0.025503836699483286,0.088,0.9999999999997821,152.09213723028736,0.6010268016584425,121,2026-10-07 20:16:37.696243,28.8,0.1920885611243394,0.5201670688118054,0.2788484505395029
0515,cdot_cos,R,Q-R,122,24,21642,0.3540306299723633,0.4232900156770249,0.37162223654425414,0.9999775168157741,858.0,3.0129004929350174,0.567773953762382,6.27126973118988,-0.07068600427678873,0.03,0.99999999999978,-37.05429558815197,0.605993936713442,122,2026-10-07 20:16:37.726244,28.8,0.5277168632175472,1.322258525437333,2.23369134878005
0515,cdot_cos,S,R-S,123,24,21694,-0.0004171677047627041,-0.0012558374884262525,-0.354447797677126,3.686922215131305e-05,858.0,3.025225263997856,0.5677739987048486,6.29691969847832,-0.013173826733276536,0.052,0.9999999999997699,1279684.4941771952,0.6109610838200631,123,2026-10-07 20:16:37.778244,28.8,0.012706527533328975,0.24070665545890163,0.23701482813150904
0515,cdot_cos,T,S-T,124,24,21923,-0.1683105632815638,0.061402677050931956,-0.16789339557680108,0.007881457166318709,858.0,3.037933985102743,0.5677836059371288,6.322572101690937,-0.013640473647546813,0.229,0.9999999999997595,-48.57246089786526,0.6159283239528209,124,2026-10-07 20:16:38.007244,28.8,0.9663680988410395,0.17509462362218406,0.05549659871129825
0515,cdot_cos,P,T-P,125,25,22382,0.015812457733644248,-0.000635910396290912,0.18412302101520805,0.9950467362540443,839.0,3.105418601616816,0.5689961226696177,6.361571554269202,-0.07334072963315566,0.459,0.9999999999997574,-49.236645058962424,0.6208956885994769,125,2026-10-07 20:16:38.466244,28.8,0.4430767383664035,0.10054135038315856,0.14702530830952723
0515,cdot_cos,Q,P-Q,126,25,22471,-0.02759738468518041,-0.02126222527306078,-0.04340984241882466,0.2226649206247497,839.0,3.1302309447544827,0.5692673388758787,6.390011667753529,-0.02736642546074888,0.089,0.9999999999997453,169.5116409385157,0.6258628549322441,126,2026-10-07 20:16:38.555244,28.8,0.18638276565036913,0.5235014140223587,0.27879037233333215
0515,cdot_cos,R,Q-R,127,25,22503,0.3139203614843054,0.40432470104681356,0.3415177461694858,0.9999464965593305,839.0,3.198601853312796,0.5704848055634155,6.429038909677932,-0.0764825043723062,0.032,0.9999999999997425,-40.34285242820678,0.6308299905181637,127,2026-10-07 20:16:38.587244,28.8,0.5261404345430293,1.2649680365528562,2.1365908924472903
0515,cdot_cos,S,R-S,128,25,22553,0.03611214804862874,-0.15835679123958887,-0.2778082134356767,0.00033505640757291295,839.0,3.2111888990938655,0.5704852133632312,6.454305067350383,-0.014260498887875558,0.05,0.9999999999997311,152579.77833703236,0.63579713685726,128,2026-10-07 20:16:38.637243,28.8,0.012737029166928027,0.292362781903055,0.2517409156213901
0515,cdot_cos,T,S-T,129,25,22780,-0.05202919471455359,0.011773535591693666,-0.08814134276318233,0.07320486440381517,839.0,3.2278381315031015,0.5705743092903766,6.48048008378264,-0.01894781929323705,0.227,0.9999999999997202,-52.60981680694531,0.6407643839558086,129,2026-10-07 20:16:38.864243,28.8,0.7808435509821031,0.18077047427611073,0.0733446361640352
0515,cdot_cos,P,T-P,130,26,23221,0.04035014601607436,0.00543364462770968,0.09237934073062795,0.9346567382869236,918.0,3.29325869441522,0.5717114543281314,6.518515240370685,-0.07535165411437272,0.441,0.9999999999997173,-49.60126716333162,0.6457317564547043,130,2026-10-07 20:16:39.305243,28.8,0.47305603577428257,0.09947140361728057,0.14834594764652673
0515,cdot_cos,Q,P-Q,131,26,23310,-0.014681227880296235,-0.010325009115864786,-0.0550313738963706,0.1701021378266139,918.0,3.315571909493543,0.5719183270937033,6.545906320898148,-0.026043056068993396,0.089,0.9999999999997036,238.35229305837777,0.6506989247839404,131,2026-10-07 20:16:39.394243,28.8,0.15056669316605575,0.5169125889341672,0.25071028177891214
0515,cdot_cos,R,Q-R,132,26,23342,0.3462459500610469,0.3896888644362564,0.36092717794134316,0.999969406815983,918.0,3.3852691352455015,0.5731339472551586,6.5848096239274705,-0.08242084576533393,0.032,0.999999999999701,-46.377800799917075,0.6556660599050372,132,2026-10-07 20:16:39.426244,28.8,0.5045827489777778,1.7365303493933892,2.1780383047487057
0515,cdot_cos,S,R-S,133,26,23390,0.3462459500610469,0.3896888644362564,0.0,0.5,918.0,3.42670985185472,0.5737414457295693,6.616711033411856,-0.0498005800166233,0.048,0.9999999999996935,53.69604554209914,0.6606332056048392,133,2026-10-07 20:16:39.474244,28.8,0.5194328229891758,0.5656143099263868,0.8633482626920486
0515,cdot_cos,T,S-T,134,26,23620,-0.37540939716321364,0.06590463113251993,-0.7216553472242606,9.413802175919354e-10,918.0,3.4395681089984347,0.573741445730713,6.6415393079728045,-0.015575333751589024,0.23,0.999999999999681,29926571464.10481,0.665600464723456,134,2026-10-07 20:16:39.704243,28.8,0.11109156521422181,0.18126264429396494,0.05590546584223827
0515,cdot_cos,P,T-P,135,27,24139,0.003444367339643269,-1.9691718665292432e-05,0.3788537645028569,0.9999817438157813,901.0,3.5100906682299438,0.5749557513403998,6.680384133555927,-0.08639818486750399,0.519,0.9999999999996779,-58.3237453166179,0.6705679080430984,135,2026-10-07 20:16:40.223244,28.8,0.440552284926431,0.0925327410202777,0.13588161701639512
0515,cdot_cos,Q,P-Q,136,27,24228,-0.041185359878637424,-0.022496593780273026,-0.04462972721828069,0.21664326294812505,901.0,3.535617094177483,0.5752187086325562,6.708147407230032,-0.03169987429780862,0.089,0.9999999999996625,208.01214570295494,0.6755350789229907,136,2026-10-07 20:16:40.312243,28.8,0.17808299053092078,0.5429138644663332,0.2868137746914515
0515,cdot_cos,R,Q-R,137,27,24257,0.3252122647661774,0.3536404440698812,0.3663976246448148,0.9999738661127575,901.0,3.606729336104951,0.576431903176105,6.746964639417276,-0.08945426142441472,0.029,0.999999999999659,-47.60521503638035,0.6805022115345016,137,2026-10-07 20:16:40.341243,28.8,0.5243319193417717,1.452703812626303,2.45214627336097
0515,cdot_cos,S,R-S,138,27,24309,0.0019758973777525522,-0.10358587846315248,-0.3232363673884248,9.057811204579716e-05,901.0,3.6198739153098085,0.5764320130263514,6.77154511288261,-0.016730027853954974,0.052,0.9999999999996442,662030.6825978919,0.6854693600519228,138,2026-10-07 20:16:40.393243,28.8,0.012946517816459823,0.2855542640329065,0.2527803693241818
0515,cdot_cos,T,S-T,139,27,24536,-0.09411903326266233,0.04501459984244955,-0.09609493064041488,0.059104000350019475,901.0,3.6364269795643733,0.576503690862133,6.796880484352265,-0.021153875228292342,0.227,0.9999999999996304,-61.718484188237575,0.690436625589848,139,2026-10-07 20:16:40.620243,28.8,0.8112921601117541,0.18984309245994607,0.07292098790557189
0515,cdot_cos,P,T-P,140,28,25040,0.01872695204936309,0.00013471890632206108,0.11284598531202542,0.9626718325719755,917.0,3.706062679286624,0.5776707069672192,6.835094273461156,-0.08998110829229296,0.504,0.9999999999996267,-58.977106454685824,0.695404080930767,140,2026-10-07 20:16:41.124243,28.8,0.4653769325323404,0.09693019904416995,0.13816607087748153
0515,cdot_cos,Q,P-Q,141,28,25135,-0.019070425999106164,-0.014447112360279202,-0.037797378048469256,0.25188869107159206,917.0,3.7341326202008966,0.5779759209993334,6.863086291953043,-0.03674661362563911,0.095,0.9999999999996091,174.41693063032378,0.7003712578901429,141,2026-10-07 20:16:41.219244,28.8,0.23487750185450273,0.5288152663835907,0.29547306225550124
0515,cdot_cos,R,Q-R,142,28,25167,0.3173774690143227,0.3837906145215115,0.33644789501342887,0.9999380858179653,917.0,3.8065375798995063,0.5791869584173771,6.901811675511034,-0.09599104562926972,0.032,0.9999999999996054,-48.92039760367751,0.7053383916874154,142,2026-10-07 20:16:41.251244,28.8,0.539459768994642,1.340483040500863,2.26265499058155
0515,cdot_cos,S,R-S,143,28,25226,-0.0010239069943917022,-0.025162811604062987,-0.3184013760087144,0.00010410987310390957,917.0,3.819923534792952,0.579187084456798,6.926072697178878,-0.01794836489153194,0.059,0.9999999999995883,619192.6318001064,0.7103055454150677,143,2026-10-07 20:16:41.310244,28.8,0.01293035355733351,0.22732325157061048,0.2268805914143327
0515,cdot_cos,T,S-T,144,28,25438,-0.22113955598297313,0.03943427008149904,-0.22011564898858144,0.001762372056917314,917.0,3.8333617235848383,0.5791892180506996,6.95027315599981,-0.01808175203627111,0.212,0.9999999999995718,-62.517588113651044,0.7152728087854512,144,2026-10-07 20:16:41.522244,28.8,0.9926502497818702,0.203972652268366,0.06338768298059626
0515,cdot_cos,P,T-P,145,29,25957,0.022453193206574223,-0.00045673584404845276,0.24359274918954735,0.999102922819292,717.0,3.906407939354739,0.5803982911540371,6.988923538455641,-0.09931929391995745,0.519,0.9999999999995682,-67.18993389187077,0.7202402970808109,145,2026-10-07 20:16:42.041243,28.8,0.44133846305479074,0.09624974658590921,0.1407441536992308
0515,cdot_cos,Q,P-Q,146,29,26046,-0.020793160863198743,-0.020571719035622195,-0.043246354069772966,0.22348095047173933,717.0,3.933268960541012,0.5806686070687609,7.016248317125168,-0.03698715413126874,0.089,0.9999999999995483,230.58997415070283,0.7252074717874442,146,2026-10-07 20:16:42.130244,28.8,0.1854003909832126,0.5647572323319433,0.30180922681205596
0515,cdot_cos,R,Q-R,147,29,26078,0.3067061127351061,0.5594188257365834,0.3274992735983049,0.9999198859406563,717.0,4.006934726709825,0.5818774854248867,7.054892451027816,-0.10265425300178735,0.032,0.9999999999995436,-54.32068374601951,0.7301746047373181,147,2026-10-07 20:16:42.162244,28.8,0.5274548835918111,1.36379276207442,2.302055192775404
0515,cdot_cos,S,R-S,148,29,26127,0.007895726090874649,-0.028853189367461823,-0.2988103866442315,0.00018301870983495786,717.0,4.020551697313775,0.581877706600428,7.078850698397107,-0.01918402206190545,0.049,0.9999999999995248,377393.58719049324,0.7351417513204007,148,2026-10-07 20:16:42.211244,28.8,0.01289354192245875,0.2783099383996577,0.2778973592642847
0515,cdot_cos,T,S-T,149,29,26357,-0.21547494810937398,-0.14041433022132055,-0.22337067420024864,0.0016049195860316826,717.0,4.034209100672991,0.5818796461218045,7.102749152290652,-0.01930633340959276,0.23,0.9999999999995061,-63.06264482002452,0.7401090365609825,149,2026-10-07 20:16:42.441243,28.8,0.9936847291167548,0.19106396299670797,0.05938001460528914
0515,cdot_cos,P,T-P,150,30,26674,0.0012645556949836992,1.2165619814784219e-05,0.2167395038043577,0.9980580090875176,978.0,4.108441120292261,0.5830852916864041,7.141310193973895,-0.10599389295162648,0.317,0.9999999999995016,-71.90136312642217,0.7450763912786215,150,2026-10-07 20:16:42.758244,28.8,0.4413777099011055,0.17887489233705064,0.2341704088935936
0515,cdot_cos,Q,P-Q,151,30,26911,-0.010255035158232274,-0.058441227294094414,-0.011519590853215973,0.41781142410905514,978.0,4.1476157824146815,0.5835897103115923,7.171273550046457,-0.0566958811244602,0.237,0.9999999999994856,97.732338509049,0.7500436864497259,151,2026-10-07 20:16:42.995244,28.8,0.4191541043181359,0.1307733035113493,0.1652939330059955
0515,cdot_cos,R,Q-R,152,30,26944,-0.07086610649086077,0.4226425756213315,-0.0606110713326285,0.14860317142157156,978.0,4.17042766615664,0.5837690749705905,7.197191758225006,-0.033258470645738045,0.033,0.9999999999994645,130.66905492772702,0.7550108193746287,152,2026-10-07 20:16:43.028243,28.8,0.4942543589420036,1.4768669230025422,0.6912692043017769
0515,cdot_cos,S,R-S,153,30,27003,0.09771470262113612,-0.07758386005740443,0.16858080911199688,0.9922718476765006,978.0,4.245088999332849,0.5849661806224833,7.235635291603412,-0.11003611498646906,0.059,0.999999999999461,-64.13606369607785,0.7599779741451697,153,2026-10-07 20:16:43.087244,28.8,0.4977041269274169,0.7566587632363391,1.2654463250204941
0515,cdot_cos,T,S-T,154,30,27215,-0.053837918157493184,-0.01815461575104368,-0.1515526207786293,0.01255855021004443,978.0,4.259713400218528,0.5849813252286599,7.259430596250644,-0.021781936694669986,0.212,0.9999999999994406,5827.433032118169,0.7649452557385834,154,2026-10-07 20:16:43.299244,28.8,0.017392537915989943,0.2005896650815731,0.06898302304565493
0515,cdot_cos,P,T-P,155,31,27652,0.028913428738145366,-0.0020336126175415775,0.08275134689563855,0.9155402153516401,802.0,4.330139017327436,0.5860849591669588,7.296702257083702,-0.10586017899526505,0.437,0.9999999999994347,-76.18308877868301,0.7699127268231996,155,2026-10-07 20:16:43.736243,28.8,0.45192519152517757,0.1109514094539659,0.1611570185558539
0515,cdot_cos,Q,P-Q,156,31,27739,-0.018556094231927018,-0.01411944997383795,-0.047469522970072384,0.2030851862815804,802.0,4.356684932081294,0.5863296506289771,7.3232585680592885,-0.04034590547456999,0.087,0.9999999999994116,267.7423763800427,0.7748799049843421,156,2026-10-07 20:16:43.823244,28.8,0.19714521726097514,0.5903685170777231,0.305125456940897
0515,cdot_cos,R,Q-R,157,31,27768,0.352417773544978,0.4570307351535063,0.370973867776905,0.999977093052272,802.0,4.43286313929896,0.5875338704116002,7.361781907258376,-0.11704772104252795,0.029,0.9999999999994063,-63.69419990832798,0.7798470344056617,157,2026-10-07 20:16:43.852243,28.8,0.519284283661709,1.5564753709211843,2.626834731643647
0515,cdot_cos,S,R-S,158,31,27823,-0.0005413767248367757,-0.002446005776955557,-0.3529591502698148,3.848422993196998e-05,802.0,4.446960503594723,0.5875339167360776,7.385190433330224,-0.021883056997052487,0.055,0.9999999999993838,2054306.2643808061,0.7848141871888675,158,2026-10-07 20:16:43.907244,28.8,0.012922531039191845,0.25594704176158894,0.25631571446841667
0515,cdot_cos,T,S-T,159,31,28034,-0.32006355894838534,-0.10011926667189008,-0.31952218222354856,0.00010080328068284103,802.0,4.461017313892735,0.5875340380756241,7.408525964647112,-0.02188928626661831,0.211,0.9999999999993613,-51.33750491407509,0.7897814764317919,159,2026-10-07 20:16:44.118243,28.8,0.9997154597363787,0.21538359500128337,0.06661995401901359
0515,cdot_cos,P,T-P,160,32,28454,0.04676950755905391,0.0034405121588284336,0.36683306650743924,0.9999741917957902,838.0,4.537852380685265,0.5887372075305156,7.447005816504173,-0.12076269772321944,0.42,0.9999999999993566,-82.17746141628568,0.7947489527610176,160,2026-10-07 20:16:44.538244,28.8,0.4409863627051354,0.11842198766086662,0.18294063522030884
0515,cdot_cos,Q,P-Q,161,32,28546,-0.017860979982059023,-0.014768867156625544,-0.06463048754111293,0.13454483970947337,838.0,4.560491783527863,0.5888990113292077,7.472294734373812,-0.03597171803824638,0.092,0.9999999999993306,524.0357789516971,0.7997161378555866,161,2026-10-07 20:16:44.630244,28.8,0.0946890610274736,0.5434741549133167,0.2460804656804157
0515,cdot_cos,R,Q-R,162,32,28579,0.33070339178752994,0.4560333551098434,0.348564371769589,0.9999563233788672,838.0,4.637851625189315,0.5901009555047172,7.51076297316228,-0.12415747604021704,0.033,0.9999999999993259,-73.3692627318508,0.8046832703236545,162,2026-10-07 20:16:44.663244,28.8,0.49150977909345667,1.3887379802715443,2.3442376261046074
0515,cdot_cos,S,R-S,163,32,28638,-0.0006102841845198173,-0.007309505979462615,-0.33131367597204975,7.17799297807969e-05,838.0,4.652148490225785,0.5901010417455166,7.533909772435998,-0.023174174666481855,0.059,0.999999999999301,1170945.7946495847,0.8096504275364168,163,2026-10-07 20:16:44.722244,28.8,0.012809359114915373,0.24222790698194224,0.24231974638084536
0515,cdot_cos,T,S-T,164,32,28853,-0.25887451668124545,-0.00981741962261811,-0.25826423249672564,0.0005881090441915729,838.0,4.666434518213184,0.5901017483354966,7.556993647858367,-0.02322784317023045,0.215,0.9999999999992767,-75.95423834175554,0.8146177292478474,164,2026-10-07 20:16:44.937243,28.8,0.9976921425773354,0.21458052752063222,0.06644664180185725
0515,cdot_cos,P,T-P,165,33,29292,0.011824658105772504,-0.0008671010682186203,0.27069917478701794,0.9995888479540759,679.0,4.744418117059657,0.5913021753714613,7.595418112894042,-0.12793474437289354,0.439,0.9999999999992725,-87.2247109283985,0.8195852430660386,165,2026-10-07 20:16:45.376243,28.8,0.44111930194862536,0.12162510372802128,0.17763917732681672
0515,cdot_cos,Q,P-Q,166,33,29382,-0.030970582247995412,-0.03163390670271591,-0.042795240353767916,0.22574365606073465,679.0,4.773221359286387,0.5915731255158987,7.621890949235244,-0.04777908854376724,0.09,0.9999999999992467,295.83175161459354,0.8245524288455726,166,2026-10-07 20:16:45.466244,28.8,0.18681611425300812,0.5963414853023973,0.32003602474144605
0515,cdot_cos,R,Q-R,167,33,29412,0.28534612145537097,0.5848841034205444,0.3163167037033664,0.9998894487809945,679.0,4.851759584414088,0.5927725775908727,7.660314343314693,-0.1316286812331904,0.03,0.9999999999992414,-69.90658021183836,0.8295195579032361,167,2026-10-07 20:16:45.496243,28.8,0.5288681475083105,1.551590125993722,2.6179408375900457
0515,cdot_cos,S,R-S,168,33,29462,0.03854934197916778,-0.07340847235550098,-0.24679677947620318,0.0008180675451319073,679.0,4.86631676684601,0.5927735584816568,7.683227890906413,-0.02463354791118169,0.05,0.9999999999992155,109079.55814312414,0.8344867072576707,168,2026-10-07 20:16:45.546243,28.8,0.012991339797247106,0.29167735534770145,0.2911436486384389
0515,cdot_cos,T,S-T,169,33,29692,-0.17220580215094872,-0.08173831412542895,-0.2107551441301165,0.0023064234639047195,679.0,4.880927319948858,0.5927763239577791,7.706096670426499,-0.024798014523656244,0.23,0.999999999999189,-59.471355093945164,0.8394540333297411,169,2026-10-07 20:16:45.776243,28.8,0.9933896956038447,0.20295286016840192,0.06352414392542696
0515,cdot_cos,P,T-P,170,34,29971,0.001228027356530662,-5.630252332032025e-06,0.17343382950747938,0.993273120391506,939.0,4.959675082523475,0.5939667418908514,7.744383414033921,-0.13481185674425986,0.279,0.9999999999991844,-92.41614996228664,0.8444214102287886,170,2026-10-07 20:16:46.055244,28.8,0.4421727450293476,0.22048265372024115,0.28225004507031065
0515,cdot_cos,Q,P-Q,171,34,30213,-0.004691894672871039,-0.05345730225127895,-0.005919922029401701,0.45747951074767307,939.0,5.003956640724753,0.5945146516150895,7.7742926140119675,-0.07672250070160563,0.242,0.9999999999991646,106.0199399151529,0.8493887536328227,171,2026-10-07 20:16:46.297244,28.8,0.4690078122681277,0.12787670414559918,0.18298164545982595
0515,cdot_cos,R,Q-R,172,34,30242,-0.10992814434998627,0.4366425195267344,-0.10523624967711523,0.046053492766679395,939.0,5.021567407329945,0.5945697955108884,7.797714667011289,-0.030700737583228378,0.029,0.9999999999991346,834.5758392958754,0.854355880780099,172,2026-10-07 20:16:46.326244,28.8,0.22334352620927694,1.6784404941613222,0.607267813972142
0515,cdot_cos,S,R-S,173,34,30299,0.09659776448382326,-0.06190246416153551,0.20652590883380953,0.9973956026370003,939.0,5.10130618938611,0.5957634774206251,7.8360500111496885,-0.14022558960013237,0.057,0.9999999999991308,-91.7538006763166,0.8593230375566989,173,2026-10-07 20:16:46.383244,28.8,0.4579195321668122,0.8346052516704563,1.3989260009853435
0515,cdot_cos,T,S-T,174,34,30511,-0.06145895918554132,-0.03140933955570558,-0.15805672366936457,0.01043568433790614,939.0,5.116712406020377,0.5957759608738326,7.858829599760817,-0.027347166813544727,0.212,0.999999999999103,9042.243433007752,0.8642903570931436,174,2026-10-07 20:16:46.595244,28.8,0.016121372555565516,0.21543982190157268,0.07267083318050682
0515,cdot_cos,P,T-P,175,35,30910,0.02957770324961119,-0.0020271489056586083,0.09103666243515252,0.9322550096007924,818.0,5.192652673872376,0.5968906481122501,7.896126129997117,-0.13588331315548852,0.399,0.9999999999990964,-97.36914768668562,0.8692578762134081,175,2026-10-07 20:16:46.994244,28.8,0.4498931287085107,0.1310977401652955,0.19032648584460993
0515,cdot_cos,Q,P-Q,176,35,30998,-0.016358726066713708,-0.01271341214978787,-0.0459364293163249,0.21032472606454594,818.0,5.221328402672283,0.5971419932666172,7.921989070683062,-0.051820946004940444,0.088,0.9999999999990672,334.4499215122139,0.8742250659747215,176,2026-10-07 20:16:47.082243,28.8,0.19746978864611395,0.6225571091365012,0.3258605545443913
0515,cdot_cos,R,Q-R,177,35,31028,0.3517915066178778,0.4567804717162092,0.36815023268459146,0.9999751524536611,818.0,5.302222725080401,0.5983362974809552,7.960352055228878,-0.14758177182947566,0.03,0.9999999999990625,-80.18126761582059,0.8791921940581099,177,2026-10-07 20:16:47.112243,28.8,0.5226379996190603,1.597564306270316,2.696477413603926
0515,cdot_cos,S,R-S,178,35,31079,-1.178709294985394e-05,-4.290278811511705e-05,-0.35180329371082764,3.978682834748493e-05,818.0,5.317182261048502,0.5983363449765995,7.9828078789558425,-0.027540433321896426,0.051,0.9999999999990321,2527417.8350585634,0.8841593459684474,178,2026-10-07 20:16:47.163244,28.8,0.012794614630082586,0.2929031552494311,0.2933242346686506
0515,cdot_cos,T,S-T,179,35,31309,-0.3699517550178196,-0.09622493184910162,-0.3699399679248697,2.359927242665093e-05,818.0,5.332098846915843,0.5983363731483,8.00520047526806,-0.02753862023252812,0.23,0.9999999999990019,64.35853478232174,0.8891266950838428,179,2026-10-07 20:16:47.393243,28.8,0.9999341641059297,0.2096315735106399,0.06485472116235128
0515,cdot_cos,P,T-P,180,36,31728,0.008613590483277537,-0.00015951663099060773,0.3785653455010971,0.999981591542626,856.0,5.413612784863396,0.5995295188518809,8.043538090696819,-0.1517024373926461,0.419,0.9999999999989976,-104.06425366782761,0.8940942570828603,180,2026-10-07 20:16:47.812243,28.8,0.44110625393592756,0.13145584699065835,0.19454400464809923
0515,cdot_cos,Q,P-Q,181,36,31821,-0.038674715492695744,-0.026636441273767346,-0.04728830597597328,0.20393115456062394,856.0,5.442258846694014,0.5997726985826928,8.069122232298186,-0.05384774197553877,0.093,0.9999999999989657,402.3965940352194,0.8990614551874987,181,2026-10-07 20:16:47.905244,28.8,0.1624722779957641,0.5949799156248229,0.3080221702217003
0515,cdot_cos,R,Q-R,182,36,31853,0.3035127354671003,0.4044714774858334,0.342187450959796,0.9999475185650264,856.0,5.524279049169613,0.6009643825255387,8.107458650017785,-0.15559483953139075,0.032,0.999999999998961,-85.38094195752998,0.9040285848472397,182,2026-10-07 20:16:47.937243,28.8,0.5200016249081055,1.5186804050736495,2.5631313273624667
0515,cdot_cos,S,R-S,183,36,31912,0.020844409506056993,-0.116722559090324,-0.2826683259610433,0.000291305173158182,856.0,5.539454392618728,0.6009647295140246,8.129706063145683,-0.02904323869897383,0.059,0.9999999999989289,364714.1216474591,0.9089957465598436,183,2026-10-07 20:16:47.996243,28.8,0.012812275570929193,0.2797362945034474,0.2572092110019431
0515,cdot_cos,T,S-T,184,36,32127,-0.08918561008008377,0.023256291328767532,-0.11003001958614077,0.04035436324663171,856.0,5.55728793192102,0.6010127966793892,8.152540141282596,-0.03423105225662257,0.215,0.9999999999988971,-107.92842719749518,0.9139630894454562,184,2026-10-07 20:16:48.211244,28.8,0.8593724624934752,0.22736427523733466,0.08294669442926579
0515,cdot_cos,P,T-P,185,37,32584,0.02107865122526669,-0.002110911093208148,0.11026426130535047,0.9599060792734082,822.0,5.637221030970782,0.6021555908655567,8.190207576450293,-0.15463154351689046,0.457,0.9999999999988918,-105.35623362247625,0.9189307186987505,185,2026-10-07 20:16:48.668243,28.8,0.4590352519271997,0.12129305448109998,0.17490831301917234
0515,cdot_cos,Q,P-Q,186,37,32669,-0.02049756851559579,-0.014888612433022523,-0.04157621974086248,0.23193893274745492,822.0,5.668149783716745,0.6024315539649842,8.216077400653287,-0.060410341710546496,0.085,0.999999999998858,341.4268139538427,0.9238979101211744,186,2026-10-07 20:16:48.753243,28.8,0.21020193350720826,0.670992867766487,0.36386767936427794
0515,cdot_cos,R,Q-R,187,37,32699,0.35713805852628727,0.43860969391936133,0.3776356270418831,0.9999810919909613,822.0,5.751289818491085,0.6036205930885972,8.254393917168539,-0.1638605932964377,0.03,0.9999999999988529,-87.00323608490486,0.9288650366157429,187,2026-10-07 20:16:48.783243,28.8,0.5318834598681389,1.6416598360561234,2.7713344924779726
0515,cdot_cos,S,R-S,188,37,32757,-6.342854944178226e-05,-0.015798673043263236,-0.3572014870757291,3.405829690878746e-05,822.0,5.766649373880113,0.6036206335652494,8.276435606906224,-0.030533253615944105,0.058,0.9999999999988178,3293931.9894817336,0.933832198037972,188,2026-10-07 20:16:48.841243,28.8,0.012693981075406983,0.2700183739700008,0.2648199205004866
0515,cdot_cos,T,S-T,189,37,32964,-0.16156102052119467,0.0433840394038049,-0.1614975919717529,0.00946044245864483,822.0,5.782611949871605,0.6036318767923864,8.298572793157053,-0.03181798028733504,0.207,0.9999999999987834,-114.26671859776752,0.9387995415385857,189,2026-10-07 20:16:49.048243,28.8,0.9604269251277611,0.2398941529777738,0.07711389367870468
0515,cdot_cos,P,T-P,190,38,33406,0.017502476514612265,9.552980894525318e-05,0.17906349703580693,0.9942741884349356,819.0,5.865965553212911,0.6048129055860717,8.336777216881435,-0.16740386041424304,0.442,0.9999999999987785,-114.80319603709435,0.9437671775567746,190,2026-10-07 20:16:49.490243,28.8,0.4448879544321917,0.13081333865905867,0.18858281298938118
0515,cdot_cos,Q,P-Q,191,38,33502,-0.021442362752897196,-0.019311251175048064,-0.03894483926750946,0.24571251313642287,819.0,5.8982509412462125,0.6051045824655449,8.362718701421473,-0.06546753616192366,0.096,0.9999999999987434,349.4837315745924,0.9487343854403261,191,2026-10-07 20:16:49.586244,28.8,0.21075657536753117,0.606900729833576,0.3363061253468895
0515,cdot_cos,R,Q-R,192,38,33534,0.29462784775605383,0.44905657850260766,0.316070210508951,0.9998886612728733,819.0,5.982490493340958,0.6062907421920728,8.4010180056033,-0.17232986169735168,0.032,0.9999999999987378,-90.09100810413771,0.9537015136924113,192,2026-10-07 20:16:49.618243,28.8,0.5378888408140235,1.5596386236956943,2.6324860029607877
0515,cdot_cos,S,R-S,193,38,33593,0.008481881387492849,-0.051317778366387005,-0.286145966368561,0.0002635500101474521,819.0,5.998067813162737,0.6062910546748423,8.422871576645521,-0.03213444323995264,0.059,0.9999999999987005,448650.0764819695,0.9586686773810756,193,2026-10-07 20:16:49.677243,28.8,0.012742947889854873,0.27033635828809227,0.264022369860665
0515,cdot_cos,T,S-T,194,38,33806,-0.1458259593222718,0.015169556487561419,-0.15430784070976464,0.011611661137143446,819.0,6.014390183618953,0.606304822161631,8.444856069742206,-0.033760647225867774,0.213,0.9999999999986632,-118.11916080869834,0.9636360389514361,194,2026-10-07 20:16:49.890244,28.8,0.9529730775978006,0.23692499579285858,0.07663084721228006
0515,cdot_cos,P,T-P,195,39,34225,0.05133211774402617,0.0023849982463150423,0.19715807706629795,0.9965917852396435,879.0,6.098997861370495,0.6074858104469764,8.483084936303841,-0.17628334437964122,0.419,0.9999999999986583,-120.6808728945938,0.9686036703902754,195,2026-10-07 20:16:50.309243,28.8,0.44553188624782136,0.1298447129660609,0.2019276318652556
0515,cdot_cos,Q,P-Q,196,39,34317,-0.016739932487549857,-0.013010314626355836,-0.06807205023157603,0.12341564581528847,879.0,6.123200053084512,0.6076319741796821,8.506855248818814,-0.050872455967168564,0.092,0.999999999998617,858.0164592880332,0.9735708763308246,196,2026-10-07 20:16:50.401243,28.8,0.08499165859128927,0.595201120138401,0.2630673012393146
0515,cdot_cos,R,Q-R,197,39,34350,0.3316218424085235,0.4193899462465911,0.34836177489607334,0.999956067801257,879.0,6.2085148674759605,0.608815529818309,8.545140832230572,-0.18074222310104818,0.033,0.9999999999986112,-109.72848499504786,0.9785380052478587,197,2026-10-07 20:16:50.434243,28.8,0.487465455651804,1.5311715674587074,2.5852974058014797
0515,cdot_cos,S,R-S,198,39,34409,-0.0009441563905974275,-0.006229110547665292,-0.3325659987991209,6.923735663952287e-05,879.0,6.224257376536786,0.6088156117240463,8.566802697508376,-0.03362433994128858,0.059,0.9999999999985714,1796185.322335079,0.9835051699233262,198,2026-10-07 20:16:50.493243,28.8,0.012583876608881136,0.267788385020132,0.2668221874716248
0515,cdot_cos,T,S-T,199,39,34624,-0.21239201605488398,0.04124653687028998,-0.21144785966428656,0.0022609687954990593,879.0,6.240113896908336,0.6088182863796385,8.588446538440063,-0.03395385118846366,0.215,0.9999999999985321,-123.19763641069983,0.9884725445220658,199,2026-10-07 20:16:50.708243,28.8,0.9903422588335345,0.236408599615359,0.07375125754209172
0515,cdot_cos,P,T-P,200,40,35104,0.01295137458301072,-0.00048184560325726977,0.22534339063789469,0.9984835864138355,895.0,6.325913074371391,0.6099988203384945,8.62669393308202,-0.1850207289739935,0.48,0.9999999999985265,-127.96487271905708,0.9934402818262479,200,2026-10-07 20:16:51.188244,28.8,0.4419819513908604,0.12384768071361889,0.17874828638136386
0515,cdot_cos,Q,P-Q,201,40,35193,-0.02600837075141078,-0.018341242098675017,-0.0389597453344215,0.245632957250261,895.0,6.35900767039341,0.6102890419512795,8.652348785003886,-0.07202237717134992,0.089,0.9999999999984864,389.35195321357673,0.9984074863536831,201,2026-10-07 20:16:51.277244,28.8,0.2082670897894542,0.6712745038897396,0.3718493935058368
0515,cdot_cos,R,Q-R,202,40,35225,0.3227516432000592,0.37236304761427574,0.34876001395147,0.9999565687718932,895.0,6.445399936063764,0.6114697081481405,8.690625791186891,-0.18957389487395004,0.032,0.99999999999848,-99.5637192079639,1.0033746129588397,202,2026-10-07 20:16:51.309243,28.8,0.5378998801543425,1.598956178667038,2.699758302198568
0515,cdot_cos,S,R-S,203,40,35274,0.001093970424815782,-0.07234038854871232,-0.32165767277524343,9.479103018797904e-05,895.0,6.461340865828101,0.6114698200078241,8.712112267402926,-0.035259371433734525,0.049,0.9999999999984376,1379536.5625642785,1.0083417643464152,203,2026-10-07 20:16:51.358243,28.8,0.012568602464059966,0.3484426890690862,0.3253250972313521
0515,cdot_cos,T,S-T,204,40,35503,-0.11664749929043641,0.05314626227030159,-0.11774146971525219,0.03257936343145245,895.0,6.479547319592535,0.6115082651153543,8.73409342313868,-0.040375515016364986,0.229,0.9999999999983954,-133.07658402615382,1.0133091698910681,204,2026-10-07 20:16:51.587244,28.8,0.8809855859517983,0.22571325629423766,0.07950416491019298
0515,cdot_cos,P,T-P,205,41,35999,0.00990305642904304,-0.000604854552986512,0.12655055571947946,0.9745350131751103,822.0,6.5647175372108615,0.6126576166817257,8.771930730963764,-0.1901798779075636,0.496,0.9999999999983892,-130.33815524708572,1.0182769587575444,205,2026-10-07 20:16:52.083244,28.8,0.4548906216497153,0.1203106368273944,0.1717141484240457
0515,cdot_cos,Q,P-Q,206,41,36085,-0.027311626262650233,-0.019680740318500423,-0.03721468269169327,0.255064181089042,822.0,6.59889547132531,0.6129582290368083,8.797614702903495,-0.07699349541272196,0.086,0.999999999998346,376.51939642912606,1.0232441616090493,206,2026-10-07 20:16:52.169244,28.8,0.22990773460826722,0.7071977516265703,0.3974178385400998
0515,cdot_cos,R,Q-R,207,41,36114,0.3338412591974593,0.40545163036680654,0.3611528854601095,0.9999696050322163,822.0,6.686355550490632,0.6141359368649156,8.835886583260915,-0.19861991947885477,0.029,0.9999999999983392,-103.27385210778112,1.0282112827340797,207,2026-10-07 20:16:52.198244,28.8,0.5420713551997616,1.786161933801284,3.0158647988041896
0515,cdot_cos,S,R-S,208,41,36171,0.009098352612423762,-0.08011784780289123,-0.3247429065850355,8.673245166675107e-05,822.0,6.7024928634857845,0.6141360389558035,8.857205048725374,-0.03693327264710746,0.057,0.9999999999982928,1583751.9903048503,1.0331784460312075,208,2026-10-07 20:16:52.255244,28.8,0.012552888378726965,0.29988156702530766,0.28311075430092936
0515,cdot_cos,T,S-T,209,41,36382,-0.11503839661649744,0.025360961083185845,-0.1241367492289212,0.027248282714249863,822.0,6.720542049131517,0.6141681118213399,8.878934565430058,-0.04141314644909107,0.211,0.9999999999982478,-139.67800279327437,1.0381458371061587,209,2026-10-07 20:16:52.466244,28.8,0.8974703804767333,0.2507396479985733,0.08554116419778247
0515,cdot_cos,P,T-P,210,42,36821,0.07786416315144665,0.0040223879734636375,0.19290255976794407,0.9961491140528632,879.0,6.8083049949411825,0.6153399566777934,8.917132500291428,-0.20272555183965543,0.439,0.9999999999982414,-137.65679347585706,1.043113571292045,210,2026-10-07 20:16:52.905244,28.8,0.4512570386572345,0.12407821719376146,0.19991559409946655
0515,cdot_cos,Q,P-Q,211,42,36910,-0.012439815187609697,-0.009279759414145944,-0.09030397833905635,0.06908987289072856,879.0,6.829482723827639,0.615421182838648,8.939518848085307,-0.04930893087716356,0.089,0.9999999999981883,1888.758736697191,1.0480807814968356,211,2026-10-07 20:16:52.994244,28.8,0.04454143606972383,0.6159897584775582,0.2379520099601882
0515,cdot_cos,R,Q-R,212,42,36942,0.2739828955599134,0.531429800926163,0.28642271074752307,0.9997385416503916,879.0,6.917951171950188,0.6165958126735787,8.977780408207279,-0.20740144499420923,0.032,0.9999999999981818,-134.58922071937474,1.0530479062100297,212,2026-10-07 20:16:53.026243,28.8,0.4666136445769616,1.680072009817346,2.764639003829644
0515,cdot_cos,S,R-S,213,42,36991,0.16184268636829285,0.5687273763900595,-0.11214020919162054,0.03806549912899373,879.0,6.937007332455949,0.6166405104491695,8.999581838095796,-0.04502185691217578,0.049,0.9999999999981343,3632.8337581852547,1.058015057989209,213,2026-10-07 20:16:53.075244,28.8,0.027141713485626016,0.36042087362558534,0.38890123481145983
0515,cdot_cos,T,S-T,214,42,37220,-0.3201669944503962,0.04402038259337009,-0.48200968081868906,9.357853222327513e-07,879.0,6.953272417565495,0.6166405115479754,9.020682902826469,-0.03852566518954958,0.229,0.9999999999980854,5912046.44509208,1.062982487560248,214,2026-10-07 20:16:53.304243,28.8,0.8448300080448133,0.22995602561081221,0.07102657253076781
0515,cdot_cos,P,T-P,215,43,37700,0.008086431138520856,-0.0005287758924204303,0.32825342558891707,0.9999216070887907,857.0,7.042327192185701,0.6178139446652604,9.058940799532348,-0.21228805620864616,0.48,0.999999999998079,-148.0803536729322,1.0679503108218549,215,2026-10-07 20:16:53.784243,28.8,0.44108320458265726,0.129517564866935,0.18553078045876287
0515,cdot_cos,Q,P-Q,216,43,37788,-0.02837768817557619,-0.020052245207620105,-0.03646411931409704,0.2591931033686661,857.0,7.077609279837753,0.6181178907765388,9.084451216057053,-0.08482659190132241,0.088,0.9999999999980314,419.35546986020086,1.0729175221938718,216,2026-10-07 20:16:53.872243,28.8,0.2225480800110948,0.7091758230808421,0.4009328142278572
0515,cdot_cos,R,Q-R,217,43,37817,0.33081328394428705,0.38957675082450166,0.3591909721198632,0.9999678382326207,857.0,7.16714213704793,0.6192896478387825,9.122716852006711,-0.21690527209437147,0.029,0.9999999999980239,-112.71848444432837,1.0778846411267597,217,2026-10-07 20:16:53.901243,28.8,0.5439361946648951,1.8281729520742196,3.0873399037991995
0515,cdot_cos,S,R-S,218,43,37869,0.004453240161878304,-0.07957955822036322,-0.32636004378240874,8.278596213966941e-05,857.0,7.1836433110580575,0.6192897447896546,9.143714191297459,-0.04027388472973148,0.052,0.9999999999979715,1821864.8633444645,1.0828517979622685,218,2026-10-07 20:16:53.953243,28.8,0.012453483428931293,0.3467934510701376,0.3173302694255377
0515,cdot_cos,T,S-T,219,43,38097,-0.10388814188251737,0.03641960889651705,-0.10834138204439567,0.04228038450922746,857.0,7.203208655959224,0.6193392582233569,9.165394760007064,-0.04787011545147735,0.228,0.9999999999979213,-153.4175708236818,1.0878192387926464,219,2026-10-07 20:16:54.181243,28.8,0.8532657822604099,0.23467017719755504,0.08581291623318574
0515,cdot_cos,P,T-P,220,44,38557,0.010183170963180695,-0.0008376066191493242,0.11407131284569806,0.9639194505532844,800.0,7.290652911860143,0.620467403602713,9.203029787768573,-0.21529191675381804,0.46,0.9999999999979129,-148.40445599120773,1.0927870601655045,220,2026-10-07 20:16:54.641243,28.8,0.4594844420499253,0.1329445261603028,0.19009620848025816
0515,cdot_cos,Q,P-Q,221,44,38643,-0.028336997239091326,-0.021080324214874935,-0.03852016820227202,0.24798633635417816,800.0,7.3255176200267025,0.620757430211425,9.22823408624113,-0.08653723323736623,0.086,0.9999999999978619,443.9409338620241,1.097754271272305,221,2026-10-07 20:16:54.727243,28.8,0.22585704670390203,0.7292210345705695,0.40540358333209126
0515,cdot_cos,R,Q-R,222,44,38671,0.3290245260276607,0.4163509328155656,0.357361523266752,0.9999660983127131,800.0,7.416078929806281,0.6219260399866848,9.266500809039163,-0.22643678602050718,0.028,0.9999999999978539,-119.71451526840134,1.1027213874430495,222,2026-10-07 20:16:54.755244,28.8,0.5391127748103554,1.9152471655473942,3.2343324921277894
0515,cdot_cos,S,R-S,223,44,38727,0.013934498699144992,-0.09817174111185081,-0.3150900273285157,0.00011452615652682519,800.0,7.4327714612973566,0.6219261737468197,9.287349835762829,-0.04204119246054022,0.056,0.9999999999977991,1378554.1840010697,1.107688551560695,223,2026-10-07 20:16:54.811244,28.8,0.012449565737159022,0.31767988523468643,0.2980809194834994
0515,cdot_cos,T,S-T,224,44,38938,-0.10659461360326887,0.016496213463014813,-0.12052911230241387,0.03014175697505697,800.0,7.4516590769525655,0.6219613769852388,9.30867708744581,-0.047681888878645204,0.211,0.9999999999977452,-160.2323158725168,1.1126559767183033,224,2026-10-07 20:16:55.022244,28.8,0.8884308073649285,0.2588983699465863,0.08951476613843086
0515,cdot_cos,P,T-P,225,45,39357,0.05248696468902484,0.004038454462392325,0.15908157829229372,0.9898647558567786,858.0,7.542026573414816,0.6231167461162803,9.346762974868213,-0.22953090391871528,0.419,0.9999999999977386,-157.39473225854582,1.117623758071251,225,2026-10-07 20:16:55.441243,28.8,0.4528185654171357,0.13896020092247552,0.2156742159003592
0515,cdot_cos,Q,P-Q,226,45,39450,-0.015063850631681305,-0.01212110276258174,-0.06755081532070614,0.12504886247637406,858.0,7.5681077253256,0.6232626038024327,9.369703712527263,-0.06674969790367632,0.093,0.9999999999976795,1116.0276178039328,1.1225909843987052,226,2026-10-07 20:16:55.534244,28.8,0.08727591080712525,0.6324778431885774,0.2804424936643438
0515,cdot_cos,R,Q-R,227,45,39482,0.334359376973195,0.4457590185516507,0.3494232276048763,0.9999573904250348,858.0,7.659667452247891,0.6244281543928968,9.407971102032276,-0.23586347033427302,0.032,0.9999999999976722,-145.09346382233093,1.127558106578612,227,2026-10-07 20:16:55.566243,28.8,0.4882154003773295,2.279902141209461,2.861241466321607
0515,cdot_cos,S,R-S,228,45,39541,0.334359376973195,0.4457590185516507,0.0,0.5,858.0,7.7140214623630055,0.6250104153004478,9.437462658591624,-0.1412734078111345,0.059,0.9999999999976408,162.45305377101357,1.1325252774174874,228,2026-10-07 20:16:55.625243,28.8,0.5119372593632272,0.6038331640950256,0.9212544087307474
0515,cdot_cos,T,S-T,229,45,39756,-0.27433267640761405,0.022152390945701615,-0.6086920533808091,2.435981078145327e-08,858.0,7.730919765611104,0.6250104153288065,9.458136228034155,-0.04412455746245166,0.215,0.999999999997583,3425708708.191973,1.1374927244691502,229,2026-10-07 20:16:55.840243,28.8,0.11061542384708739,0.25365352110275285,0.07859675929348342
0515,cdot_cos,P,T-P,230,46,40215,0.011491815001211833,-0.000784695792457583,0.2858244914088259,0.9997339992391157,898.0,7.823092476437189,0.6261735420879843,9.496404586607502,-0.24207713460695005,0.459,0.9999999999975763,-170.1900292315858,1.1424606094449818,230,2026-10-07 20:16:56.299244,28.8,0.4414346818635371,0.14091090213158441,0.2008120061570475
0515,cdot_cos,Q,P-Q,231,46,40302,-0.023489527429250017,-0.01540253579529066,-0.03498134243046185,0.26747670539268054,898.0,7.860275973767899,0.6264844876686646,9.521753058076634,-0.09843575288769038,0.087,0.999999999997522,461.9502274480781,1.1474278297078129,231,2026-10-07 20:16:56.386244,28.8,0.23241285631809008,0.7461729114051738,0.42739652104264014
0515,cdot_cos,R,Q-R,232,46,40331,0.3404680201971393,0.36167401416209877,0.3639575476263893,0.9999719635584057,898.0,7.952926563021689,0.6276460423829363,9.56003297315797,-0.2469920606337493,0.029,0.9999999999975139,-127.8943694350236,1.1523949459887306,232,2026-10-07 20:16:56.415244,28.8,0.5480099285637218,1.8926917221230106,3.194847905303122
0515,cdot_cos,S,R-S,233,46,40385,-0.0006085965664563127,-0.05394336998297747,-0.3410766167635956,5.418747570710213e-05,898.0,7.9700520936510335,0.6276461052866389,9.580615280626331,-0.045970966240882885,0.054,0.9999999999974531,3195695.7404353875,1.1573621091597122,233,2026-10-07 20:16:56.469243,28.8,0.012616071583852176,0.33474501579374744,0.3171394560989644
0515,cdot_cos,T,S-T,234,46,40613,-0.1270276223411098,0.06423901305530567,-0.1264190257746535,0.025559162530932423,898.0,7.989079024727414,0.6276757752394031,9.601606408595861,-0.05118929524923599,0.228,0.9999999999973931,-175.87924894331752,1.162329592870445,234,2026-10-07 20:16:56.697243,28.8,0.903082107579089,0.24299263526670412,0.08345145208938881
0515,cdot_cos,P,T-P,235,47,41113,0.01056430128083178,-0.0006388971955475971,0.1375919236219416,0.9813420253809046,840.0,8.08085673533265,0.6288142214999124,9.639553079683647,-0.24831859432180065,0.5,0.999999999997385,-173.1564377789574,1.1672975849273537,235,2026-10-07 20:16:57.197243,28.8,0.4520979700423586,0.12922881360217442,0.18355542121047286
0515,cdot_cos,Q,P-Q,236,47,41201,-0.02473570830878532,-0.0179162930089626,-0.0353000095896171,0.2656823504347407,840.0,8.118307838329589,0.6291221919438049,9.66477275297314,-0.10210979036976645,0.088,0.9999999999973258,474.7494665528946,1.1722648098370618,236,2026-10-07 20:16:57.285243,28.8,0.23885982466599812,0.7448773689517907,0.42558071587429536
0515,cdot_cos,R,Q-R,237,47,41229,0.33052579602341575,0.3967785520008617,0.35526150433220105,0.9999639847227221,840.0,8.211955152268166,0.6302803755411158,9.703057376425543,-0.2570626416659327,0.028,0.9999999999973166,-133.78954049767185,1.177231922670198,237,2026-10-07 20:16:57.313244,28.8,0.5472867126440051,1.9814514672857568,3.344546926377756
0515,cdot_cos,S,R-S,238,47,41284,0.009942862718049235,-0.0705317624299946,-0.3205829333053665,9.777063764185173e-05,840.0,8.229269120497591,0.6302804887084911,9.723508139158382,-0.04784995638786662,0.055,0.9999999999972515,1848701.4019589715,1.182199088111491,238,2026-10-07 20:16:57.368243,28.8,0.012622619066677481,0.3537693676178803,0.3147994223531857
0515,cdot_cos,T,S-T,239,47,41510,-0.08788320066756873,0.02559196078973569,-0.09782606338561797,0.05639162196700005,840.0,8.250869782706133,0.6303457583914692,9.744923327810847,-0.05983384533939936,0.226,0.9999999999971898,-183.60574779479143,1.1871665815362626,239,2026-10-07 20:16:57.594244,28.8,0.8184965282824671,0.25352945183399117,0.0955781513652284
0515,cdot_cos,P,T-P,240,48,41953,0.05603483531924865,0.00290301639424,0.14391803598681738,0.9844011982664795,859.0,8.343864432726555,0.6314843700448892,9.782928460151703,-0.2590543850234921,0.443,0.9999999999971798,-174.96794371083678,1.1921344978582296,240,2026-10-07 20:16:58.037244,28.8,0.46346250554599516,0.13479337022772356,0.2099202032063711
0515,cdot_cos,Q,P-Q,241,48,42040,-0.013957729441965456,-0.00991368356256573,-0.06999256476121411,0.11755544498832038,859.0,8.370296708727896,0.6316202434465458,9.805398277605718,-0.07415071104035065,0.087,0.9999999999971099,1360.8526152199117,1.1971017240381325,241,2026-10-07 20:16:58.124243,28.8,0.08261039968443344,0.6955437975184303,0.30381926438322626
0515,cdot_cos,R,Q-R,242,48,42069,0.2632959650110637,0.5501988065654586,0.27725369445302916,0.9996595515730813,859.0,8.464889053494762,0.6327748281993848,9.84368153682053,-0.266931412092176,0.029,0.9999999999971002,-166.96972706229988,1.2020688375713342,242,2026-10-07 20:16:58.153243,28.8,0.4856774193749888,1.955712478489767,3.2618049919609025
0515,cdot_cos,S,R-S,243,48,42122,0.12376625244131391,0.5899156779933421,-0.13952971256974983,0.0176631153584416,859.0,8.483728032480302,0.6327952150630151,9.864316533732048,-0.05351895878616317,0.053,0.9999999999970318,10468.13561793922,1.2070359997418703,243,2026-10-07 20:16:58.206244,28.8,0.01854407900522954,0.34223931185022904,0.3554524336894401
0515,cdot_cos,T,S-T,244,48,42351,-0.43067376769559457,-0.01934969883889893,-0.5544400201369085,1.1620933081353586e-07,859.0,8.501166420550886,0.6327952151971429,9.88459266109252,-0.049646113070934084,0.229,0.9999999999969633,28874291.077957954,1.2120035121213952,244,2026-10-07 20:16:58.435244,28.8,0.9249560631360658,0.24582981992112726,0.0761501662470915
0515,cdot_cos,P,T-P,245,49,42812,0.013704256234983635,-3.027623720040006e-05,0.4443780239305782,0.999997233948913,898.0,8.596318090004178,0.6339486408027136,9.922881489952019,-0.27232584638591795,0.461,0.9999999999969542,-193.05946758897898,1.2169714929955187,245,2026-10-07 20:16:58.896243,28.8,0.4414476145497386,0.14428610039151707,0.2064027536947773
0515,cdot_cos,Q,P-Q,246,49,42907,-0.02239193725170245,-0.017322073533040445,-0.036096193486686086,0.2612328993539948,898.0,8.634198205111865,0.6342497021253787,9.947834233080702,-0.10921915257639675,0.095,0.9999999999968892,541.7723285265254,1.2219387383905034,246,2026-10-07 20:16:58.991244,28.8,0.22461013414122513,0.7024800049522901,0.39873805376512006
0515,cdot_cos,R,Q-R,247,49,42939,0.31021098415762927,0.38732362238294693,0.33260292140933173,0.9999308362241488,898.0,8.729789290945114,0.6354011149891625,9.986128833242239,-0.2773794463401804,0.032,0.9999999999968792,-146.04691249597946,1.2269058567486422,247,2026-10-07 20:16:59.023244,28.8,0.5453942175937235,1.769624997933067,2.9872214322890223
0515,cdot_cos,S,R-S,248,49,42998,0.0028682147385683757,-0.053638135620954916,-0.3073427694190609,0.00014315037312540992,898.0,8.747454204979581,0.6354012797152131,10.006325827397328,-0.05159317244995952,0.059,0.9999999999968063,1370677.3949740387,1.231873031820496,248,2026-10-07 20:16:59.082243,28.8,0.012572014102962542,0.3130777272006948,0.29940532261809444
0515,cdot_cos,T,S-T,249,49,43211,-0.13023648290874995,0.052876854531747335,-0.13310469764731833,0.021177411468003032,898.0,8.766732462754796,0.63542564864455,10.026864136890428,-0.056422601613179614,0.213,0.9999999999967347,-198.17978444833906,1.2368405252312262,249,2026-10-07 20:16:59.295244,28.8,0.9179669639889024,0.2669420809282459,0.09050825246579537
0515,cdot_cos,P,T-P,250,50,43710,0.0023910347889561172,1.4150281602258635e-05,0.13262751769770606,0.9785358329318175,838.0,8.861171531455014,0.6365508946779492,10.064770176953393,-0.27782620624595017,0.499,0.9999999999967236,-196.76017338531125,1.2418086175454504,250,2026-10-07 20:16:59.794244,28.8,0.45071771672615235,0.12812272554631937,0.18925665070184036
0515,cdot_cos,Q,P-Q,251,50,43803,-0.04579722961943958,-0.030562069424477072,-0.048188264408395694,0.19975568740033284,838.0,8.894598942850022,0.6367804162721206,10.08851665021393,-0.09902514768639022,0.093,0.9999999999966496,779.0162803857503,1.2467758621068206,251,2026-10-07 20:16:59.887244,28.8,0.16437372344192433,0.6987880556550156,0.3594345311291223
0515,cdot_cos,R,Q-R,252,50,43836,0.29111778230627516,0.4060270591909467,0.3369150119257147,0.999938913119231,838.0,8.991146109806847,0.6379284195338566,10.126817362513556,-0.2877113735533164,0.033,0.9999999999966385,-164.36035693974566,1.2517429811544307,252,2026-10-07 20:16:59.920243,28.8,0.5190174620867507,1.7334062706505537,2.9256717259643796
0515,cdot_cos,S,R-S,253,50,43895,0.023799712186286327,-0.11587321640153814,-0.2673180701199888,0.0004531833784052124,838.0,9.009003756712959,0.6379289394661114,10.146898613866874,-0.05355635516774389,0.059,0.9999999999965603,450356.7844106192,1.2567101568478265,253,2026-10-07 20:16:59.979244,28.8,0.012624399593458301,0.32914791168789703,0.30267198145952584
0515,cdot_cos,T,S-T,254,50,44109,-0.08622677512386688,0.01609615080052988,-0.11002648731015321,0.04035830299801094,838.0,9.029985563386019,0.6379752408039759,10.167669944856067,-0.06305820959296443,0.214,0.9999999999964859,-205.21770781266048,1.2616776647929737,254,2026-10-07 20:17:00.193243,28.8,0.8601195738964841,0.27232802983445864,0.0980458255750459
0515,cdot_cos,P,T-P,255,51,44548,0.050803134867534135,0.005777074874457524,0.13702990999140102,0.9810433416872473,898.0,9.125560153482107,0.6390999598981282,10.205625963234521,-0.2887031574343655,0.439,0.9999999999964742,-200.6233814421742,1.2666456619575053,255,2026-10-07 20:17:00.632244,28.8,0.45768177211188016,0.14134431790920526,0.21770977242844758
0515,cdot_cos,Q,P-Q,256,51,44639,-0.013999162452949373,-0.010440082922806463,-0.06480229732048351,0.1339697091186197,898.0,9.1540858745103,0.6392534317224634,10.228073612676305,-0.08674091578871038,0.091,0.9999999999963931,1315.9564794415328,1.271612905805981,256,2026-10-07 20:17:00.723244,28.8,0.0974575070089661,0.6923844574239847,0.3134694618482827
0515,cdot_cos,R,Q-R,257,51,44672,0.33881298519912123,0.41042605338575344,0.3528121476520706,0.999961352501258,898.0,9.251574124733272,0.6403980583688766,10.266380662580994,-0.2980710111912911,0.033,0.9999999999963819,-184.6279711072578,1.2765800239379728,257,2026-10-07 20:17:00.756243,28.8,0.4921398050134116,2.353968552291032,2.954189400696105
0515,cdot_cos,S,R-S,258,51,44731,0.33881298519912123,0.41042605338575344,0.0,0.5,898.0,9.309447798961509,0.6409697962176074,10.295518213144861,-0.1783181719900735,0.059,0.9999999999963372,209.45410465139443,1.2815472012498432,258,2026-10-07 20:17:00.815244,28.8,0.5109066724712354,0.6432027099590313,0.980909732681977
0515,cdot_cos,T,S-T,259,51,44947,-0.37935943940888983,0.03959229481559451,-0.718172424608011,1.0407067058067219e-09,898.0,9.327472044508438,0.640969796218797,10.315451500873273,-0.05576276839457843,0.216,0.9999999999962568,103022019592.14415,1.286514729990361,259,2026-10-07 20:17:01.031244,28.8,0.11104721114000679,0.268765159647721,0.08344558123578265
0515,cdot_cos,P,T-P,260,52,45446,0.008680342852146711,-0.000250462058925342,0.3880397822610365,0.9999859874855973,779.0,9.425554347929324,0.6421120539806489,10.353764944654372,-0.3049045718341976,0.499,0.9999999999962461,-218.11346944643046,1.2914828993849448,260,2026-10-07 20:17:01.530244,28.8,0.4417045629772471,0.1331220981987554,0.19655772228634552
0515,cdot_cos,Q,P-Q,261,52,45537,-0.037822623786535524,-0.028439295653564303,-0.04650296663868224,0.20762759238254191,779.0,9.460327898510796,0.6423490198572415,10.37748601406306,-0.1088331059113588,0.091,0.9999999999961653,827.4248965386847,1.2964501477782797,261,2026-10-07 20:17:01.621243,28.8,0.16503804506445344,0.732282878590902,0.38212692946671944
0515,cdot_cos,R,Q-R,262,52,45569,0.3017229003919424,0.4695757351783987,0.3395455241784779,0.9999433697763296,779.0,9.558829831832869,0.6434892816781068,10.415804055810826,-0.31002301500742435,0.032,0.9999999999961524,-176.44185345378077,1.301417262749488,262,2026-10-07 20:17:01.653243,28.8,0.5225934145326542,1.824315822859135,3.0781854163147715
0515,cdot_cos,S,R-S,263,52,45616,0.027232129449973875,-0.09126966501293533,-0.2744907709419685,0.00036863524220185354,779.0,9.57708411117378,0.6434897017437685,10.435669406594666,-0.05780589424693162,0.047,0.9999999999960669,600423.0856200153,1.3063844134044782,263,2026-10-07 20:17:01.700243,28.8,0.012737905259044632,0.3961376482358276,0.3883889221470628
0515,cdot_cos,T,S-T,264,52,45846,-0.13295877895089736,-0.0025746194908001707,-0.16019090840087125,0.009819683604747055,779.0,9.596066770767036,0.6435008913465624,10.455672076916319,-0.06022858582305232,0.23,0.9999999999959817,-216.5127414033826,1.3113519875888466,264,2026-10-07 20:17:01.930244,28.8,0.9605733382960615,0.2529015033318169,0.08253330257937325
0515,cdot_cos,P,T-P,265,53,46225,0.0011230792694536535,-2.9454382333043257e-06,0.134081858220351,0.9793981529051385,999.0,9.693418802706416,0.6446161342883919,10.493610920796733,-0.3103191130984233,0.379,0.9999999999959684,-224.2475768240287,1.3163199123693334,265,2026-10-07 20:17:02.309243,28.8,0.44667946112193285,0.19739728815959387,0.25686551962897075
0515,cdot_cos,Q,P-Q,266,53,46463,-0.010127761326357423,-0.05264570214522598,-0.011250840595811076,0.4196953315305392,999.0,9.745693915192009,0.6450935629452514,10.521178766373453,-0.16782323066076774,0.238,0.9999999999959038,298.46528981938764,1.3212875115672829,266,2026-10-07 20:17:02.547244,28.8,0.4278069740159602,0.1878320737408522,0.219643329771396
0515,cdot_cos,R,Q-R,267,53,46494,-0.051693068736833284,0.41011778711193037,-0.04156530741047586,0.23199492345880152,999.0,9.782826869807062,0.6453573472464854,10.545247492696232,-0.11971932366501042,0.031,0.9999999999958251,182.36076510516114,1.326254622124098,267,2026-10-07 20:17:02.578244,28.8,0.6691107393384526,2.180915969064825,1.1978372456468835
0515,cdot_cos,S,R-S,268,53,46553,0.0854982799540854,-0.07960686783087945,0.1371913486909187,0.9811296155185232,999.0,9.880910705274028,0.6464719387992123,10.583223288404945,-0.31796625128954903,0.059,0.9999999999958127,-177.8650907047743,1.3312218008346897,268,2026-10-07 20:17:02.637243,28.8,0.5360734034569304,0.9930519696958039,1.662437889270606
0515,cdot_cos,T,S-T,269,53,46765,-0.08044891543634244,-0.020776322933602338,-0.16594719539042785,0.00833204646230112,999.0,9.900007002231167,0.6464813974491979,10.603104888282209,-0.06227423730423476,0.212,0.9999999999957222,27032.61188172104,1.3361893489691508,269,2026-10-07 20:17:02.849244,28.8,0.016475125491386525,0.2738875804979976,0.09007687243933539
0515,cdot_cos,P,T-P,270,54,47224,0.03328824281419246,0.003205642426969624,0.1137371582505349,0.9635832536280731,858.0,9.997039039405179,0.6475744948916888,10.640756697259986,-0.3178372214857802,0.459,0.9999999999957064,-233.7970744851096,1.3411574992733404,270,2026-10-07 20:17:03.308243,28.8,0.44750446154305584,0.14275604803685396,0.21139877379959013
0515,cdot_cos,Q,P-Q,271,54,47311,-0.01710791940150978,-0.012606764031696176,-0.05039616221570224,0.18978474170873616,858.0,10.031057054328999,0.6477896067977901,10.66398557001333,-0.11213184413367164,0.087,0.9999999999956155,956.2714639109561,1.3461247455018563,271,2026-10-07 20:17:03.395243,28.8,0.15969402732511243,0.7725653785006857,0.3910116657910352
0515,cdot_cos,R,Q-R,272,54,47343,0.3418529201635005,0.41033827550128904,0.3589608395650103,0.9999676243692538,858.0,10.131465415264298,0.6489220307324123,10.702319168306166,-0.3327014845650816,0.032,0.9999999999956007,-194.77656175202202,1.3510918579773803,272,2026-10-07 20:17:03.427244,28.8,0.5153208290294878,1.8596796766573997,3.1377612792281018
0515,cdot_cos,S,R-S,273,54,47393,-0.0003892621914941462,-0.0011545363545858202,-0.34224218235499465,5.23987798624267e-05,858.0,10.150076553635072,0.6489220900281927,10.721975458663488,-0.06203181868037132,0.05,0.9999999999955055,4564737.390638747,1.3560590162159176,273,2026-10-07 20:17:03.477243,28.8,0.012735009106320996,0.3718532168620925,0.37222276741548654
0515,cdot_cos,T,S-T,274,54,47622,-0.38628040211400133,-0.06841813427412008,-0.3858911399225072,1.4906998804426744e-05,858.0,10.168650736950507,0.6489221068973274,10.741595120693324,-0.062022151153453504,0.229,0.9999999999954104,573.0896728135406,1.361026619639222,274,2026-10-07 20:17:03.706244,28.8,0.9998441399834089,0.26088371680294786,0.08110997080975949
0515,cdot_cos,P,T-P,275,55,48082,0.013615728128480418,0.00021751160291589552,0.3998961302424818,0.9999900408468012,936.0,10.269561295930822,0.6500528819982737,10.779930838519844,-0.3384344048775061,0.46,0.9999999999953962,-244.44494178616006,1.3659948051248016,275,2026-10-07 20:17:04.166244,28.8,0.44187066908892325,0.15315896279898025,0.21937078039198957
0515,cdot_cos,Q,P-Q,276,55,48179,-0.02296164024619952,-0.017225581937836437,-0.03657736837467994,0.25856733413839195,936.0,10.309556982725569,0.650344992757385,10.804366652602546,-0.1350105080971264,0.097,0.9999999999953075,696.3930305041622,1.3709620798898359,276,2026-10-07 20:17:04.263244,28.8,0.22163433391917106,0.7284490301123209,0.4123266679870787
0515,cdot_cos,R,Q-R,277,55,48211,0.3046143318130733,0.3622217479082907,0.3275759720592728,0.9999200626964208,936.0,10.410880407772613,0.6514735674308259,10.842705381076412,-0.3438627671289698,0.032,0.9999999999952914,-185.05843161895945,1.3759291911006064,277,2026-10-07 20:17:04.295244,28.8,0.5447812395870917,1.8767479074035531,3.166357032720113
0515,cdot_cos,S,R-S,278,55,48270,0.0011755143492226938,-0.06483211628389005,-0.3034388174638506,0.00016018228049869977,936.0,10.429668848799396,0.6514737480872772,10.862262409164826,-0.06413230734280553,0.059,0.9999999999951913,1548411.128911249,1.3808963726993988,278,2026-10-07 20:17:04.354244,28.8,0.012755772885115535,0.3435522077836625,0.3184481529963354
0515,cdot_cos,T,S-T,279,55,48482,-0.11270982090129532,0.058279221291776685,-0.11388533525051801,0.03626729335743212,936.0,10.451419568291085,0.6515146498706289,10.882464542338774,-0.07438406309302327,0.212,0.9999999999950948,-250.643246091907,1.3858639476724455,279,2026-10-07 20:17:04.566243,28.8,0.8712538149156414,0.2871098256910965,0.10259773345136032
0515,cdot_cos,P,T-P,280,56,49018,0.018681194765263948,-0.00266362626918075,0.13139101566655925,0.9777749880561759,898.0,10.551403414892421,0.6526165287292628,10.920387995701013,-0.34341445553432104,0.536,0.9999999999950784,-244.15605248551788,1.3908323649263996,280,2026-10-07 20:17:05.102243,28.8,0.45685073200194676,0.12887830828816094,0.18653702724129947
0515,cdot_cos,Q,P-Q,281,56,49103,-0.022820306599838313,-0.014715945052521828,-0.041501501365102264,0.23232249842482924,898.0,10.589577114775993,0.6528780990686532,10.944257035543178,-0.13193122123673323,0.085,0.9999999999949801,808.5138199935752,1.3957996118740392,281,2026-10-07 20:17:05.187244,28.8,0.20129557079536278,0.8259438116048802,0.44910235157143524
0515,cdot_cos,R,Q-R,282,56,49132,0.34562910281027653,0.3619061014454239,0.36844940941011484,0.9999753656223641,898.0,10.691813862865251,0.6540029096775177,10.982602337213983,-0.355142758507465,0.029,0.9999999999949627,-198.44366288122626,1.4007667133679393,282,2026-10-07 20:17:05.216243,28.8,0.5333848096653978,2.0893208864888133,3.5254051065261254
0515,cdot_cos,S,R-S,283,56,49189,-0.0028732174720895627,-0.034688543114979556,-0.3485023202823661,4.37547412400759e-05,898.0,10.710757726192345,0.654002958856979,11.002058601044387,-0.0661806687426895,0.057,0.9999999999948566,5875666.024743985,1.405733890153739,283,2026-10-07 20:17:05.273243,28.8,0.012698628860908228,0.34307745325015826,0.3323484794226934
0515,cdot_cos,T,S-T,284,56,49400,-0.1480509365489916,0.0798078314617721,-0.14517771907690202,0.015051402038867278,898.0,10.730924692535769,0.6540198761389708,11.02176485072406,-0.07058070887052258,0.211,0.9999999999947522,-260.091433716101,1.410701475695587,284,2026-10-07 20:17:05.484244,28.8,0.9395628652677698,0.2891741459062205,0.09557803954229631
0515,cdot_cos,P,T-P,285,57,49916,0.010293350390529072,-0.0005664746011090767,0.15834428693952066,0.9896494943819619,839.0,10.83278921576477,0.6551313531285684,11.059916526463931,-0.35799123993465903,0.516,0.999999999994735,-258.5843285592429,1.4156698797578,285,2026-10-07 20:17:06.000243,28.8,0.4480536238727614,0.13824319366861818,0.19741186672286923
0515,cdot_cos,Q,P-Q,286,57,50003,-0.026091206060791995,-0.01850681742768939,-0.03638455645132107,0.25963332447575643,839.0,10.873591668401783,0.6554226676464617,11.084230476248663,-0.1442865586970714,0.087,0.9999999999946351,733.5874737140362,1.4206371349793074,286,2026-10-07 20:17:06.087244,28.8,0.22738449469880248,0.8272522146555263,0.4689937084714188
0515,cdot_cos,R,Q-R,287,57,50031,0.3308785497060512,0.3907060218358784,0.3569697557668432,0.9999657136503717,839.0,10.976731101114831,0.6565435596639225,11.12258075862471,-0.366573907532175,0.028,0.9999999999946165,-198.31290202124973,1.425604231923605,287,2026-10-07 20:17:06.115244,28.8,0.545315022310719,2.183084833949911,3.6835511683231483
0515,cdot_cos,S,R-S,288,57,50088,0.003987052825013616,-0.07299839574764734,-0.3268914968810376,8.152860301082164e-05,839.0,10.995844419102978,0.65654365098094,11.141942742927018,-0.06831196041369267,0.057,0.999999999994505,3266225.2368024164,1.430571409288824,288,2026-10-07 20:17:06.172243,28.8,0.012699729181795062,0.3369771524272935,0.3353213682131028
0515,cdot_cos,T,S-T,289,57,50299,-0.20121029408866892,-0.02354869829696338,-0.20519734691368252,0.0027057044846778918,839.0,11.015146496491543,0.6565466815287324,11.161321181720712,-0.06910691502342568,0.211,0.9999999999943937,-262.3138337337311,1.4355390084807607,289,2026-10-07 20:17:06.383244,28.8,0.9885626524119809,0.29092690042607805,0.09147903975623033
0515,cdot_cos,P,T-P,290,58,50755,0.016261233010245936,-0.001462447863750062,0.21747152709891485,0.9980984450744347,941.0,11.118615571082783,0.6576637387549193,11.19963788028701,-0.37193438432213455,0.456,0.9999999999943768,-271.0939620635263,1.4405072867201405,290,2026-10-07 20:17:06.839243,28.8,0.44299537473104417,0.1583890335676209,0.22690586533166737
0515,cdot_cos,Q,P-Q,291,58,50841,-0.020498259647621222,-0.012624373004003993,-0.036759492657867154,0.25756305348009684,941.0,11.159597295105213,0.6579517167138714,11.223844426417665,-0.14821631287960266,0.086,0.9999999999942737,776.8583132425059,1.4454745428306361,291,2026-10-07 20:17:06.925244,28.8,0.22104201373505158,0.8431176007848565,0.476531674679418
0515,cdot_cos,R,Q-R,292,58,50870,0.3404709971245836,0.3338131252063033,0.3609692567722048,0.999969443867367,941.0,11.263631798417778,0.6590686654000281,11.262199320275542,-0.3781088348456282,0.029,0.999999999994255,-205.8219189612673,1.450441641226543,292,2026-10-07 20:17:06.954243,28.8,0.5444352739393145,2.126015569113657,3.5873966659505294
0515,cdot_cos,S,R-S,293,58,50927,-0.005600990184157622,-0.028378655989192897,-0.3460719873087412,4.692686826365079e-05,941.0,11.282906198113805,0.6590687177752254,11.281468289232057,-0.0704373194334461,0.057,0.9999999999941392,5874374.347592776,1.455408819726245,293,2026-10-07 20:17:07.011244,28.8,0.012676333667622334,0.3535340360493091,0.3381473630881883
0515,cdot_cos,T,S-T,294,58,51137,-0.13896273348450408,0.09656728982367578,-0.13336174330034645,0.021024499696773592,941.0,11.3039346785274,0.6590921828823064,11.301105917560067,-0.07698231329874529,0.21,0.9999999999940253,-278.9245257943102,1.4603764305300395,294,2026-10-07 20:17:07.221244,28.8,0.9184944203594282,0.2962101857384457,0.1001356210171167
0515,cdot_cos,P,T-P,295,59,51696,0.01030112546356097,-0.0006447584703263199,0.14926385894806504,0.9865972122617149,958.0,11.407314476123952,0.6601924299212216,11.339206873537558,-0.379947825979797,0.559,0.9999999999940073,-275.3613524647727,1.4653450374930177,295,2026-10-07 20:17:07.780244,28.8,0.4505045301093353,0.13094888024797086,0.18493702611190105
0515,cdot_cos,Q,P-Q,296,59,51783,-0.022958738637990424,-0.01392402105798319,-0.03325986410155139,0.2773020360247796,958.0,11.450335526644631,0.6605013650526667,11.36372590879926,-0.15906267145760855,0.087,0.9999999999938984,714.9887857978695,1.4703122991492976,296,2026-10-07 20:17:07.867244,28.8,0.2494074309180648,0.8502674895980114,0.49449483357101987
0515,cdot_cos,R,Q-R,297,59,51812,0.3382329373695243,0.3252300518395751,0.36119167600751473,0.9999696389685035,958.0,11.555261019314006,0.6616142701283447,11.402084716971668,-0.3898298106606308,0.029,0.9999999999938775,-207.35563548618032,1.4752793952836676,297,2026-10-07 20:17:07.896243,28.8,0.5532369221959995,2.1442496078534976,3.618120436875008
0515,cdot_cos,S,R-S,298,59,51865,-0.006470363213308196,-0.04718228634789008,-0.3447033005828325,4.881348889749897e-05,958.0,11.574702003900134,0.6616143244112734,11.421264917519876,-0.07261972621630204,0.053,0.9999999999937544,5843643.517341785,1.4802465623504029,298,2026-10-07 20:17:07.949243,28.8,0.012675325497599768,0.38576238815641706,0.36681102992693665
0515,cdot_cos,T,S-T,299,59,52095,-0.13540775880452907,0.09637987947582925,-0.1289373955912209,0.023813593321550326,958.0,11.596151832458586,0.661640805755973,11.440869991796925,-0.08026210823788459,0.23,0.9999999999936355,-288.5949376174564,1.4852142450617076,299,2026-10-07 20:17:08.179244,28.8,0.9091748872270102,0.2731142307293109,0.09326012416718507
0515,cdot_cos,P,T-P,300,60,52654,0.011637776613075844,-0.00013040621056312747,0.14704553541760493,0.9857256158074718,896.0,11.700334550035617,0.6627360687030532,11.478956821228524,-0.39132736752263647,0.559,0.9999999999936137,-284.0096618935006,1.4901828962987549,300,2026-10-07 20:17:08.738244,28.8,0.4516273937751702,0.13276150819259355,0.18637337670309562
0515,cdot_cos,Q,P-Q,301,60,52744,-0.019915987617753775,-0.014625201412216375,-0.03155376423082962,0.28725601956728064,896.0,11.744579198617906,0.6630549178604884,11.50360554934498,-0.16717136426727536,0.09,0.9999999999935001,703.0158243429777,1.4951501695153788,301,2026-10-07 20:17:08.828243,28.8,0.2616164970300515,0.8336352215953488,0.49160720646987954
0515,cdot_cos,R,Q-R,302,60,52776,0.3301006788519009,0.3893356640998503,0.3500166664696547,0.9999581124488073,896.0,11.85038888992278,0.6641636955735996,11.541967244296691,-0.401690143422478,0.032,0.9999999999934769,-211.511086831971,1.5001172721545268,302,2026-10-07 20:17:08.860243,28.8,0.5577580255818079,1.9596844213786158,3.3065528532773003
0515,cdot_cos,S,R-S,303,60,52825,0.0009672901033823439,-0.04006738249635612,-0.32913338874851855,7.64313175509488e-05,896.0,11.869999001586137,0.6641637802535566,11.561062113588505,-0.0748426431674149,0.049,0.9999999999933463,3859797.662342897,1.5050844269025976,303,2026-10-07 20:17:08.909244,28.8,0.012687610597164238,0.41539116429479167,0.4002063604766898
0515,cdot_cos,T,S-T,304,60,53054,-0.13862898150667047,0.06059747706277143,-0.1395962716100528,0.017629885705671262,896.0,11.89109722402367,0.6641833125140891,11.580464628707826,-0.08065792200020262,0.229,0.9999999999932182,-297.7268720690589,1.5100521220587195,304,2026-10-07 20:17:09.138243,28.8,0.9304396624273584,0.27593395847525737,0.0921319757097458
0515,cdot_cos,P,T-P,305,61,53550,0.015528132721382544,-0.0013636137470207203,0.154157114228053,0.9883384130621877,859.0,11.996376754567805,0.6652773990313543,11.618603616608256,-0.4039666513590914,0.496,0.9999999999931958,-295.50563347316137,1.515020627711613,305,2026-10-07 20:17:09.634243,28.8,0.4491783757897169,0.1474143469798497,0.21225711803253242
0515,cdot_cos,Q,P-Q,306,61,53636,-0.02352352125921577,-0.016004742608127186,-0.039051653980598316,0.2451428110572657,859.0,12.03733225622768,0.6655484968708564,11.642378311577021,-0.15804828495550222,0.086,0.9999999999930732,907.1203476031582,1.5199878922819743,306,2026-10-07 20:17:09.720243,28.8,0.21098465968433833,0.8583573104884266,0.4762267634869166
0515,cdot_cos,R,Q-R,307,61,53665,0.33732791887571434,0.37807463542527364,0.3608514401349301,0.999969340013853,859.0,12.144014211971815,0.6666532067098504,11.68074241707034,-0.4135339744188754,0.029,0.9999999999930486,-231.26949760493227,1.5249549841469023,307,2026-10-07 20:17:09.749243,28.8,0.5391234817478362,2.1801563853915424,3.678688129108087
0515,cdot_cos,S,R-S,308,61,53722,-0.00288572280663023,-0.041013468374433294,-0.3402136416823446,5.555103373125591e-05,859.0,12.16378132658039,0.6666532680288292,11.69975199861907,-0.07702462846676388,0.057,0.9999999999929128,5487849.80813795,1.5299221635688727,308,2026-10-07 20:17:09.806243,28.8,0.012665748881524613,0.3474957776432001,0.3467914843609639
0515,cdot_cos,T,S-T,309,61,53933,-0.23257405960110097,-0.010474960710412056,-0.22968833679447073,0.0013382890823139427,859.0,12.18362873062314,0.6666547452727205,11.718755713144573,-0.07746334893869644,0.211,0.999999999992777,-296.98580884940793,1.5348898188015392,309,2026-10-07 20:17:10.017244,28.8,0.9943524201562887,0.3008691755868169,0.09406352626895674
0515,cdot_cos,P,T-P,310,62,54409,0.037326207026269265,0.0021176298910077843,0.2699002666273702,0.9995792822956171,901.0,12.290748118678026,0.6677571953524833,11.757113794737249,-0.41956317086478256,0.476,0.9999999999927551,-310.3086735679487,1.539858301588151,310,2026-10-07 20:17:10.493243,28.8,0.44247494907977486,0.14922613232953527,0.2250407312077455
0515,cdot_cos,Q,P-Q,311,62,54493,-0.0170613625286309,-0.010816908349524595,-0.054387569554900164,0.17273563555593371,901.0,12.325692008600857,0.6679475222221553,11.779419169157487,-0.13762252494020547,0.084,0.9999999999926196,1481.3496718072197,1.5448255632490626,311,2026-10-07 20:17:10.577244,28.8,0.1289085693397408,0.8480962987926142,0.4159986895575084
0515,cdot_cos,R,Q-R,312,62,54523,0.35952831669480756,0.3707072629233301,0.37658967922343844,0.9999805137651747,901.0,12.433228296875185,0.6690482606019699,11.817784901362094,-0.4252577972116838,0.03,0.9999999999925961,-261.3112048658844,1.5497926566825944,312,2026-10-07 20:17:10.607244,28.8,0.5084549826687315,2.1241329020744124,3.5845429424776163
0515,cdot_cos,S,R-S,313,62,54581,-0.0006096935112760677,-0.0015971954186218714,-0.3601380102060836,3.129644669851374e-05,901.0,12.453139982725322,0.6690482950229845,11.836709079590484,-0.0791473155853103,0.058,0.9999999999924538,10055208.590075566,1.5547598400878482,313,2026-10-07 20:17:10.665244,28.8,0.012613459966147664,0.3432601096997841,0.343304928450625
0515,cdot_cos,T,S-T,314,62,54791,-0.2790171350916195,0.0869725610711424,-0.2784074415803435,0.00032932557813607037,901.0,12.47304646960036,0.6690486572275903,11.85560893774129,-0.07925320850873446,0.21,0.9999999999923126,-292.3566451388291,1.559727506136336,314,2026-10-07 20:17:10.875243,28.8,0.9986647580163188,0.3045008147908143,0.09479279464304148
0515,cdot_cos,P,T-P,315,63,55310,0.009175095647362401,-0.0006174858012978245,0.2881922307389819,0.9997515290814081,936.0,12.581030324937464,0.6701472965578162,11.893971581931522,-0.43139087747316607,0.519,0.9999999999922915,-320.5216300530777,1.5646961631293959,315,2026-10-07 20:17:11.394243,28.8,0.44207114035124406,0.14640787230533464,0.2080613782988503
0515,cdot_cos,Q,P-Q,316,63,55395,-0.024987575759627234,-0.015263546269462323,-0.034162671406989635,0.27212160783140543,936.0,12.625017841053298,0.6704460135626563,11.918147294205003,-0.1767129340043821,0.085,0.9999999999921614,852.5726334365538,1.5696634308626094,316,2026-10-07 20:17:11.479244,28.8,0.2366446028653351,0.896373053176823,0.5175001895980478
0515,cdot_cos,R,Q-R,317,63,55425,0.3381005930199032,0.3309305413148803,0.36308816877953043,0.9999712527373815,936.0,12.733413743977524,0.6715425322043769,11.956513228920405,-0.43735215963478313,0.03,0.9999999999921372,-237.6970310522308,1.5746305224402168,317,2026-10-07 20:17:11.509243,28.8,0.551039830518765,2.141143265794051,3.613196764140862
0515,cdot_cos,S,R-S,318,63,55482,-0.005711633148166762,-0.06304941223753659,-0.34381222616806995,5.008233548228994e-05,936.0,12.75348643700094,0.6715425870754878,11.975358172421306,-0.08139914275058599,0.057,0.999999999991989,6487075.096415613,1.579597703264388,318,2026-10-07 20:17:11.566243,28.8,0.012614185839314849,0.3792644097954042,0.35215250918275764
0515,cdot_cos,T,S-T,319,63,55709,-0.12063140333049159,0.0776090355576362,-0.11491977018232483,0.03524027822229665,936.0,12.7766498866942,0.6715811957995034,11.994862179636458,-0.09408648889847168,0.227,0.9999999999918454,-328.6134538596121,1.5845654393844542,319,2026-10-07 20:17:11.793243,28.8,0.8738489932237209,0.2862626030399268,0.10204162860466474
0515,cdot_cos,P,T-P,320,64,56246,0.00912351098821907,-0.0004969193484508961,0.12975491431871067,0.9767276418470348,901.0,12.883449658781068,0.6726503598164492,12.032774418032576,-0.4352845431974003,0.537,0.9999999999918191,-319.1260170479798,1.5895341982453788,320,2026-10-07 20:17:12.330244,28.8,0.4566442630444507,0.14243420981422866,0.19888225714500532
0515,cdot_cos,Q,P-Q,321,64,56331,-0.021502176592787914,-0.013745244997190195,-0.030625687581006984,0.29275940115414867,901.0,12.929624228034681,0.6729704774021783,12.057297674862722,-0.1892209525954484,0.085,0.9999999999916855,768.6662700566299,1.5945014688066925,321,2026-10-07 20:17:12.415244,28.8,0.27242184637293004,0.9142888627569563,0.5432302265131028
0515,cdot_cos,R,Q-R,322,64,56360,0.3488411452694136,0.3615096365198742,0.37034332186220154,0.9999766732782108,901.0,13.03887876544975,0.6740626858247192,12.095662929580191,-0.44963907112686896,0.029,0.9999999999916588,-238.4326225260131,1.5994685548631105,322,2026-10-07 20:17:12.444243,28.8,0.5603624554525699,2.232571132425449,3.7673978418989256
0515,cdot_cos,S,R-S,323,64,56418,-0.000835729454899438,-0.046689684195586105,-0.3496768747243131,4.229945769630435e-05,901.0,13.059113353715357,0.6740627319857702,12.114431241033282,-0.08369130649681292,0.058,0.9999999999915035,7927630.694013216,1.60443573937404,323,2026-10-07 20:17:12.502244,28.8,0.012618517042006287,0.3792548580595978,0.3488722114759862
0515,cdot_cos,T,S-T,324,64,56629,-0.11135988596463214,0.05923690023346011,-0.1105241565097327,0.03980684031550463,901.0,13.082872328984664,0.6741061713670029,12.13395168393779,-0.09842717670084272,0.211,0.9999999999913539,-339.22836343077137,1.6094034378243967,324,2026-10-07 20:17:12.713243,28.8,0.8609546650742109,0.30998759850046537,0.1126017785275173
0515,cdot_cos,P,T-P,325,65,57147,0.009599277513907475,-0.0005150002675761294,0.12095916347853962,0.9702182110438319,919.0,13.189928120282554,0.6751639999861102,12.171733174425688,-0.4449725539281709,0.518,0.9999999999913252,-327.6006821594372,1.6143721773941397,325,2026-10-07 20:17:13.231244,28.8,0.4589556528359635,0.14746467096073718,0.20667141177198883
0515,cdot_cos,Q,P-Q,326,65,57236,-0.022576061679112667,-0.015189644274723137,-0.03217533919302014,0.2836048978230018,919.0,13.235645728099987,0.6754728776259954,12.196022794959353,-0.19103391310088386,0.089,0.999999999991186,822.1334536280445,1.619339464783641,326,2026-10-07 20:17:13.320243,28.8,0.264666256079361,0.8753938616332718,0.513680986712736
0515,cdot_cos,R,Q-R,327,65,57266,0.32420694634342556,0.3476992419586871,0.34678300802253825,0.9999540242561358,919.0,13.345748227653276,0.6765607206751746,12.2343857009277,-0.46197414194378916,0.03,0.9999999999911581,-249.06187436444708,1.624306552282729,327,2026-10-07 20:17:13.350244,28.8,0.5562799873242357,2.17500662982643,3.6700833184429626
0515,cdot_cos,S,R-S,328,65,57317,-0.0027211301615116786,-0.05348359435924449,-0.3269280765049372,8.144276540223883e-05,919.0,13.366146125889573,0.6765608091986703,12.25307999335947,-0.08600706561075704,0.051,0.9999999999909961,4247087.9976267805,1.629273713351513,328,2026-10-07 20:17:13.401243,28.8,0.012634159684696401,0.40237139792244714,0.399958788946998
0515,cdot_cos,T,S-T,329,65,57547,-0.20257800390105377,0.017923848837121316,-0.19985687373954208,0.00315414727838648,919.0,13.386790110241366,0.6765642375615197,12.271806458847728,-0.08717793392808244,0.23,0.9999999999908352,-341.5240360377882,1.6342414920620396,329,2026-10-07 20:17:13.631244,28.8,0.986659002954448,0.2848691813084684,0.08975645370344656
0515,cdot_cos,P,T-P,330,66,58066,0.015524113696876223,-0.0005776511496083552,0.21810211759793,0.998132603620966,979.0,13.497185949291469,0.6776481918217759,12.310133948899606,-0.4676530489498759,0.519,0.9999999999908089,-351.00661436753273,1.639210277911317,330,2026-10-07 20:17:14.150244,28.8,0.4432664757789914,0.1490292576185382,0.21270874576127696
0515,cdot_cos,Q,P-Q,331,66,58155,-0.02008017632835155,-0.012368684325311333,-0.035604290025227775,0.26397619123132227,979.0,13.541482479649408,0.6779345466270323,12.333982703536991,-0.18863858270652278,0.089,0.9999999999906601,974.3662796003022,1.6441775686335893,331,2026-10-07 20:17:14.239244,28.8,0.22784369499403068,0.8721294038449093,0.4977138242465158
0515,cdot_cos,R,Q-R,332,66,58184,0.33070876964776336,0.3170189581170999,0.35078894597611493,0.9999590337749973,979.0,13.652424983175862,0.6790180645588705,12.372342734358153,-0.4743234639003482,0.029,0.9999999999906309,-263.6641930873941,1.6491446505152485,332,2026-10-07 20:17:14.268243,28.8,0.5475509827243735,2.2671261870472135,3.8256035698777224
0515,cdot_cos,S,R-S,333,66,58236,-0.005747725724830015,-0.033524557204140576,-0.33645649537259337,6.189884933784604e-05,979.0,13.672975798498147,0.6790181315706276,12.390962946379753,-0.08828806768647128,0.052,0.999999999990462,5760711.443342356,1.654111814982929,333,2026-10-07 20:17:14.320243,28.8,0.012620249424138912,0.4210222070584703,0.3952079869670081
0515,cdot_cos,T,S-T,334,66,58465,-0.12647915090150882,0.10082855592569745,-0.12073142517667881,0.029971891830687068,979.0,13.696211292709943,0.6790505783045977,12.410147055701135,-0.09997625656165364,0.229,0.9999999999902974,-360.2269764951906,1.659079606616969,334,2026-10-07 20:17:14.549243,28.8,0.8896655733772469,0.2901507740798833,0.10146504022618555
0515,cdot_cos,P,T-P,335,67,59045,0.009996427691069143,-0.00032872380887879164,0.13647557859257797,0.9807441491291689,978.0,13.805864853026733,0.6801113489125188,12.448127006914783,-0.47327129301127824,0.58,0.9999999999902668,-351.90929467890516,1.6640486532783694,335,2026-10-07 20:17:15.129244,28.8,0.45441024372177424,0.1342863344005015,0.1890578626151553
0515,cdot_cos,Q,P-Q,336,67,59134,-0.022746482049014242,-0.014344398371907008,-0.032742909740083384,0.28029560223085137,978.0,13.851983440614525,0.680414174599695,12.4722449469138,-0.2000777371135174,0.089,0.9999999999901116,902.1478938766252,1.6690159467539094,336,2026-10-07 20:17:15.218244,28.8,0.25526908527733744,0.8870610696188125,0.5181863773909173
0515,cdot_cos,R,Q-R,337,67,59165,0.3201491844590912,0.317077881918159,0.34289566650810543,0.999948578110924,978.0,13.963761723418882,0.6814932584065676,12.510600441164012,-0.48682328593472335,0.031,0.9999999999900789,-265.73056420172816,1.6739830330603438,337,2026-10-07 20:17:15.249243,28.8,0.5548743285613948,2.1368992847198323,3.6057510582050636
0515,cdot_cos,S,R-S,338,67,59214,-0.007558810981312164,-0.06877484035793544,-0.32770799544040335,7.963396136287379e-05,978.0,13.984471196267155,0.6814933442654076,12.52914994849174,-0.09062501085619233,0.049,0.9999999999899009,4614530.954585667,1.6789501859661389,338,2026-10-07 20:17:15.298244,28.8,0.012627951971398705,0.4767586331041213,0.42264230302597194
0515,cdot_cos,T,S-T,339,67,59443,-0.10409549257090125,0.07726296044177891,-0.09653668158958909,0.05840045291291625,978.0,14.010484069463086,0.6815563064826323,12.548829771698294,-0.11401097360680232,0.229,0.9999999999897327,-371.4285135028922,1.6839179937124105,339,2026-10-07 20:17:15.527244,28.8,0.8145493370870237,0.29483207300421144,0.1135933327333243
