record_id,input,event,transition,event_index,k,peak,value_cos,value_sin,value_return,x_input,rr,knowledge,decision,decision_norm,entropy,delta_t,cosine_similarity,delta_h_over_delta_d,frobenius_norm,matrix_size,timestamp,scale,P,zdot,zdot_back
0395,cdot_cos,Q,P-Q,1,0,810,-0.01760985569656206,-0.015201647226818615,-0.06452944569925907,0.16613980239960824,754.0,0.0008252399123037497,0.5002063099663675,0.5002063099663675,,,1.0,,0.004967141530112327,1,2026-10-07 22:16:16.894243,25.0,,,
0395,cdot_cos,R,Q-R,2,0,857,0.05534515832719566,0.14707417799126987,0.07295501402375772,0.8610304889270802,754.0,0.007215459317169729,0.5012755222861658,0.7089106421027523,-9.2659790196393e-06,,1.0,,0.009934283060224654,2,2026-10-07 22:16:16.941243,25.0,,,
0395,cdot_cos,S,R-S,3,0,882,0.0007018043699149056,-0.10343676712236692,-0.05464335395728075,0.20325329644898218,754.0,0.010585754313492856,0.5015279172696302,0.8686718341252,-1.0819271625590373e-05,0.025,1.0000000000000002,-0.006154213465855592,0.014901424593601107,3,2026-10-07 22:16:16.966244,25.0,0.8662625795706235,0.10109495970811556,0.13481179985292505
0395,cdot_cos,T,S-T,4,0,1097,-0.21339716856717042,-0.03402622944712479,-0.21409897293708532,0.004714089168559365,754.0,0.012270207302575508,0.5015337711017777,1.003067542203921,-6.942867198043849e-06,0.215,1.0000000000000002,0.6621994498470686,0.01986856616089431,4,2026-10-07 22:16:17.181243,25.0,0.5721643251072239,0.033075270730711856,0.007834665065500707
0395,cdot_cos,P,T-P,5,1,1460,0.04523112302144898,-0.003297298796970035,0.2586282915886194,0.998446526629629,743.0,0.024808120727698953,0.5027736037647917,1.1242359553160166,-8.383330673118775e-05,0.363,1.0,-0.06201678809317709,0.024835707815768025,5,2026-10-07 22:16:17.544243,25.0,0.3996434628018641,0.023165297379528948,0.03453970640529875
0395,cdot_cos,Q,P-Q,6,1,1572,-0.021946440526485783,-0.018892181732547593,-0.06717756354793476,0.15716975707360237,743.0,0.029088213200113525,0.5029687684334873,1.2320168392336572,-4.1598878111128194e-05,0.112,1.0,0.21640406997001962,0.029802849401426915,6,2026-10-07 22:16:17.656243,25.0,0.3623016711452425,0.07975271260127596,0.03821511136084439
0395,cdot_cos,R,Q-R,7,1,1611,0.04946228214277147,0.14331908785905717,0.07140872266925725,0.8563399962891969,743.0,0.04267272835038477,0.5040321064033282,1.3335436063598185,-0.00017578773849373085,0.039,1.0,-0.12619587016409936,0.03476999094411378,7,2026-10-07 22:16:17.695244,25.0,0.46609894477433245,0.25718123758171785,0.3483209012890063
0395,cdot_cos,S,R-S,8,1,1639,0.0057752855609196265,-0.11163516923383351,-0.04368699658185184,0.25120894908735275,743.0,0.04914834973148752,0.504344032107996,1.426500340646548,-0.00010721995114773515,0.028,0.9999999999999998,0.21982089427033516,0.03973713249254775,8,2026-10-07 22:16:17.723244,25.0,0.5275530433393513,0.17112874921397475,0.231272192182241
0395,cdot_cos,T,S-T,9,1,1857,-0.18472510393140482,-0.08618421557222011,-0.19050038949232445,0.008471755069695075,743.0,0.05225593830636736,0.5043545514135983,1.513063654275486,-5.68239535202851e-05,0.218,1.0000000000000002,4.790810299936483,0.044704274400374486,9,2026-10-07 22:16:17.941243,25.0,0.41193921896851915,0.04953455838963439,0.014254993462751558
0395,cdot_cos,P,T-P,10,2,2203,0.049674271221670424,-0.0035436683120029407,0.23439937515307524,0.9971568185071072,747.0,0.07074541718936811,0.5055926830197428,1.5988244467627555,-0.00041007640481460165,0.346,1.0000000000000002,-0.2853109068060487,0.04967141671611193,10,2026-10-07 22:16:18.287244,25.0,0.42255704893886425,0.03584357513064675,0.05343780023988657
0395,cdot_cos,Q,P-Q,11,2,2308,-0.012715706821720022,-0.010386191602998127,-0.06238997804339044,0.1736826020967853,747.0,0.07705969229677491,0.5058083314985719,1.6775764516403995,-0.00016828247417261826,0.105,1.0,1.1212410676620885,0.054638558465023974,11,2026-10-07 22:16:18.392244,25.0,0.23767913106153502,0.11605491414741718,0.06013595340387429
0395,cdot_cos,R,Q-R,12,2,2353,0.05676039057707866,0.1549397001576601,0.06947609739879868,0.8502931896080821,747.0,0.09511694916032572,0.5068640431967049,1.7558285509693348,-0.0005605685194798111,0.045,1.0000000000000002,-0.3715844448829515,0.05960570004430579,12,2026-10-07 22:16:18.437243,25.0,0.4966844576748282,0.2808950850909428,0.40127237474557353
0395,cdot_cos,S,R-S,13,2,2381,-0.0021663698286849766,-0.0899607952795072,-0.05892676040576363,0.18646141782844636,747.0,0.10234024995495976,0.5070955431344321,1.8283589826293911,-0.0002571613840736528,0.028,1.0000000000000002,1.3106143283878418,0.0645728415869474,13,2026-10-07 22:16:18.465244,25.0,0.30733047892651855,0.19863569003653073,0.2579750283797872
0395,cdot_cos,T,S-T,14,2,2616,-0.25079956028459266,-0.16663166733367857,-0.24863319045590768,0.0019935758821191777,747.0,0.10624054780237144,0.5070980182290953,1.8973870460427265,-0.00014667939783309064,0.235,0.9999999999999998,44.637479075921014,0.06953998423559316,14,2026-10-07 22:16:18.700243,25.0,0.4708475606942776,0.05714198280051149,0.016597012116645445
0395,cdot_cos,P,T-P,15,3,2950,0.05130226892393014,-0.005188007715876864,0.3021018292085228,0.9994755027457168,744.0,0.12919698187120016,0.5083388559023816,1.9687879237131758,-0.0009744147695443004,0.334,1.0000000000000002,-0.6670778857954763,0.07450712766864101,15,2026-10-07 22:16:19.034244,25.0,0.4276418477971731,0.04567806926104987,0.0687318385294273
0395,cdot_cos,Q,P-Q,16,3,3066,-0.012959399756597434,-0.01166263625191498,-0.06426166868052757,0.16706930445514648,744.0,0.13675349806875275,0.5085462609700079,2.0341850448306285,-0.00036230977258189007,0.116,0.9999999999999998,2.9512538144214076,0.0794742697825413,16,2026-10-07 22:16:19.150244,25.0,0.1846206546171828,0.1262009321824541,0.06514238101338447
0395,cdot_cos,R,Q-R,17,3,3097,0.05806064048722215,0.14986360676678162,0.07102004024381958,0.855140441819068,744.0,0.1584755981375295,0.5096078115002111,2.1011668355663424,-0.0011560726594196913,0.031,1.0,-0.7477391459508523,0.08444141127318064,17,2026-10-07 22:16:19.181243,25.0,0.5032828504336665,0.4867716763693849,0.7007129054444114
0395,cdot_cos,S,R-S,18,3,3124,-0.0016993086475354446,-0.09753646670018579,-0.059759949134757594,0.1833222986054499,744.0,0.16693334200365462,0.509835372387914,2.163048295764166,-0.000496135705991674,0.027,1.0,2.9000456101645353,0.08940855278504833,18,2026-10-07 22:16:19.208243,25.0,0.26443650319237555,0.24295191682537334,0.3132497728194484
0395,cdot_cos,T,S-T,19,3,3354,-0.22207807935931032,-0.058090992122968595,-0.22037877071177486,0.004031933058081795,744.0,0.17159500164609967,0.5098403772451423,2.2223426829217034,-0.00028448010598570663,0.23,0.9999999999999997,42.29003752761529,0.0943756964376057,19,2026-10-07 22:16:19.438244,25.0,0.475205260702109,0.0680382985551254,0.020268085401935018
0395,cdot_cos,P,T-P,20,4,3694,0.03537915900533657,-0.0028368242729467424,0.2574572383646469,0.9984004481642053,727.0,0.1982309593390123,0.5110796330976528,2.2856176047750503,-0.0017755665611578193,0.34,1.0000000000000002,-1.2032111465533526,0.09934284161425352,20,2026-10-07 22:16:19.778244,25.0,0.43180522603523047,0.05060820075515607,0.07834105203797832
0395,cdot_cos,Q,P-Q,21,4,3805,-0.04186607874556923,-0.03385239143551828,-0.0772452377509058,0.12662545458889463,727.0,0.2060085781596058,0.5112367964249633,2.3427813202503667,-0.0005666965826698797,0.111,1.0,7.691806983059223,0.10430998412075437,21,2026-10-07 22:16:19.889244,25.0,0.11845912142593772,0.1512288941880288,0.07006863802336483
0395,cdot_cos,R,Q-R,22,4,3842,0.04562593142516683,0.13192469452879094,0.08749201017073606,0.8991032584629652,727.0,0.2318037738487547,0.5123526679572539,2.403147031263704,-0.0020353834311474172,0.037,0.9999999999999998,-1.3161791532245497,0.10927712566590175,22,2026-10-07 22:16:19.926244,25.0,0.4859850189871455,0.5638357219902339,0.6971674510580783
0395,cdot_cos,S,R-S,23,4,3869,0.0375937804735758,-0.1724573527662782,-0.00803215095159103,0.4499670633331193,727.0,0.2477324215868831,0.5129110737870008,2.4598350992830706,-0.0013765600971031662,0.027,0.9999999999999997,1.1798288967412365,0.11424426714492468,23,2026-10-07 22:16:19.953243,25.0,0.6196495427983967,0.40577318485310987,0.5899499162269781
0395,cdot_cos,T,S-T,24,4,4094,-0.10591972763103767,-0.026502574917365036,-0.14351350810461347,0.026913690041603038,727.0,0.25371552583082263,0.5129444724716055,2.5129044509015426,-0.0005406868428587337,0.225,0.9999999999999998,25.02713098254718,0.11921141229611804,24,2026-10-07 22:16:20.178244,25.0,0.2131099401676387,0.07886313097952087,0.026591574417508996
0395,cdot_cos,P,T-P,25,5,4421,0.044691193667455414,-0.0034721859516349115,0.15061092129849307,0.9773630141508437,714.0,0.2832208305276675,0.514157255530403,2.5707862817987794,-0.0028546912813560803,0.327,0.9999999999999992,-1.9080118424408004,0.12417855978833862,25,2026-10-07 22:16:20.505243,25.0,0.4445925262970442,0.05950692715147523,0.09023028959279776
0395,cdot_cos,Q,P-Q,26,5,4525,-0.024640740536847467,-0.021095407534035233,-0.06933193420430288,0.15016617002667768,714.0,0.29263305618788743,0.5143435782106333,2.622647947831205,-0.0009766335384475918,0.104,0.9999999999999996,10.079598149768685,0.1291457028148317,26,2026-10-07 22:16:20.609244,25.0,0.14616908018531874,0.17870427009500556,0.09050216980980703
0395,cdot_cos,R,Q-R,27,5,4569,0.04780602984975674,0.15033979793775448,0.0724467703866042,0.8595031305002123,714.0,0.32039131870742865,0.5154099513606512,2.67814867385329,-0.0030657861364649587,0.044,0.9999999999999992,-1.9591196552372927,0.13411284456514966,27,2026-10-07 22:16:20.653243,25.0,0.5058874454941207,0.46303379943092143,0.630869602716846
0395,cdot_cos,S,R-S,28,5,4597,0.008120657839164226,-0.11438045136920715,-0.03968537201059251,0.2704907195658975,714.0,0.3333800305378085,0.5157455167322216,2.7290687607352604,-0.0015298386212697379,0.028,0.9999999999999994,4.577193135296084,0.13907998601574706,28,2026-10-07 22:16:20.681243,25.0,0.3664133679339818,0.34065011151872965,0.4638825653707094
0395,cdot_cos,T,S-T,29,5,4813,-0.19018792945460689,-0.16166114631338147,-0.1983085872937711,0.00697991131976293,714.0,0.3394677249524775,0.5157541756838592,2.777421242738589,-0.0007379430255876448,0.216,0.9999999999999996,91.45398066940552,0.14404713267643982,29,2026-10-07 22:16:20.897243,25.0,0.34194269724339543,0.09034747525097259,0.0281837704382824
0395,cdot_cos,P,T-P,30,6,5135,0.04995346760094075,-0.004429591429650873,0.24014139705554763,0.9975360804558435,716.0,0.37241013984622867,0.5169915725063695,2.831679471487399,-0.004224191876545466,0.322,0.9999999999999991,-2.817405691963211,0.14901428282329748,30,2026-10-07 22:16:21.219244,25.0,0.43810112567313364,0.0673869260503341,0.10230563631599739
0395,cdot_cos,Q,P-Q,31,6,5243,-0.017749105816978094,-0.016381390683644106,-0.06770257341791884,0.15543890266852828,716.0,0.38286490532889267,0.5171843688127362,2.879560708868148,-0.0014222982855201884,0.108,0.999999999999999,14.532921526494313,0.1539814266640859,31,2026-10-07 22:16:21.327244,25.0,0.13946019305078056,0.18508311749946846,0.09680338409874072
0395,cdot_cos,R,Q-R,32,6,5286,0.04644039486054193,0.15517747283908853,0.06418950067752002,0.8326794773688402,716.0,0.41238809322611386,0.5182170817614611,2.931478513227248,-0.004228401627300208,0.043,0.9999999999999989,-2.7172152196259654,0.15894856846560304,32,2026-10-07 22:16:21.370244,25.0,0.5149774484813308,0.5051254487069751,0.6865857650516557
0395,cdot_cos,S,R-S,33,6,5311,0.005361413771966885,-0.09593414264470143,-0.04107898108857505,0.26367107545536406,716.0,0.4263056939176925,0.518544062163726,2.9788088624803906,-0.0021021057197977795,0.025,0.9999999999999986,6.5028236945529825,0.1639157097391573,33,2026-10-07 22:16:21.395243,25.0,0.3636702974442091,0.40896284200234057,0.5567040276631463
0395,cdot_cos,T,S-T,34,6,5534,-0.2140682516071161,-0.0553957357004677,-0.21942966537908298,0.004128345633527493,716.0,0.4328362353262309,0.5185491816293649,3.023635345713867,-0.0010104167289461809,0.223,0.9999999999999984,213.2427616158984,0.16888285866454247,34,2026-10-07 22:16:21.618243,25.0,0.33944803786823746,0.09456782756693295,0.029284939051741572
0395,cdot_cos,P,T-P,35,7,5851,0.03467848837412781,-0.003936426249208271,0.24874673998124391,0.9980120640985517,686.0,0.4684829450125446,0.5197866764387276,3.075099463247174,-0.0057849812271882186,0.317,0.9999999999999984,-3.858250121227692,0.17385001185102197,35,2026-10-07 22:16:21.935244,25.0,0.43808691965182023,0.07316579690890951,0.11245018828490135
0395,cdot_cos,Q,P-Q,36,7,5961,-0.03880371239848631,-0.03309532632249167,-0.07348220077261412,0.1373999626788677,686.0,0.4792233505664795,0.5199570281954043,3.1197421884025,-0.0018326796516519072,0.11,0.9999999999999981,23.200826646214484,0.17881715661489697,36,2026-10-07 22:16:22.045243,25.0,0.11572138942041532,0.2003914119550547,0.09764005049031733
0395,cdot_cos,R,Q-R,37,7,5996,0.042771439084349605,0.14596362358278703,0.08157515148283592,0.8848699969634798,686.0,0.5125690556426566,0.521053998271583,3.169447757553422,-0.005953529521097022,0.035,0.9999999999999978,-3.7565745492348297,0.18378429812732686,37,2026-10-07 22:16:22.080243,25.0,0.5004892207559122,0.7478960285248073,0.9527344307479177
0395,cdot_cos,S,R-S,38,7,6024,0.025891914935908117,-0.15024346099323843,-0.016879524148441488,0.3960411123909452,686.0,0.531576072563216,0.5215449038465839,3.2150187293312684,-0.003572335684502784,0.028,0.9999999999999977,4.850614777780914,0.188751439460878,38,2026-10-07 22:16:22.108243,25.0,0.5134693333151974,0.46657796539305296,0.6788220328771212
0395,cdot_cos,T,S-T,39,7,6233,-0.1815999423251442,-0.08019011180712933,-0.20749185726105232,0.005556049342878656,686.0,0.5386974217046676,0.5215517904529752,3.2570899085692666,-0.00137193636041986,0.209,0.9999999999999971,319.5186713266129,0.19371859029247715,39,2026-10-07 22:16:22.317244,25.0,0.2011178972701027,0.10836047444099108,0.034073440868189336
0395,cdot_cos,P,T-P,40,8,6537,0.04657379116473266,-0.004747231459147238,0.22817373348987685,0.996679597486941,672.0,0.5768707508795503,0.5227870188165981,3.3063954461206984,-0.0076636866589223,0.304,0.9999999999999972,-5.093592799350017,0.19868574680627976,40,2026-10-07 22:16:22.621243,25.0,0.43999927691219787,0.07919159834988593,0.12557016175948257
0395,cdot_cos,Q,P-Q,41,8,6647,-0.04680327937013,-0.04674750341374482,-0.09337707053486266,0.08831160260416034,672.0,0.5868459135013983,0.5228964540067179,3.3481709887847537,-0.00208900809212572,0.11,0.9999999999999968,50.94045672777735,0.20365289269062875,41,2026-10-07 22:16:22.731244,25.0,0.06935085401192637,0.2065643124010126,0.09068329656225403
0395,cdot_cos,R,Q-R,42,8,6686,0.03321935493392606,0.15179296713014725,0.08002263430405607,0.8808564765956652,672.0,0.6223148996077731,0.5239878838622555,3.395829636854093,-0.007716433773462635,0.039,0.9999999999999962,-5.15601222816581,0.20862003448586952,42,2026-10-07 22:16:22.770243,25.0,0.4822570357744122,0.8296756884512303,0.9094611822147394
0395,cdot_cos,S,R-S,43,8,6714,0.06186785591772166,-0.17875415818857182,0.0286485009837956,0.6717724445620367,672.0,0.6515606172005942,0.5248200936297309,3.4414755332059883,-0.006701967812882737,0.028,0.9999999999999968,1.2190027084845898,0.21358717579250994,43,2026-10-07 22:16:22.798244,25.0,0.8595310127204079,0.6618553286216803,1.044489914029326
0395,cdot_cos,T,S-T,44,8,6933,-0.12773090818843472,-0.07212243107242723,-0.1895987641061564,0.008663209132073043,672.0,0.6593787980105872,0.5248308249558058,3.4813338828618674,-0.0018437433580338768,0.219,0.9999999999999961,452.714270440737,0.21855433046188777,44,2026-10-07 22:16:23.017244,25.0,0.07172049788834972,0.10966977589777294,0.035699455753392555
0395,cdot_cos,P,T-P,45,9,7209,0.03544831290990404,-0.006700842874046965,0.16317922109833877,0.9833651484244041,640.0,0.6995959790438188,0.5260487916342416,3.5288426117379337,-0.009829404947481375,0.276,0.999999999999996,-6.556551776690208,0.22352148980415695,45,2026-10-07 22:16:23.293243,25.0,0.4437802639243446,0.09184354185860455,0.14571442403344773
0395,cdot_cos,Q,P-Q,46,9,7300,-0.06137047247738467,-0.055473504578233836,-0.0968187853872887,0.08162504360273866,640.0,0.7100764331165369,0.526149876242059,3.568522127648788,-0.0026570107637008886,0.091,0.9999999999999954,70.95436524553925,0.2284886356881384,46,2026-10-07 22:16:23.384243,25.0,0.06724434663474733,0.26959578916988125,0.11516982497492459
0395,cdot_cos,R,Q-R,47,9,7354,0.030054970614279454,0.15503713751945014,0.09142544309166412,0.9076804178507277,640.0,0.7486624126727371,0.5272738030662597,3.614807122326847,-0.01012039551513586,0.054,0.9999999999999946,-6.640454334509414,0.23345577889474503,47,2026-10-07 22:16:23.438244,25.0,0.47832742568723363,0.6707738355108941,0.7145551769666713
0395,cdot_cos,S,R-S,48,9,7381,0.07477810851442152,-0.1864074116644407,0.04472313790014206,0.7536321142605997,640.0,0.7825200073517135,0.5282067715022751,3.6595239104186565,-0.009319299009948018,0.027,0.9999999999999948,0.8586533844694807,0.23842292012293428,48,2026-10-07 22:16:23.465244,25.0,0.9176299941664969,0.782002176742754,1.2539849881102338
0395,cdot_cos,T,S-T,49,9,7589,-0.1205552177376929,-0.09234725249061383,-0.19533332625211441,0.00751483382282758,640.0,0.7908905302168459,0.5282160736048991,3.697512565582884,-0.0023675215340760243,0.208,0.9999999999999938,747.3339907012613,0.24339007775057933,49,2026-10-07 22:16:23.673243,25.0,0.053061156457799956,0.12286023338315363,0.04024289839005962
0395,cdot_cos,P,T-P,50,10,7849,0.056674631179207666,2.060011846241116e-06,0.17722984891690058,0.9882344735527155,702.0,0.8336298644391054,0.5294391688226301,3.7437003230252865,-0.012477549615322232,0.26,0.9999999999999938,-8.265937054354247,0.24835724081891808,50,2026-10-07 22:16:23.933243,25.0,0.44474353273376277,0.10640573917419771,0.1643820547009981
0395,cdot_cos,Q,P-Q,51,10,7981,-0.022598370662378083,-0.025623441239871893,-0.07927300184158576,0.12112442134730123,702.0,0.8462215145874287,0.5295890552772551,3.7820224026209193,-0.003801145296398881,0.132,0.9999999999999931,57.88651376557836,0.25332439211769997,51,2026-10-07 22:16:24.065243,25.0,0.10202102697583675,0.18202280408544355,0.0953912890024493
0395,cdot_cos,R,Q-R,52,10,8012,0.02341229820077081,0.15478622974307085,0.04601066886314889,0.7595596313625893,702.0,0.8816838847176625,0.5305288561278106,3.8256980605765265,-0.011009058427894134,0.031,0.9999999999999923,-7.669617586783745,0.2582915334658738,52,2026-10-07 22:16:24.096244,25.0,0.5195845817978534,1.0353599225658543,1.1439474235559286
0395,cdot_cos,S,R-S,53,10,8039,0.03324845336641638,-0.12448575965525943,0.00983615516564557,0.5611680505107942,702.0,0.9104138297865116,0.5312230489987854,3.867362245911297,-0.0092487743614239,0.027,0.9999999999999918,2.5357276631184797,0.26325867462566627,53,2026-10-07 22:16:24.123244,25.0,0.826689424974065,0.6946566419910234,1.0640720395870067
0395,cdot_cos,T,S-T,54,10,8250,-0.16868525969894677,-0.17774154891172986,-0.20193371306536315,0.006379010612413847,702.0,0.9191953433851777,0.5312309394636403,3.9037342859276087,-0.0028861211089738974,0.211,0.9999999999999907,806.3724215772072,0.2682258362185156,54,2026-10-07 22:16:24.334244,25.0,0.11029804873161989,0.12778319338399607,0.041618547860976685
0395,cdot_cos,P,T-P,55,11,8551,0.04713410609965358,-0.005081378707189337,0.21581936579860034,0.9954834683194229,704.0,0.964338337394558,0.5324621007221044,3.9488447100123665,-0.015269113188640649,0.301,0.9999999999999908,-10.057977372610475,0.2731930087751015,55,2026-10-07 22:16:24.635243,25.0,0.44442096061375647,0.09721005779337662,0.14997672428365538
0395,cdot_cos,Q,P-Q,56,11,8659,-0.030664459815925842,-0.025764309048657532,-0.07779856591557942,0.12510350558844607,704.0,0.9777157981767904,0.5326167944701229,3.985739225672245,-0.004665170496952862,0.108,0.9999999999999896,68.54797189620174,0.2781601592416946,56,2026-10-07 22:16:24.743244,25.0,0.10300248383393619,0.25016061725327143,0.12386537761326345
0395,cdot_cos,R,Q-R,57,11,8702,0.03948011068836467,0.14160456535740099,0.07014457050429052,0.8524080864703915,704.0,1.0183730307212646,0.5336706508624527,4.029125161008138,-0.014568951203177314,0.043,0.9999999999999883,-9.397656813875557,0.2831273020244307,57,2026-10-07 22:16:24.786243,25.0,0.5067250150244862,0.8014657286106963,0.9455170359180042
0395,cdot_cos,S,R-S,58,11,8726,0.041427167634365825,-0.16347209135311583,0.001947056946001155,0.5121667036975848,704.0,1.0466418508373103,0.5343037132497622,4.06913595529061,-0.010477710089644222,0.024,0.9999999999999879,6.4626191597332765,0.2880944426475818,58,2026-10-07 22:16:24.810244,25.0,0.6767381089464657,0.7927133757348557,1.1778675048352376
0395,cdot_cos,T,S-T,59,11,8947,-0.11245829558997242,-0.03899338137900882,-0.15388546322433824,0.020894844773880285,704.0,1.0564232727565377,0.5343295379390328,4.10426316447681,-0.003692216262330695,0.221,0.9999999999999869,262.75219640456106,0.2930616097124334,59,2026-10-07 22:16:25.031244,25.0,0.15916984819306879,0.12710348976755376,0.04425982768881164
0395,cdot_cos,P,T-P,60,12,9255,0.03281198703745552,-0.003225622882755611,0.14527028262742794,0.9742129394329815,699.0,1.102821593314569,0.5355333960819069,4.148223968335422,-0.01797586302169962,0.308,0.9999999999999865,-11.864891925944576,0.29802878952988415,60,2026-10-07 22:16:25.339243,25.0,0.45176125006871126,0.09717029927541898,0.15064389791568633
0395,cdot_cos,Q,P-Q,61,12,9358,-0.05040960116593028,-0.045103403190454486,-0.0832215882033858,0.11100269683859909,699.0,1.1162801771101958,0.5356705387507955,4.183720790550635,-0.005358523341018883,0.103,0.9999999999999842,92.00156146097395,0.30299594098710547,61,2026-10-07 22:16:25.442244,25.0,0.09492862599832011,0.2790102225370845,0.13066586209346312
0395,cdot_cos,R,Q-R,62,12,9406,0.03423066296535871,0.13190581465162313,0.084640264131289,0.8924492291888753,699.0,1.1602976991572085,0.5367729526407691,4.226554600538421,-0.017973687084510415,0.048,0.9999999999999836,-11.443219155914344,0.30796308470032163,62,2026-10-07 22:16:25.490243,25.0,0.49565832942909377,0.8248556596131666,0.9170317093127646
0395,cdot_cos,S,R-S,63,12,9436,0.05998716440775978,-0.19076428289730896,0.025756501442401068,0.6556373584202241,699.0,1.1954663204330598,0.5375826120548209,4.266929849080151,-0.014856312908741079,0.03,0.9999999999999826,3.8502290242865476,0.31293022601874854,63,2026-10-07 22:16:25.520243,25.0,0.8107180166899264,0.7594990280866373,1.17228737586171
0395,cdot_cos,T,S-T,64,12,9649,-0.0883516172234959,-0.03430274118204122,-0.1483387816312557,0.023928408538698202,699.0,1.2058676408424067,0.5376121579925701,4.300897412325094,-0.004478793805149828,0.213,0.9999999999999813,351.23336384477216,0.317897396891665,64,2026-10-07 22:16:25.733243,25.0,0.09856546302216301,0.13637258206249017,0.048832490184727406
0395,cdot_cos,P,T-P,65,13,9954,0.03538105182915695,-0.0014937896020029938,0.12373266905265284,0.9566162232313347,731.0,1.2535610403916806,0.5387931347142285,4.343889289911675,-0.021025913374155804,0.305,0.9999999999999805,-14.011385038791872,0.32286458375417454,65,2026-10-07 22:16:26.038244,25.0,0.4552143116700105,0.10339063422489894,0.15637180180089796
0395,cdot_cos,Q,P-Q,66,13,10076,-0.03625636850306109,-0.032174887065662086,-0.07163742033221804,0.14295806572437902,731.0,1.268935927719595,0.5389695844584739,4.378609792207421,-0.006951539138868494,0.122,0.9999999999999781,79.76420875802894,0.3278317404109898,66,2026-10-07 22:16:26.160243,25.0,0.13204117895020318,0.24846105473080224,0.1260236666222498
0395,cdot_cos,R,Q-R,67,13,10107,0.042459660103924816,0.13858521093832676,0.0787160286069859,0.8773854505117027,731.0,1.3141855377459963,0.5400523049586936,4.42051882981404,-0.020943462354829877,0.031,0.9999999999999769,-12.922931830626418,0.33279888147803205,67,2026-10-07 22:16:26.191243,25.0,0.512691637636037,1.1005676730167664,1.4596648395613312
0395,cdot_cos,S,R-S,68,13,10135,0.012789407906717884,-0.1333008651864334,-0.029670252197206932,0.32262020767837307,731.0,1.3371711234466346,0.5404503336742598,4.456667822076528,-0.010918337464613357,0.028,0.9999999999999754,25.186938776406542,0.3377660222966024,68,2026-10-07 22:16:26.219244,25.0,0.39924040624355017,0.5915706844259421,0.8209137750227944
0395,cdot_cos,T,S-T,69,13,10345,-0.17810868348412012,-0.0837737020999252,-0.19089809139083802,0.008388644674473129,731.0,1.347313496073849,0.5404606823754198,4.489403802265327,-0.004877887791685695,0.21,0.9999999999999735,583.6915743850201,0.34273319712080996,69,2026-10-07 22:16:26.429244,25.0,0.2898670088699464,0.14596094941091867,0.0482970125105453
0395,cdot_cos,P,T-P,70,14,10685,0.054046464778495736,-0.006090972517975136,0.23215514826261585,0.9969932334170633,731.0,1.3984747221992204,0.5416903779994169,4.532107080708474,-0.025157218282547796,0.34,0.9999999999999726,-16.491341511767313,0.34770039770667843,70,2026-10-07 22:16:26.769243,25.0,0.4465946812267249,0.0998552293669026,0.15047419448638624
0395,cdot_cos,Q,P-Q,71,14,10798,-0.01164681273488414,-0.01041881379721246,-0.06569327751337987,0.16214800511533997,731.0,1.4152150520433429,0.5418903244205976,4.566049287091347,-0.00843462202725359,0.113,0.9999999999999692,83.63538670282395,0.35266755476867495,71,2026-10-07 22:16:26.882244,25.0,0.13770885212773665,0.2757229089796805,0.1481445118948888
0395,cdot_cos,R,Q-R,72,14,10831,0.056384469026764986,0.14890577306908834,0.06803128176164913,0.8456368467644173,731.0,1.4607880996286282,0.5429328680659533,4.606938415863688,-0.02346216555244253,0.033,0.9999999999999678,-14.414306386243886,0.35763469602095144,72,2026-10-07 22:16:26.915244,25.0,0.5270282487149165,0.9619363924758279,1.381001441978344
0395,cdot_cos,S,R-S,73,14,10857,-0.003216355432007891,-0.09243704917966923,-0.05960082445877288,0.1839186337709491,731.0,1.4787028539467475,0.5431595627463021,4.640757603175427,-0.009425827648961448,0.026,0.9999999999999651,61.91736780892898,0.36260183610235613,73,2026-10-07 22:16:26.941243,25.0,0.2255674946437347,0.5412621448951297,0.6890290122353572
0395,cdot_cos,T,S-T,74,14,11067,-0.2327273047138848,-0.03305482572607202,-0.22951094928187693,0.0032115856689997617,731.0,1.488933731163175,0.5431635211284151,4.672469547882183,-0.0054344988700786336,0.21,0.9999999999999627,1008.323265630255,0.3675690153278814,74,2026-10-07 22:16:27.151244,25.0,0.4797726951381438,0.15056545492292195,0.04871846293536885
0395,cdot_cos,P,T-P,75,15,11416,0.049813756066768404,-0.0057509804183932854,0.2825410607806532,0.9991449767603305,714.0,1.5419403450143747,0.5443947321664561,4.714596965774576,-0.02874386369947366,0.349,0.9999999999999615,-18.932062911395413,0.37253622575622786,75,2026-10-07 22:16:27.500243,25.0,0.4444429411357768,0.09910910163287735,0.15188141504641767
0395,cdot_cos,Q,P-Q,76,15,11516,-0.02385534430772495,-0.02161026324886239,-0.07366910037449335,0.13684711116285542,714.0,1.5581118841029233,0.5445633221224753,4.747393306091121,-0.00896894367655629,0.1,0.9999999999999579,117.29595576064271,0.3775033817652988,76,2026-10-07 22:16:27.600243,25.0,0.11027020465823983,0.3183779975753309,0.16171539088548625
0395,cdot_cos,R,Q-R,77,15,11564,0.04727015174211958,0.14594057267422028,0.07112549604984453,0.8554667202907423,714.0,1.605615944529441,0.5456169885931268,4.787769981163534,-0.02687722057883721,0.048,0.9999999999999558,-16.996153337979408,0.382470526282851,77,2026-10-07 22:16:27.648243,25.0,0.5136056963704627,0.7314057176359897,0.9896679255524491
0395,cdot_cos,S,R-S,78,15,11593,0.009650877164554574,-0.11657030381007952,-0.037619274577565004,0.2808030184893475,714.0,1.6283268329959784,0.5459627611921541,4.821812889678679,-0.01313304676945069,0.029,0.999999999999953,39.74916996907379,0.3874376666790655,78,2026-10-07 22:16:27.677243,25.0,0.3511529023733598,0.5788808534628693,0.7831340850530158
0395,cdot_cos,T,S-T,79,15,11826,-0.17254215976502887,-0.13569944849262922,-0.18219303692958344,0.010406888440941585,714.0,1.6391910340302873,0.5459755750793711,4.852737400997985,-0.006347646585592957,0.233,0.9999999999999496,529.5348764169808,0.3924048563354789,79,2026-10-07 22:16:27.910244,25.0,0.34336435594024267,0.1405384884380287,0.04662747225025306
0395,cdot_cos,P,T-P,80,16,12130,0.05692433984306314,-0.004913329550794165,0.229466499608092,0.9967848549796985,720.0,1.6938177686080997,0.5472026205631625,4.894329399776388,-0.03254155576532914,0.304,0.9999999999999482,-21.347137922549628,0.39737206457990065,80,2026-10-07 22:16:28.214243,25.0,0.44711599908953986,0.12073551548206467,0.17969320584806717
0395,cdot_cos,Q,P-Q,81,16,12236,-0.002647408537653181,-0.0036194714842714137,-0.05957174838071632,0.18402776142130023,720.0,1.7125982274433826,0.5474290970828866,4.926862284184353,-0.011433071720716982,0.106,0.9999999999999436,93.20385208289873,0.40233922397942823,81,2026-10-07 22:16:28.320243,25.0,0.15782549162532444,0.3093370523419753,0.17717413995549905
0395,cdot_cos,R,Q-R,82,16,12277,0.05435808156875592,0.15784745031581734,0.0570054901064091,0.8061425124787476,720.0,1.7593972237045985,0.5484209557964208,4.966163395447098,-0.02902739377686744,0.041,0.9999999999999416,-17.73873820542185,0.4073063669697695,82,2026-10-07 22:16:28.361243,25.0,0.5454586907021751,0.8125042052516204,1.141438933200387
0395,cdot_cos,S,R-S,83,16,12305,-0.0006517597815847141,-0.09111242984408269,-0.055009841350340635,0.20177359290715555,720.0,1.7792235722740155,0.5486691533929023,4.998614305201846,-0.01253218691433067,0.028,0.9999999999999378,66.45997824464776,0.412273506843485,83,2026-10-07 22:16:28.389244,25.0,0.26814502002960855,0.5455718513071385,0.7080838774791788
0395,cdot_cos,T,S-T,84,16,12523,-0.2825497380383796,-0.24049842096995358,-0.2818979782567949,0.0008688685563446566,720.0,1.7899492473777983,0.5486702221181897,5.02864607687458,-0.006838205320433852,0.218,0.9999999999999339,5327.825271041177,0.41724069816919596,84,2026-10-07 22:16:28.607244,25.0,0.43488575007127495,0.15397297832629223,0.04920034451276491
0395,cdot_cos,P,T-P,85,17,12850,0.049754342629540114,-0.004253460746410224,0.3323040806679197,0.9997534260528547,731.0,1.846355790824279,0.5498996384253358,5.06982462248436,-0.03662074094346813,0.327,0.9999999999999328,-24.224939469177226,0.42220792070474983,85,2026-10-07 22:16:28.934243,25.0,0.44340593008823875,0.11340297324513411,0.1724970747598797
0395,cdot_cos,Q,P-Q,86,17,12954,-0.01949261458699404,-0.016458903626644986,-0.06924695721653415,0.1504374827639252,731.0,1.864114791880116,0.5500845819690442,5.101275060531695,-0.01176392952294339,0.104,0.9999999999999267,134.4021582052264,0.4271750815034878,86,2026-10-07 22:16:29.038244,25.0,0.12087861645486372,0.32879261532118587,0.17075962553689475
0395,cdot_cos,R,Q-R,87,17,12998,0.05296939443101316,0.1499592824028712,0.0724620090180072,0.8595491286752914,731.0,1.9147446548110856,0.5511410201047917,5.140701727095377,-0.03414166365963521,0.044,0.9999999999999247,-21.18224757274379,0.43214222542432607,87,2026-10-07 22:16:29.082243,25.0,0.5192147429134407,0.8170719715679827,1.150678702976582
0395,cdot_cos,S,R-S,88,17,13024,0.002585076860460972,-0.10970221077983994,-0.05038431757055219,0.22104139067574827,731.0,1.9360171253780984,0.5514126192283756,5.172709403952077,-0.014616146103524377,0.026,0.9999999999999207,71.89094463362973,0.4371093643808134,88,2026-10-07 22:16:29.108243,25.0,0.2629248938696936,0.6226231729839194,0.8181719448851104
0395,cdot_cos,T,S-T,89,17,13241,-0.23130997916075363,-0.1071085354722532,-0.2338950560212146,0.002879151332164853,731.0,1.9471210598062494,0.5514161567121865,5.202050145060804,-0.00769356082580781,0.217,0.9999999999999162,1956.9235218628728,0.44207656108811816,89,2026-10-07 22:16:29.325243,25.0,0.4066552501270752,0.15917926162717802,0.05117020473802277
0395,cdot_cos,P,T-P,90,18,13581,0.041767122873685024,-0.004752446031115028,0.27307710203443863,0.9989169900761012,713.0,2.0051009249242937,0.5526431646644508,5.242833962662315,-0.04086598253373549,0.34,0.9999999999999143,-27.035213298096128,0.4470437968589469,90,2026-10-07 22:16:29.665244,25.0,0.4440861092838544,0.11012694791131669,0.1705290150530715
0395,cdot_cos,Q,P-Q,91,18,13692,-0.03704585582944861,-0.029229022117595198,-0.07881297870313364,0.12235404007985422,713.0,2.0220073843859447,0.5527934130524548,5.273313688638983,-0.012141198733350166,0.111,0.9999999999999077,191.18197660553068,0.4520109619283261,91,2026-10-07 22:16:29.776243,25.0,0.09386538925043621,0.31686899676547414,0.15231044560045978
0395,cdot_cos,R,Q-R,92,18,13727,0.04621145305785548,0.13476166239250806,0.0832573088873041,0.8890853964614646,713.0,2.075445842206229,0.5538849014268764,5.312677976557175,-0.039028234256402464,0.035,0.9999999999999051,-24.633368667164593,0.4569781030475689,92,2026-10-07 22:16:29.811244,25.0,0.5021218671722271,1.1647438666993548,1.526813080579549
0395,cdot_cos,S,R-S,93,18,13753,0.021739618660533925,-0.15035536787952045,-0.024471834397321552,0.35164964691022554,713.0,2.1035394550548996,0.554316462420714,5.345635013131454,-0.020922199622454098,0.026,0.9999999999999013,41.954752381451954,0.4619452416197921,93,2026-10-07 22:16:29.837244,25.0,0.4208839083771934,0.7730690902505273,1.0805235711027164
0395,cdot_cos,T,S-T,94,18,13982,-0.14015142133461841,-0.04078066325155336,-0.16189103999515234,0.01716994077532586,713.0,2.1156454348992564,0.5543375320885532,5.37450241724784,-0.009102347069350552,0.229,0.9999999999998955,560.9890314030228,0.46691244875563476,94,2026-10-07 22:16:30.066243,25.0,0.27292725778185534,0.1559756575348612,0.052864540805051506
0395,cdot_cos,P,T-P,95,19,14294,0.062066820304648,-0.004365751377704963,0.2022182416392664,0.9936659172664309,708.0,2.174976306205866,0.5555565495679264,5.414896118021182,-0.045340913939582284,0.312,0.9999999999998934,-29.727684371567413,0.4718796856996747,95,2026-10-07 22:16:30.378243,25.0,0.4496676601155682,0.12585679182129625,0.19016304905964626
0395,cdot_cos,Q,P-Q,96,19,14411,-0.004265926710159866,-0.0061572446753167245,-0.06633274701480787,0.15998782390083607,708.0,2.1941800729957452,0.555752758625613,5.445243469056626,-0.01494290090440289,0.117,0.9999999999998861,154.92665524002686,0.47684685565027063,96,2026-10-07 22:16:30.495244,25.0,0.1307748812786638,0.2951684466006989,0.16413475888785664
0395,cdot_cos,R,Q-R,97,19,14442,0.04784878443714681,0.15485209160081115,0.052114711147306675,0.7863172298650168,708.0,2.2440457227104296,0.5567168441931304,5.483025796770917,-0.03939771164350794,0.031,0.9999999999998829,-25.365809387727875,0.48181399528558905,97,2026-10-07 22:16:30.526243,25.0,0.5375591239955283,1.1867651586765433,1.608569345634978
0395,cdot_cos,S,R-S,98,19,14471,0.0033957673352279106,-0.08960383153322181,-0.0444530171019189,0.24762387047936432,708.0,2.267759512833691,0.5570203620747419,5.514221019055011,-0.01904367170845289,0.029,0.9999999999998779,67.0604309274455,0.48678113458869554,98,2026-10-07 22:16:30.555244,25.0,0.34341742423271227,0.6088626960102793,0.8177169008021158
0395,cdot_cos,T,S-T,99,19,14680,-0.2654999402710407,-0.1748187862677947,-0.2688957076062686,0.001202207749672323,708.0,2.2793597590790258,0.5570218355428658,5.542298053308525,-0.009388638922984896,0.209,0.9999999999998713,6552.590198055779,0.4917483408751536,99,2026-10-07 22:16:30.764243,25.0,0.35758790240579463,0.17400109313703177,0.05550357055184136
0395,cdot_cos,P,T-P,100,20,15002,0.042721882095702934,-0.003223984749139824,0.3082218223667436,0.9995498797464357,731.0,2.34049196976497,0.558246569384863,5.582466504477708,-0.05023988794375447,0.322,0.9999999999998694,-33.35520553114911,0.49671559117387526,100,2026-10-07 22:16:31.086244,25.0,0.4434705830820693,0.12352903401306917,0.1898515859811939
0395,cdot_cos,Q,P-Q,101,20,15111,-0.031522889015481635,-0.024989139943036906,-0.07424477111118458,0.13515602328583418,731.0,2.3589124569834423,0.5584121200519528,5.611973231489282,-0.0153978630343702,0.109,0.9999999999998607,210.4613984458564,0.5016827607811322,101,2026-10-07 22:16:31.195244,25.0,0.10406046622268113,0.34195316032010514,0.16899529558231297
0395,cdot_cos,R,Q-R,102,20,15150,0.05073068333737544,0.14376117311302056,0.08225357235285707,0.8865866050919414,731.0,2.415037758714753,0.5594977636552426,5.650651327584366,-0.04763515421147108,0.039,0.9999999999998579,-29.694175030750134,0.506649903406718,102,2026-10-07 22:16:31.234244,25.0,0.5082640360479516,1.0235391079455178,1.4391103008028412
0395,cdot_cos,S,R-S,103,20,15177,0.0037597640954481755,-0.11782391514062125,-0.04697091924192726,0.23608349151354271,731.0,2.4387485074031927,0.5597867572897636,5.681216004702374,-0.020457670203860977,0.027,0.999999999999852,94.04180840405272,0.5116170416511268,103,2026-10-07 22:16:31.261244,25.0,0.2648811482168977,0.6621340772486678,0.8781758773496143
0395,cdot_cos,T,S-T,104,20,15400,-0.21106643700181815,-0.14928764649604984,-0.21482620109726633,0.004629551294161913,731.0,2.450792998886181,0.5597924239941985,5.708785894790607,-0.010468529423161258,0.223,0.9999999999998447,1762.7778006477783,0.5165842600757706,104,2026-10-07 22:16:31.484244,25.0,0.38511754207584253,0.16732031448170145,0.054011172569455035
0395,cdot_cos,P,T-P,105,21,15733,0.051119606415260074,-0.005612966077028293,0.26218604341707824,0.998578543960374,712.0,2.5133733676620316,0.5610143463823475,5.748687345517428,-0.055189094354048285,0.333,0.9999999999998427,-36.598531432614905,0.5215515256153604,105,2026-10-07 22:16:31.817244,25.0,0.4447178456756533,0.12312492739899542,0.18792903536291405
0395,cdot_cos,Q,P-Q,106,21,15849,-0.019445461045744752,-0.016764373304202104,-0.07056506746100483,0.14627425443622205,712.0,2.532794200533912,0.5611932748535097,5.777839434450704,-0.017408437263698433,0.116,0.9999999999998328,211.1494992661288,0.5265187008676646,106,2026-10-07 22:16:31.933243,25.0,0.11414910152377404,0.32339129416785334,0.16742097303345316
0395,cdot_cos,R,Q-R,107,21,15880,0.05002003682542442,0.15069683103309595,0.06946549787116918,0.8502594548896111,712.0,2.5884001479089735,0.5622330294934348,5.815784743094517,-0.05055875533769581,0.031,0.9999999999998295,-31.882827737498594,0.531485839999242,107,2026-10-07 22:16:31.964243,25.0,0.5190894407618708,1.3337158620381637,1.793740237905207
0395,cdot_cos,S,R-S,108,21,15905,0.014383005888740908,-0.12468546826479576,-0.03563703093668351,0.2909188172512639,712.0,2.6154845839802783,0.5625886596368788,5.846593920731116,-0.02501917635845145,0.025,0.9999999999998227,71.81500064059622,0.5364529769374068,108,2026-10-07 22:16:31.989243,25.0,0.36030652553945997,0.7984929722595524,1.0833774428521892
0395,cdot_cos,T,S-T,109,21,16118,-0.1539767359692766,-0.04247483478845001,-0.16835974185801753,0.014643693454321812,712.0,2.628324796521951,0.562606558943112,5.873785988558754,-0.011952003395632184,0.213,0.9999999999998145,730.0379574816624,0.5414201982065765,109,2026-10-07 22:16:32.202244,25.0,0.3351074719514948,0.1795925245462168,0.06028268798907461
0395,cdot_cos,P,T-P,110,22,16445,0.03495576427015463,-0.0015102886540976053,0.18893250023943123,0.9911925643700538,713.0,2.6919909994369666,0.5638177339639253,5.913371405114169,-0.06008936577960758,0.327,0.9999999999998125,-39.744348716545474,0.5463874727994212,110,2026-10-07 22:16:32.529243,25.0,0.44883668108961766,0.12576719297690309,0.19469786824163748
0395,cdot_cos,Q,P-Q,111,22,16564,-0.04404599600368612,-0.039062084305557465,-0.07900176027384075,0.12184814190714763,713.0,2.710576540728846,0.5639665725015148,5.9417577473392065,-0.017811196761731846,0.119,0.9999999999998013,284.05391306971984,0.5513546526185202,111,2026-10-07 22:16:32.648243,25.0,0.09313689191735203,0.32488181627743645,0.15618101925948882
0395,cdot_cos,R,Q-R,112,22,16595,0.037818213817947074,0.128959213080585,0.0818642098216332,0.8856041479872628,713.0,2.7693128717109965,0.5650479975835676,5.979907161706026,-0.05706236998552998,0.031,0.9999999999997982,-36.29578588032278,0.556321791528977,112,2026-10-07 22:16:32.679244,25.0,0.5026483766079266,1.5872301343288173,1.8947203542629258
0395,cdot_cos,S,R-S,113,22,16624,0.0406547637585586,-0.17425766983856572,0.002836549940611527,0.5177210115254004,713.0,2.8089848090572325,0.5656799088808788,6.013261158060924,-0.03922024427558573,0.029,0.9999999999997926,28.23517443961285,0.5612889300328106,113,2026-10-07 22:16:32.708243,25.0,0.6344978815907247,0.9092141906323213,1.3679978395253785
0395,cdot_cos,T,S-T,114,22,16858,-0.1342576754940285,-0.05094015688227037,-0.1749124392525871,0.012458554368513394,713.0,2.822047294767671,0.5656951127140365,6.039972232208018,-0.013035734810071782,0.234,0.9999999999997833,1722.2307818011677,0.5662561698103827,114,2026-10-07 22:16:32.942244,25.0,0.13416679206732776,0.1666200820211207,0.05582258850614814
0395,cdot_cos,P,T-P,115,23,17158,0.038401162829733305,-0.002796856836742285,0.1726588383237618,0.986828891196848,723.0,2.886963007443117,0.5668989972497323,6.079315783652202,-0.06563720113579055,0.3,0.9999999999997806,-43.69311571505411,0.5712234441790787,115,2026-10-07 22:16:33.242244,25.0,0.44870161975740097,0.14101048243672015,0.21638570891815276
0395,cdot_cos,Q,P-Q,116,23,17268,-0.03626198217303744,-0.02931326490205408,-0.07466314500277074,0.13393810070453688,723.0,2.906653584229703,0.567062334862536,6.107449664057678,-0.020202675747862088,0.11,0.9999999999997681,278.1632754883065,0.5761906233454779,116,2026-10-07 22:16:33.352243,25.0,0.10551142587372615,0.36429407358457716,0.17900524351442051
0395,cdot_cos,R,Q-R,117,23,17305,0.048400376594069414,0.1411264888797715,0.08466235876710684,0.8925022357655447,723.0,2.967107703631724,0.5681503682246586,6.145487289719476,-0.06284671123901729,0.037,0.9999999999997651,-39.19368373775118,0.5811577653283189,117,2026-10-07 22:16:33.389244,25.0,0.5073569669679864,1.1969837773731733,1.6338951189735331
0395,cdot_cos,S,R-S,118,23,17332,0.0119426459888829,-0.13530118018155654,-0.03645773060518651,0.2867045913755043,723.0,2.995230383755318,0.5684997456239691,6.175489387376476,-0.02967079356449443,0.027,0.9999999999997569,94.95725178558956,0.5861249025476486,118,2026-10-07 22:16:33.416243,25.0,0.3268892607985559,0.763735931084956,1.0415807453182997
0395,cdot_cos,T,S-T,119,23,17556,-0.17898623634931293,-0.04571208908398816,-0.19092888233819583,0.008382243907594802,723.0,3.0083494439103116,0.5685099591787023,6.201712923702573,-0.01393690721195659,0.224,0.999999999999746,1540.4907266435555,0.5910921455526738,119,2026-10-07 22:16:33.640243,25.0,0.32337691301744026,0.17845805664029402,0.05856723283479256
0395,cdot_cos,P,T-P,120,24,17881,0.04589557700912992,-0.004377270696760324,0.22488181335844284,0.9963958021470349,722.0,3.0751795931301698,0.5697236251034802,6.24101113693244,-0.07189261182854188,0.325,0.9999999999997438,-47.752600969819056,0.5960594451357087,120,2026-10-07 22:16:33.965244,25.0,0.44657732844140263,0.13422303909145158,0.20563122836879444
0395,cdot_cos,Q,P-Q,121,24,17990,-0.026847849060371517,-0.022512555957927154,-0.07274342606950143,0.13960367009705524,722.0,3.095594419319755,0.5698936036401204,6.26883126544259,-0.022274068042355936,0.109,0.9999999999997301,291.91064217243843,0.6010266269486575,121,2026-10-07 22:16:34.074244,25.0,0.10778279280114053,0.3707504513733085,0.18729198339069122
0395,cdot_cos,R,Q-R,122,24,18030,0.048624290439429764,0.1469692283376834,0.07547213949980128,0.8683906364541059,722.0,3.156003191529551,0.5709505665939945,6.306356788571491,-0.06673311230033846,0.04,0.9999999999997262,-42.06301090783661,0.6059937706174633,122,2026-10-07 22:16:34.114244,25.0,0.5136456485023487,1.106408416294713,1.5102193052448976
0395,cdot_cos,S,R-S,123,24,18055,0.01001774952179468,-0.12273115876899178,-0.03860654091763509,0.2758455635414244,722.0,3.184107092623332,0.5712861775221629,6.335871872755587,-0.031479595692506974,0.025,0.9999999999997167,105.0428149054033,0.6109609062218904,123,2026-10-07 22:16:34.139244,25.0,0.32631742691133087,0.8311215696591745,1.1241560437512454
0395,cdot_cos,T,S-T,124,24,18276,-0.1751422383524182,-0.03891424826151835,-0.1851599878742129,0.009670097820498984,722.0,3.1975592700125097,0.5712979415790854,6.361706307575911,-0.015166642526517666,0.221,0.9999999999997047,1386.6775104428682,0.6159281557979849,124,2026-10-07 22:16:34.360243,25.0,0.34109950471446476,0.1846647806317968,0.06086958094650492
0395,cdot_cos,P,T-P,125,25,18603,0.04373082380431422,-0.0026231381957835,0.21887306215673244,0.9958140487074796,713.0,3.2657289256625863,0.572508955103209,6.400846452711025,-0.0777854624478509,0.327,0.9999999999997022,-51.70777920638991,0.6208954694765179,125,2026-10-07 22:16:34.687244,25.0,0.44707917489663357,0.13693415477848228,0.2084698949543627
0395,cdot_cos,Q,P-Q,126,25,18707,-0.025740385849621635,-0.023596927171400457,-0.06947120965393586,0.1497223656558361,713.0,3.287114207237637,0.5726909583277653,6.42844192997286,-0.02473726490825269,0.104,0.9999999999996875,291.46844880864916,0.625862651514947,126,2026-10-07 22:16:34.791244,25.0,0.11713069112846125,0.3932069422970658,0.2056277074524117
0395,cdot_cos,R,Q-R,127,25,18754,0.04255011549029241,0.1446080107882764,0.06829050133991404,0.8464808850465244,713.0,3.347515969660376,0.5737195730685295,6.4654931308497865,-0.0706977997195897,0.047,0.9999999999996823,-44.68197177224055,0.6308297996004867,127,2026-10-07 22:16:34.838243,25.0,0.5219943484788258,0.9916918100753557,1.2851438813348695
0395,cdot_cos,S,R-S,128,25,18782,0.017772959724658,-0.12667570580711335,-0.02477715576563441,0.3499113516782399,713.0,3.3803332373847206,0.5741445876926389,6.495706412190101,-0.03894095803801711,0.028,0.9999999999996725,74.7194093570767,0.6357969365240611,128,2026-10-07 22:16:34.866244,25.0,0.4424124914773118,0.8372519784182186,1.1720452758694488
0395,cdot_cos,T,S-T,129,25,19015,-0.14755696040074018,-0.11656369995638996,-0.16532992012539818,0.015777796781158683,713.0,3.3944020804517963,0.5741637493828786,6.5212485316298014,-0.01681023004553805,0.233,0.9999999999996593,1154.9465478038492,0.6407642023895408,129,2026-10-07 22:16:35.099244,25.0,0.2680709546285352,0.17904317056969674,0.060381300717062984
0395,cdot_cos,P,T-P,130,26,19316,0.050235568633041204,-0.004987233517354699,0.1977925290337814,0.9929300950338509,721.0,3.4637673548701993,0.5753691846717216,6.560220053162204,-0.08384032057283985,0.301,0.9999999999996557,-55.60654408221247,0.6457315133200622,130,2026-10-07 22:16:35.400243,25.0,0.4495550026046285,0.1498040545255981,0.23044941667243526
0395,cdot_cos,Q,P-Q,131,26,19426,-0.025006535408052928,-0.02133423529041848,-0.07524210404109413,0.13226801639658803,721.0,3.4845841212762063,0.575529693144,6.58724054928113,-0.025489107153327493,0.11,0.9999999999996397,363.5397720208036,0.6506987025266252,131,2026-10-07 22:16:35.510243,25.0,0.10134134734056287,0.38052431820195093,0.18924333096370044
0395,cdot_cos,R,Q-R,132,26,19463,0.05087425928320223,0.147630498429283,0.07588079469125517,0.8695538614772508,721.0,3.5474827048746285,0.5765845067964102,6.624453807079226,-0.07789293553797186,0.037,0.999999999999635,-49.6806504778435,0.6556658445286159,132,2026-10-07 22:16:35.547244,25.0,0.5102944287702598,1.2201148892817149,1.6999617188762746
0395,cdot_cos,S,R-S,133,26,19490,0.005641499122761579,-0.12052982385777189,-0.04523276016044065,0.2440099882876593,721.0,3.574872623083053,0.5768803785383646,6.652911249576881,-0.0343485036046694,0.027,0.9999999999996229,147.1733381689654,0.6606329804184549,133,2026-10-07 22:16:35.574244,25.0,0.2814714442255655,0.7622433858948736,1.014441415126842
0395,cdot_cos,T,S-T,134,26,19696,-0.19737656297696252,-0.09389252457995201,-0.2030180620997241,0.0062094659979300875,721.0,3.5886438477129516,0.5768879070424618,6.677962501889465,-0.017369616960104414,0.206,0.9999999999996075,2255.280255580017,0.6656002373165807,134,2026-10-07 22:16:35.780244,25.0,0.376248686115266,0.205569726936008,0.06685060499950699
0395,cdot_cos,P,T-P,135,27,20037,0.03921390038519646,-0.0029384103424324494,0.23659046336215897,0.9973079633442858,749.0,3.6595673505806885,0.5780966011981272,6.7168777916197255,-0.09044383220146479,0.341,0.9999999999996051,-60.45715940533643,0.6705675882987847,135,2026-10-07 22:16:36.121243,25.0,0.4457703642129694,0.1361653001469883,0.20798681192884708
0395,cdot_cos,Q,P-Q,136,27,20145,-0.03169187066168867,-0.025448044770437394,-0.07090577104688514,0.145213795508895,749.0,3.6815085824131977,0.5782725163992818,6.743760865886134,-0.02833542299102622,0.108,0.9999999999995866,353.05879652701765,0.6755347795433007,136,2026-10-07 22:16:36.229243,25.0,0.11170432619440077,0.4030956667779019,0.2031595540047146
0395,cdot_cos,R,Q-R,137,27,20187,0.05105638884836418,0.13763577064312751,0.08274825951005285,0.8878242020796699,749.0,3.7466360146047153,0.5793476127418259,6.781092407882385,-0.08504550814851458,0.042,0.9999999999995818,-52.748840186071085,0.6805019250623147,137,2026-10-07 22:16:36.271244,25.0,0.5133381632055939,1.1336529765237278,1.5506531474170862
0395,cdot_cos,S,R-S,138,27,20212,0.013658710309934026,-0.13887227532905627,-0.03739767853843015,0.2819231737299189,749.0,3.776735432441191,0.5796888461669453,6.809804510013251,-0.03979980737817054,0.025,0.9999999999995689,132.59457438706315,0.6854690590058916,138,2026-10-07 22:16:36.296243,25.0,0.3208337654929097,0.9003928939430761,1.2039767134590207
0395,cdot_cos,T,S-T,139,27,20434,-0.13899359043389142,-0.020918995271793958,-0.15265230074382544,0.021534957437402632,749.0,3.791655659301869,0.5797149084651245,6.834740442823265,-0.019846411176297745,0.222,0.9999999999995528,765.6038644265539,0.6904363360108016,139,2026-10-07 22:16:36.518244,25.0,0.3659016679628043,0.19487838431931104,0.06720822910215445
0395,cdot_cos,P,T-P,140,28,20786,0.033293142030533504,-0.0038053670988000433,0.17228673246442494,0.9867074296345242,729.0,3.863261435078965,0.5809085746082904,6.873405521226193,-0.09626082963342955,0.352,0.999999999999549,-64.01657523305882,0.6954037104156585,140,2026-10-07 22:16:36.870244,25.0,0.4521113780127393,0.13027648821287405,0.20342549936674947
0395,cdot_cos,Q,P-Q,141,28,20902,-0.05140446329634485,-0.04220634122148823,-0.08469760532687835,0.10741325283747424,729.0,3.8833703070037324,0.5810384605681665,6.899452189550728,-0.027354210112918453,0.116,0.9999999999995285,530.5163051202946,0.7003709110582139,141,2026-10-07 22:16:36.986243,25.0,0.08053608989481209,0.38086865583748747,0.17335234417903028
0395,cdot_cos,R,Q-R,142,28,20933,0.04675912045254985,0.13095321366189552,0.0981635837488947,0.9208600009958653,729.0,3.951622963233262,0.5821515177404513,6.9371387516098455,-0.09383341812396545,0.031,0.9999999999995229,-59.72667861668648,0.7053380482786118,142,2026-10-07 22:16:37.017244,25.0,0.4923914984675954,1.797876589958977,2.2016985880493416
0395,cdot_cos,S,R-S,143,28,20962,0.045753691537676194,-0.19506430576693073,-0.0010054289148736587,0.49371640011248,729.0,3.994838655581189,0.5827479364345552,6.968654568681593,-0.060233624753031574,0.029,0.9999999999995127,56.33591586429356,0.7103051846628888,143,2026-10-07 22:16:37.046243,25.0,0.5724530651314186,1.0137964798433812,1.4901962878595514
0395,cdot_cos,T,S-T,144,28,21192,-0.09683032441112391,-0.02260119196385168,-0.1425840159488001,0.027528996300011124,729.0,4.010423159064178,0.5827811848716201,6.993377021955508,-0.021881770263414514,0.23,0.9999999999994947,1153.4934533851897,0.715272478436547,144,2026-10-07 22:16:37.276243,25.0,0.1733079547531418,0.19040279336486426,0.06775871079560487
0395,cdot_cos,P,T-P,145,29,21515,0.044126948522620474,-0.0019371189784439873,0.14095727293374438,0.9713610853412833,724.0,4.082423940529027,0.5839538725819964,7.031738706122807,-0.10211817778820335,0.323,0.99999999999949,-68.42095027929007,0.7202398477509759,145,2026-10-07 22:16:37.599244,25.0,0.4557909100041175,0.15079001618009705,0.22291263611408188
0395,cdot_cos,Q,P-Q,146,29,21625,-0.014080301087597648,-0.012587500634460609,-0.05820724961021812,0.1892054485953732,724.0,4.107833509516521,0.5841821830915993,7.058703265571025,-0.03646622119401181,0.11,0.9999999999994693,287.5555606632946,0.7252070482881664,146,2026-10-07 22:16:37.709243,25.0,0.16524106517844095,0.406969167744978,0.23099608170449315
0395,cdot_cos,R,Q-R,147,29,21664,0.04978957730388468,0.15090126357724185,0.06386987839148234,0.8315632367080511,724.0,4.171957157432922,0.5851851846683676,7.094996442773875,-0.09296717639982273,0.039,0.9999999999994621,-56.331870771192186,0.7301741918822172,147,2026-10-07 22:16:37.748243,25.0,0.544573884303612,1.1844517876956304,1.644196100420536
0395,cdot_cos,S,R-S,148,29,21693,0.0021968392621491825,-0.09558733322472969,-0.0475927380417355,0.23329140723034508,724.0,4.20022074895678,0.5854664459441942,7.122509872832729,-0.041425904518739204,0.029,0.9999999999994453,183.25050872931456,0.7351413278396223,148,2026-10-07 22:16:37.777244,25.0,0.2881771860932741,0.7344592612999142,0.9746066042709747
0395,cdot_cos,T,S-T,149,29,21912,-0.23299486484900436,-0.1653256496982752,-0.23519170411115353,0.002787572682830345,724.0,4.214555794588317,0.5854698063669775,7.146572912120386,-0.021117712923627616,0.219,0.9999999999994253,6043.344217162877,0.7401086223166206,149,2026-10-07 22:16:37.996243,25.0,0.3822554255720162,0.20372154917862412,0.06545682936774776
0395,cdot_cos,P,T-P,150,30,22239,0.044210076149971064,-0.003557668282214193,0.2772049409989754,0.99902307524692,743.0,4.289450787497017,0.5866736156248348,7.185258297565433,-0.11140650081442412,0.327,0.999999999999421,-75.0025698020543,0.74507600984254,150,2026-10-07 22:16:38.323244,25.0,0.4446603626052694,0.15154460602061143,0.22903667556177554
0395,cdot_cos,Q,P-Q,151,30,22343,-0.02127631329288311,-0.017710258638415372,-0.06548638944285418,0.16285190836948557,743.0,4.313665966925797,0.5868697522063238,7.211579715558796,-0.03643482895974373,0.104,0.999999999999398,382.2421665837595,0.7500432089629268,151,2026-10-07 22:16:38.427244,25.0,0.12774841804553203,0.4416378711010151,0.2328382637382622
0395,cdot_cos,R,Q-R,152,30,22388,0.05538515400037176,0.14986676670785298,0.07666146729325488,0.871751730776435,743.0,4.3813114646860285,0.587919207789917,7.248358310089717,-0.10279023267277962,0.045,0.9999999999993909,-63.22840599488706,0.7550103578456908,152,2026-10-07 22:16:38.472243,25.0,0.5243782962725997,1.046204200233151,1.5032332835607085
0395,cdot_cos,S,R-S,153,30,22414,-0.0007362948670906593,-0.10232609887999881,-0.05612144886746242,0.19733475093106018,743.0,4.40782434494678,0.5881566580599993,7.27509960888158,-0.040716707737959094,0.026,0.9999999999993721,261.41694811850823,0.7599774906716076,153,2026-10-07 22:16:38.498244,25.0,0.21772506063699515,0.7895225555834167,1.019726163875066
0395,cdot_cos,T,S-T,154,30,22633,-0.23850768059369645,-0.11497971017650485,-0.2377713857266058,0.0026139259526836503,743.0,4.422366637576366,0.5881598030870506,7.2988747454078,-0.02243735149274643,0.219,0.9999999999993502,5812.145951941802,0.7649447947388409,154,2026-10-07 22:16:38.717243,25.0,0.4427791251823257,0.2070188203091217,0.06640316269217329
0395,cdot_cos,P,T-P,155,31,22982,0.05133849632477559,-0.004614100436788317,0.28984617691847203,0.9992875972024639,728.0,4.4984985882421755,0.5893615975863765,7.337496381917247,-0.11856589883008141,0.349,0.9999999999993456,-79.98750817319865,0.7699122174249768,155,2026-10-07 22:16:39.066243,25.0,0.4445198805791069,0.14359222478948783,0.21814312511693226
0395,cdot_cos,Q,P-Q,156,31,23100,-0.016544798407950794,-0.014880629642451975,-0.06788329473272639,0.15484670882799986,728.0,4.522594010479429,0.5895477291557624,7.363452657209365,-0.037941964981489024,0.118,0.9999999999993195,433.15561199325225,0.7748794326884216,156,2026-10-07 22:16:39.184243,25.0,0.11944159896437223,0.38730370683702947,0.20419849353604355
0395,cdot_cos,R,Q-R,157,31,23130,0.052504022740583856,0.14944635986574825,0.06904882114853465,0.8489283457616823,728.0,4.5899022630557145,0.5905677160727152,7.399796216400549,-0.10697983616215863,0.03,0.9999999999993116,-67.68505559553466,0.7798465678434616,157,2026-10-07 22:16:39.214243,25.0,0.5244866202950598,1.677891421052058,2.243608419209527
0395,cdot_cos,S,R-S,158,31,23155,0.018734464281240967,-0.13743831160948172,-0.03376955845934289,0.3006427614970645,728.0,4.623267495742552,0.5909287518646038,7.427863183282909,-0.05360209867630678,0.025,0.9999999999992932,147.84611023363294,0.7848136989812998,158,2026-10-07 22:16:39.239244,25.0,0.36942249361139606,0.9808297786064379,1.3346093074735066
0395,cdot_cos,T,S-T,159,31,23373,-0.14340858356215683,-0.03235063190082618,-0.16214304784339778,0.017063946896624934,728.0,4.638943751986036,0.5909492406755575,7.451590350263835,-0.02531797427096985,0.218,0.9999999999992693,1380.466854284805,0.7897810122895366,159,2026-10-07 22:16:39.457243,25.0,0.327209086925301,0.212096947400439,0.0719094323095607
0395,cdot_cos,P,T-P,160,32,23710,0.0424300701047344,-0.003983621902579421,0.18583865366689123,0.9904910403156932,726.0,4.7157417648091435,0.59213798732462,7.490023007945164,-0.12515834514779842,0.337,0.9999999999992644,-83.98793044386107,0.7947484411628049,160,2026-10-07 22:16:39.794244,25.0,0.4503580004989681,0.1476268797676716,0.22788727840684617
0395,cdot_cos,Q,P-Q,161,32,23821,-0.03477386556035665,-0.02855268023556269,-0.07720393566509105,0.12673969005755367,726.0,4.738444268949447,0.5922900176244991,7.515322130341045,-0.03738765003982525,0.111,0.9999999999992364,577.3236991427148,0.7997156541824927,161,2026-10-07 22:16:39.905244,25.0,0.09559973485526704,0.42189365390654954,0.20452706432705858
0395,cdot_cos,R,Q-R,162,32,23858,0.04884120298877388,0.14340119621294486,0.08361506854913053,0.8899643218143684,726.0,4.8094021559763975,0.5933570731936223,7.552206960260031,-0.1179179437422044,0.037,0.9999999999992283,-75.46963441514909,0.8046827958056445,162,2026-10-07 22:16:39.942244,25.0,0.5051322394524912,1.3641564578843168,1.9177807304581216
0395,cdot_cos,S,R-S,163,32,23887,0.002556771134256789,-0.10048392659299665,-0.0462844318545171,0.23919266483592436,726.0,4.8393918468328865,0.5936437123512316,7.57913994320388,-0.05035265376541395,0.029,0.9999999999992065,235.71549170154344,0.8096499302038406,163,2026-10-07 22:16:39.971244,25.0,0.2613638740734264,0.776092060983636,1.034127270913412
0395,cdot_cos,T,S-T,164,32,24092,-0.2274844232105534,-0.11253769676203779,-0.23004119434481018,0.0031694274601241496,726.0,4.854415495513448,0.5936475100417222,7.6024019187722685,-0.025342293773954565,0.205,0.9999999999991804,6585.676229572402,0.8146172406725534,164,2026-10-07 22:16:40.176243,25.0,0.37272962673393367,0.22811012927245164,0.07328609112469239
0395,cdot_cos,P,T-P,165,33,24436,0.03939606676628169,-0.0018987601786857754,0.2668804899768351,0.9987357513652475,740.0,4.932916999834592,0.5948436613022944,7.640909712011005,-0.13357102009689759,0.344,0.9999999999991757,-90.48080279677514,0.8195846936445889,165,2026-10-07 22:16:40.520243,25.0,0.44473751836948605,0.1507311409512412,0.2282020474451838
0395,cdot_cos,Q,P-Q,166,33,24545,-0.02676881033448782,-0.022421672363412873,-0.06616487710076951,0.16055263719209104,740.0,4.958118520487902,0.5950358450170913,7.666505351630647,-0.04332840597408506,0.109,0.9999999999991459,469.5643135953568,0.824551908812993,166,2026-10-07 22:16:40.629244,25.0,0.12458604325496705,0.44331280215337177,0.23120661149826346
0395,cdot_cos,R,Q-R,167,33,24584,0.05317630657122663,0.1450011077195228,0.07994511690571444,0.8806529433714292,740.0,5.029559190704027,0.5960894791688612,7.703178567650759,-0.12392276718522481,0.039,0.9999999999991375,-76.49178899122877,0.8295190524819352,167,2026-10-07 22:16:40.668243,25.0,0.5218580832126558,1.3055681960132632,1.8318120568237006
0395,cdot_cos,S,R-S,168,33,24611,0.0067482548659763475,-0.12684944330883213,-0.04642805170525028,0.2385398799856033,740.0,5.059952839776937,0.5963747219483876,7.729904722744313,-0.05324699077554816,0.027,0.9999999999991142,247.77411202847816,0.8344861842726359,168,2026-10-07 22:16:40.695244,25.0,0.26518710755099195,0.8506160989860596,1.1256907064040815
0395,cdot_cos,T,S-T,169,33,24831,-0.18716852214943694,-0.0371321944767468,-0.1939167770154133,0.007783621988759568,740.0,5.075492460049274,0.5963840284024282,7.7529972349937895,-0.027347782865069364,0.22,0.999999999999086,2782.9297600806817,0.839453520442064,169,2026-10-07 22:16:40.915244,25.0,0.3878908254194855,0.21615948940691157,0.0706346376015319
0395,cdot_cos,P,T-P,170,34,25176,0.0464482302896892,-0.0030246027854734956,0.23361675243912614,0.9971008051446949,738.0,5.155063015115978,0.597575631968904,7.791438017399237,-0.14121251418197833,0.345,0.9999999999990804,-95.55588328228379,0.844420992503969,170,2026-10-07 22:16:41.260243,25.0,0.4464910238777539,0.15223334514685796,0.23063929004841763
0395,cdot_cos,Q,P-Q,171,34,25297,-0.020169830401818883,-0.017565613410634145,-0.06661806069150808,0.15903155226145413,738.0,5.180533468200606,0.5977655794273249,7.816804542639045,-0.0456590464219337,0.121,0.9999999999990486,503.05209953529317,0.8493882248242661,171,2026-10-07 22:16:41.381243,25.0,0.12334611714877343,0.39851683699295276,0.21049961226965225
0395,cdot_cos,R,Q-R,172,34,25327,0.05153774528637634,0.15187448613496138,0.07170757568819522,0.8572566874494735,738.0,5.2515040896682725,0.5987889811373043,7.853049229963619,-0.12830359646991052,0.03,0.9999999999990388,-80.75475079051934,0.8543553584959953,172,2026-10-07 22:16:41.411244,25.0,0.5251177464326648,1.7052678280266984,2.3656873822555546
0395,cdot_cos,S,R-S,173,34,25353,0.006833588660787527,-0.11305250628893888,-0.04470415662558881,0.24645600303058582,738.0,5.282849537882208,0.5990830438875395,7.8797125605454985,-0.05720951914854784,0.026,0.9999999999990138,241.7649881342954,0.8593224884250636,173,2026-10-07 22:16:41.437243,25.0,0.2886049036165754,0.9106545059449975,1.205594162074433
0395,cdot_cos,T,S-T,174,34,25570,-0.1708512739116429,-0.03495930426043255,-0.17768486257243044,0.011633996144442684,738.0,5.298858123977412,0.5990969234065325,7.902636555548268,-0.029348759538564098,0.217,0.9999999999989829,2007.3289012404296,0.8642898320450266,174,2026-10-07 22:16:41.654243,25.0,0.3870120719304397,0.22262308459575475,0.07377228615301665
0395,cdot_cos,P,T-P,175,35,25914,0.04390841072452009,-0.0033462587985502875,0.214759684636163,0.9953627794965832,727.0,5.379467956596765,0.6002838142978719,7.941013987335768,-0.14898549410957862,0.344,0.9999999999989773,-100.7984267500835,0.8692573213734271,175,2026-10-07 22:16:41.998244,25.0,0.44797883927342713,0.15246356154322468,0.23433090877718882
0395,cdot_cos,Q,P-Q,176,35,26023,-0.030182521763223155,-0.025582743554258748,-0.07409093248774325,0.13560620499734768,727.0,5.403753054319151,0.6004454231380039,7.965814525103412,-0.04531922714838352,0.109,0.9999999999989424,641.4640862254683,0.8742245448411913,176,2026-10-07 22:16:42.107244,25.0,0.10152322685602055,0.446571021319319,0.22279906167326266
0395,cdot_cos,R,Q-R,177,35,26062,0.047181251902437694,0.13818967766985363,0.07736377366566086,0.8737019094210335,727.0,5.476820439244377,0.6014861326244997,8.002258422446351,-0.13746395118284874,0.039,0.9999999999989323,-88.54029412639126,0.8791916884531608,177,2026-10-07 22:16:42.146244,25.0,0.5115452729913611,1.4110705071625982,1.8735226903904079
0395,cdot_cos,S,R-S,178,35,26092,0.01797031132843432,-0.13684948246981696,-0.029210940574003374,0.3251347094461864,727.0,5.513816553877834,0.6018731831467509,8.029995731170326,-0.0702829291785542,0.03,0.999999999998908,173.57171258561343,0.884158822339384,178,2026-10-07 22:16:42.176243,25.0,0.3844792623754299,0.8879482599091808,1.2332038211152252
0395,cdot_cos,T,S-T,179,35,26314,-0.1576176230677214,-0.03726241109821738,-0.17558793439615572,0.012252484758010834,727.0,5.530097334838928,0.6018877664006778,8.052715412318271,-0.031078769800599527,0.222,0.9999999999988752,2688.299852316292,0.8891261831805913,179,2026-10-07 22:16:42.398243,25.0,0.28324443689666884,0.22031799477156883,0.07333685117609949
0395,cdot_cos,P,T-P,180,36,26641,0.035645944375548196,-0.004277495279396228,0.19326356744326958,0.9920892398527675,728.0,5.61163774355641,0.6030679767969288,8.091012050461606,-0.1568745606934887,0.327,0.9999999999988682,-106.58759767960109,0.8940936716029549,180,2026-10-07 22:16:42.725244,25.0,0.44848153665436974,0.16146732079673431,0.24935904806569562
0395,cdot_cos,Q,P-Q,181,36,26755,-0.04143751317934412,-0.03191105083045252,-0.07708345755489232,0.127073418111525,728.0,5.635696962639992,0.6032190597223608,8.115488833056942,-0.046719854791656884,0.114,0.9999999999988309,729.100959535145,0.8990609056843389,181,2026-10-07 22:16:42.839243,25.0,0.09463094663677474,0.4418832626378711,0.21104578143492783
0395,cdot_cos,R,Q-R,182,36,26786,0.052315265783662204,0.13669638888213803,0.09375277896300632,0.9124417110473336,728.0,5.712387127437845,0.6043033202775958,8.152503970929457,-0.15011496907829264,0.031,0.9999999999988214,-95.36002558372462,0.9040280396131711,182,2026-10-07 22:16:42.870244,25.0,0.5021919586078807,1.8860791223573583,2.4738762838017045
0395,cdot_cos,S,R-S,183,36,26813,0.0302919419250276,-0.17489935785461067,-0.022023323858634605,0.36572913673639684,728.0,5.752633868226148,0.6047376315287193,8.180745524046923,-0.07956140909327841,0.027,0.9999999999987971,162.44930289626703,0.9089951694074067,183,2026-10-07 22:16:42.897243,25.0,0.41197971065933164,1.0934296538591846,1.4906200291964211
0395,cdot_cos,T,S-T,184,36,27026,-0.0909488650636883,-0.017383919122359853,-0.1212408069887159,0.046043996179523476,728.0,5.771432328746241,0.6047922980706318,8.203808359375511,-0.03735116856549257,0.213,0.9999999999987629,772.1403083317114,0.9139625315825354,184,2026-10-07 22:16:43.110244,25.0,0.3230036793311366,0.2330388473266092,0.088255683192923
0395,cdot_cos,P,T-P,185,37,27369,0.035490451002107404,-0.002641275497167107,0.1264393160657957,0.9593393041846028,739.0,5.851908417187284,0.6059306925745219,8.241555115293714,-0.16111567013272682,0.343,0.9999999999987551,-108.71846371737598,0.9189300599271895,185,2026-10-07 22:16:43.453243,25.0,0.46386035979864143,0.15203600769596698,0.23462416455114554
0395,cdot_cos,Q,P-Q,186,37,27475,-0.044793975029864264,-0.036583774630006366,-0.08028442603197167,0.118458368476121,739.0,5.875729030025674,0.6060711810703474,8.265715876750033,-0.04811154750699886,0.106,0.9999999999987151,804.3656668237168,0.9238972890063809,186,2026-10-07 22:16:43.559244,25.0,0.09548422991679184,0.4788113898291819,0.22472276262632482
0395,cdot_cos,R,Q-R,187,37,27519,0.048489650330622566,0.13719098423228201,0.09328362536048683,0.9115001284154989,739.0,5.95341643183107,0.6071516079945232,8.302680435673869,-0.15811405657696437,0.044,0.9999999999987057,-101.8139280024743,0.9288644394136738,187,2026-10-07 22:16:43.603244,25.0,0.49871714368535736,1.3797656788540966,1.7656227683044576
0395,cdot_cos,S,R-S,188,37,27544,0.0337160165497842,-0.17485626751311428,-0.014773633780838367,0.40870030636648297,739.0,5.997148409764835,0.6076357123815799,8.331488224877122,-0.0898803446900008,0.025,0.9999999999986805,140.94834443004348,0.9338315659560572,188,2026-10-07 22:16:43.628243,25.0,0.46805865377211436,1.2585097087098696,1.749279117350575
0395,cdot_cos,T,S-T,189,37,27765,-0.08594452700865869,-0.014910567042331109,-0.11966054355844288,0.04781073672862744,739.0,6.016341917266564,0.6076923302649785,8.354395405830775,-0.0396532339679588,0.221,0.9999999999986438,887.1244862409035,0.9387989509171493,189,2026-10-07 22:16:43.849244,25.0,0.2817715556568881,0.2283240342133714,0.08684845023406833
0395,cdot_cos,P,T-P,190,38,28108,0.042742460746926295,-0.0039583969764845454,0.128686987755585,0.9614755004719424,728.0,6.098067632887145,0.6088303012239228,8.39215385665565,-0.1700853163295653,0.343,0.999999999998636,-114.61811159276746,0.94376650056704,190,2026-10-07 22:16:44.192243,25.0,0.4644679671947658,0.1558098886126104,0.23826739247982814
0395,cdot_cos,Q,P-Q,191,38,28217,-0.0322353176584658,-0.026296974022634614,-0.0749777784053921,0.13302829853291276,728.0,6.1232275008548145,0.6089876563118556,8.416384501277223,-0.05281642610360708,0.109,0.9999999999985938,745.2500695499635,0.948733738523634,191,2026-10-07 22:16:44.301243,25.0,0.10857534000004813,0.4679007215429897,0.23082447676761164
0395,cdot_cos,R,Q-R,192,38,28256,0.04894764179591476,0.14330243226436307,0.08118295945438056,0.8838673565482066,728.0,6.200069990183517,0.6100325789413665,8.452867100452611,-0.1625002671870745,0.039,0.999999999998582,-104.96838520456056,0.9537008825980541,192,2026-10-07 22:16:44.340243,25.0,0.5091684501935982,1.5107687824621663,1.9703202391974892
0395,cdot_cos,S,R-S,193,38,28285,0.026009428249951755,-0.15564060605365884,-0.022938213545963003,0.3604399063849139,728.0,6.2410674658868635,0.6104584078054529,8.48076698977724,-0.08749264114167078,0.029,0.9999999999985533,176.1450018338569,0.9586680138202128,193,2026-10-07 22:16:44.369244,25.0,0.42430526757182235,1.0127132501689702,1.4137060587360994
0395,cdot_cos,T,S-T,194,38,28505,-0.1239243184219621,-0.03138947916901938,-0.14993374667191384,0.023014583007684324,728.0,6.258807358693317,0.6104855918501378,8.50308812429312,-0.03803646286908686,0.22,0.9999999999985131,1819.309041232936,0.9636354099582946,194,2026-10-07 22:16:44.589243,25.0,0.27246891623563135,0.23250238152042646,0.08063587639296993
0395,cdot_cos,P,T-P,195,39,28836,0.04879227588113468,-0.004009783727172725,0.17271659430309677,0.9868476452829901,737.0,6.343368513755851,0.6116505748254759,8.541243429849546,-0.18259414683782094,0.331,0.9999999999985053,-124.08566221904191,0.9686029638584981,195,2026-10-07 22:16:44.920243,25.0,0.4530791305278425,0.1687962122632948,0.2554717675605264
0395,cdot_cos,Q,P-Q,196,39,28953,-0.01835611083608824,-0.015605767744805581,-0.06714838671722292,0.15726640572851686,737.0,6.370550451211618,0.611836111877673,8.565713894658424,-0.059204474264471785,0.117,0.9999999999984615,665.0406003126047,0.9735702182040231,196,2026-10-07 22:16:45.037244,25.0,0.12441562622218981,0.44361767340688685,0.23232425175869156
0395,cdot_cos,R,Q-R,197,39,28983,0.05637690082215465,0.15172524799055603,0.07473301165824289,0.8662643807852943,737.0,6.447175049333063,0.6128575160307137,8.601873578198628,-0.1680946428160943,0.03,0.9999999999984479,-106.60830801152831,0.9785373495023992,197,2026-10-07 22:16:45.067244,25.0,0.5232003383421827,1.772460896484581,2.5541532707148207
0395,cdot_cos,S,R-S,198,39,29013,-0.00125057163329092,-0.10347622032274456,-0.05762747245544557,0.1914390144153506,737.0,6.476898105000693,0.6130831064731199,8.626852437847303,-0.06573161991105943,0.03,0.999999999998411,453.7560271312818,0.9835044815763393,198,2026-10-07 22:16:45.097243,25.0,0.21070686192660357,0.7696124393779573,0.990768522254341
0395,cdot_cos,T,S-T,199,39,29223,-0.2564704109359104,-0.16976641525878108,-0.2552198393026195,0.001691416676126444,737.0,6.49335179569574,0.6130850994110447,8.648638088148427,-0.03651677626139798,0.21,0.9999999999983678,14659.183954562546,0.9884718750143595,199,2026-10-07 22:16:45.307244,25.0,0.44931145925465366,0.2451552139464046,0.07835090807165337
0395,cdot_cos,P,T-P,200,40,29573,0.05403868457647934,-0.005518020533560588,0.3105090955123897,0.9995748857460947,748.0,6.579863294858183,0.614262199574433,8.686988008774042,-0.19330654974758177,0.35,0.9999999999983599,-133.20002695001838,0.9934394759358409,200,2026-10-07 22:16:45.657243,25.0,0.44437167870343525,0.16226243016352448,0.2471757118926935
0395,cdot_cos,Q,P-Q,201,40,29692,-0.01499764397411415,-0.013076051646557642,-0.0690363285505935,0.15111171268619136,748.0,6.606935496810207,0.6144400329969913,8.71119999121751,-0.06100688304999108,0.119,0.9999999999983127,743.9527665512305,0.9984067382669626,201,2026-10-07 22:16:45.776243,25.0,0.11433731492036524,0.43769665828892806,0.22749749539516323
0395,cdot_cos,R,Q-R,202,40,29722,0.057480279319254805,0.14904439367573127,0.07247792329336895,0.8595971528480314,748.0,6.684035099530948,0.6154510538762853,8.747212152908116,-0.17494370116353178,0.03,0.9999999999982984,-112.69482208231891,1.0033738688405325,202,2026-10-07 22:16:45.806243,25.0,0.5213795222104936,1.7761866675517417,2.5699867573580155
0395,cdot_cos,S,R-S,203,40,29747,-0.0023796395815579257,-0.10407842392215351,-0.05985991890081273,0.18294841978673537,748.0,6.713506696863312,0.6156661015512388,8.771900884670151,-0.06739491835595945,0.025,0.9999999999982584,500.1159990724143,1.0083409926338724,203,2026-10-07 22:16:45.831244,25.0,0.2027463505402743,0.9244723360658114,1.1788638932945616
0395,cdot_cos,T,S-T,204,40,29962,-0.2303668101326552,-0.08082295506228597,-0.22798717055109727,0.003335873503858276,748.0,6.730258716334238,0.6156700223017647,8.793535994397512,-0.03844013486476637,0.215,0.9999999999982112,7385.010420798015,1.0133084048582957,204,2026-10-07 22:16:46.046243,25.0,0.4708368922390796,0.2424745267982451,0.0779163696322164
0395,cdot_cos,P,T-P,205,41,30321,0.03966047031274515,-0.00284578554255421,0.27002728044540036,0.9988312861501664,734.0,6.817770743386557,0.6168433001995293,8.831861423769102,-0.20213404427210074,0.359,0.9999999999982034,-139.51844632820564,1.0182760400787407,205,2026-10-07 22:16:46.405244,25.0,0.44493436694620503,0.16057858290681604,0.24376609206774058
0395,cdot_cos,Q,P-Q,206,41,30431,-0.027651524742123994,-0.022499639435719657,-0.06731199505486915,0.1567250749583423,734.0,6.845554138861332,0.6170272743361284,8.856017266344496,-0.06470805521997663,0.11,0.9999999999981535,746.9853730124746,1.0232432935968547,206,2026-10-07 22:16:46.515244,25.0,0.11957818230353463,0.48660144348768664,0.2525763224979549
0395,cdot_cos,R,Q-R,207,41,30469,0.0509144699839781,0.14224272564696414,0.0785659947261021,0.8769813620377663,734.0,6.924823060953848,0.618056112534659,8.892288915609418,-0.1858748216189607,0.038,0.9999999999981386,-117.7704779741212,1.02821043596859,207,2026-10-07 22:16:46.553244,25.0,0.521068931532827,1.5133344557189252,2.0860242655925267
0395,cdot_cos,S,R-S,208,41,30496,0.010264024678933776,-0.12898346627887966,-0.04065044530504432,0.26575632610834565,734.0,6.9605675574959704,0.6183676784048816,8.918235460250143,-0.08448966717125403,0.027,0.9999999999980995,325.40520043245357,1.0331775618605377,208,2026-10-07 22:16:46.580243,25.0,0.30120293225944117,0.9818109278843132,1.3238702423008262
0395,cdot_cos,T,S-T,209,41,30722,-0.18348422539667558,-0.04210417728985497,-0.19374825007560936,0.007816228054464672,734.0,6.977840851059601,0.6183768404766985,8.939780262808313,-0.04098461048226233,0.226,0.9999999999980499,4748.386343007954,1.0381450038959577,209,2026-10-07 22:16:46.806243,25.0,0.3459374221850051,0.23386689173360925,0.07643050249394075
0395,cdot_cos,P,T-P,210,42,31055,0.047885948444972425,-0.004265156688125195,0.231370173841648,0.9969338274724732,732.0,7.066275392559562,0.6195447398188161,8.978066480197315,-0.21117227627453905,0.333,0.9999999999980413,-145.7211761791901,1.0431126199939538,210,2026-10-07 22:16:47.139244,25.0,0.446677419025873,0.17409561501987142,0.2655691936935759
0395,cdot_cos,Q,P-Q,211,42,31172,-0.022003719482737064,-0.019427871222230827,-0.06988966792770948,0.14839543834961158,732.0,7.093788530662835,0.6197184659171953,9.001941343804148,-0.06622918847733945,0.117,0.9999999999979876,834.3195935986731,1.04807988991203,211,2026-10-07 22:16:47.256243,25.0,0.11208388860689611,0.4559452986996546,0.235155026523706
0395,cdot_cos,R,Q-R,212,42,31203,0.05148790432439134,0.1461197595617218,0.0734916238071284,0.8626279556732266,732.0,7.172966592455281,0.6207277335619804,9.037942996681343,-0.19183444648848244,0.031,0.9999999999979722,-124.45188217430814,1.053047020718872,212,2026-10-07 22:16:47.287244,25.0,0.5195674591294094,1.8245884331063034,2.5541310255627607
0395,cdot_cos,S,R-S,213,42,31232,0.004316559046657855,-0.11396427565225563,-0.047171345277733485,0.2351810255655956,732.0,7.206913013515426,0.6210027127067579,9.063246998770222,-0.08287493863681775,0.029,0.999999999997929,396.2464423978004,1.0580141490736974,213,2026-10-07 22:16:47.316243,25.0,0.2685424797310434,0.8812829631107908,1.1705662434532835
0395,cdot_cos,T,S-T,214,42,31460,-0.2193098427965977,-0.12111104122517484,-0.22362640184325555,0.0037186831669666683,732.0,7.224081004315707,0.6210070600541001,9.084560899272377,-0.04206180581198454,0.228,0.9999999999978754,9388.054280460043,1.06298160750824,214,2026-10-07 22:16:47.544243,25.0,0.3789642609481293,0.23410980221398128,0.07529820526438878
0395,cdot_cos,P,T-P,215,43,31787,0.04168585390933745,-0.0009028246028791691,0.26099569670593514,0.9985356704998034,759.0,7.313667083325002,0.6221736985683265,9.122868298282768,-0.2208440836257641,0.327,0.9999999999978667,-153.245650330971,1.0679492342174317,215,2026-10-07 22:16:47.871244,25.0,0.4450624288762323,0.18499122345552196,0.2739635443709322
0395,cdot_cos,Q,P-Q,216,43,31909,-0.014429010448872964,-0.01171892272207453,-0.05611486435821041,0.19736082585743622,759.0,7.345065264455618,0.6224041180931389,9.147446515629326,-0.07802701503007059,0.122,0.9999999999978129,619.8132242134083,1.072916518175622,216,2026-10-07 22:16:47.993243,25.0,0.16035677184212088,0.45502054875569475,0.2573621404148897
0395,cdot_cos,R,Q-R,217,43,31938,0.056911402332965474,0.15160709399479644,0.07134041278183843,0.8561297782697702,759.0,7.424692097221391,0.6234030115944875,9.183311435071431,-0.19916948501755521,0.029,0.9999999999977955,-121.27666245092924,1.0778836449841627,217,2026-10-07 22:16:48.022244,25.0,0.5443090405237504,1.8955751443781337,2.7457528539921716
0395,cdot_cos,S,R-S,218,43,31965,-0.0036404337050226117,-0.08688648652851184,-0.06055183603798808,0.18037692200599878,759.0,7.45500862282955,0.6236133338358888,9.207552172999575,-0.07637788572823556,0.027,0.9999999999977479,583.8260303390648,1.082850769165347,218,2026-10-07 22:16:48.049243,25.0,0.20035084253017774,0.8816554854697053,1.1228342817836587
0395,cdot_cos,T,S-T,219,43,32179,-0.23711791641643634,-0.08100353537209258,-0.23347748271141372,0.0029092772823046285,759.0,7.472301493436755,0.623616725716027,9.22869642991143,-0.04370601966714541,0.214,0.9999999999976913,9632.376360560864,1.0878182168011887,219,2026-10-07 22:16:48.263244,25.0,0.4735314337771974,0.2522218161152014,0.08080780657572571
0395,cdot_cos,P,T-P,220,44,32546,0.048552350560119195,-0.003708149216294639,0.2856702669765555,0.9992092650449717,759.0,7.562959560126856,0.6247809691384159,9.267011277063704,-0.230501798034156,0.367,0.9999999999976822,-160.44391986663172,1.092785933885326,220,2026-10-07 22:16:48.630244,25.0,0.4446857122697382,0.1631892240920221,0.24702470487765915
0395,cdot_cos,Q,P-Q,221,44,32668,-0.017227022047449008,-0.014708421991167855,-0.0657793726075682,0.1618558042707042,759.0,7.5920823839202995,0.6249694224933772,9.290850821724751,-0.07462089567106721,0.122,0.9999999999976231,827.1590728384064,1.0977532234486507,221,2026-10-07 22:16:48.752243,25.0,0.1238144499784614,0.45026287302566725,0.2387116704380601
0395,cdot_cos,R,Q-R,222,44,32698,0.055098031407485794,0.14651219508280855,0.0723250534549348,0.8591352725625323,759.0,7.672823701145119,0.625969103235825,9.326742139045411,-0.20815870429411013,0.03,0.9999999999976044,-133.58045519218558,1.1027203510413957,222,2026-10-07 22:16:48.782243,25.0,0.5264919615506297,1.8718591879798594,2.691377240827316
0395,cdot_cos,S,R-S,223,44,32723,-0.002152427810148848,-0.09420460403605058,-0.05725045921763464,0.19290220706177624,759.0,7.704393935199091,0.6261934147969905,9.351074383495012,-0.08197008230662015,0.025,0.9999999999975535,562.559599388488,1.1076874705095134,223,2026-10-07 22:16:48.807244,25.0,0.2144996223509291,0.9786628461410452,1.2628093621588832
0395,cdot_cos,T,S-T,224,44,32941,-0.2635088262215446,-0.08869359459667282,-0.26135639841139574,0.0014512032811988028,759.0,7.721756843452171,0.6261951020873896,9.372042699900486,-0.045225068895690015,0.218,0.9999999999974936,21777.52770434046,1.1126549376027053,224,2026-10-07 22:16:49.025243,25.0,0.4437507940020058,0.25013792437676363,0.07964636813339532
0395,cdot_cos,P,T-P,225,45,33305,0.052025411743485676,-0.004893685236837798,0.3155342379650303,0.9996250549081798,741.0,7.81345407022736,0.6273566186011392,9.4103621473362,-0.24022901722487,0.364,0.999999999997484,-167.8873662326719,1.1176226724908525,225,2026-10-07 22:16:49.389244,25.0,0.44408386196234007,0.1665096199985717,0.2519154581735955
0395,cdot_cos,Q,P-Q,226,45,33411,-0.013401596241289624,-0.012146703337344215,-0.0654270079847753,0.16305439826319496,741.0,7.8429758468111315,0.6275459410576265,9.434097511231618,-0.07792877204469509,0.106,0.999999999997421,857.2688533178618,1.1225899384086577,226,2026-10-07 22:16:49.495244,25.0,0.12459656661127423,0.5157188647849831,0.27850732626199454
0395,cdot_cos,R,Q-R,227,45,33456,0.051412375309411944,0.15020425818587735,0.06481397155070157,0.8348432953661281,741.0,7.9227864695617765,0.6285146637488483,9.46954173972853,-0.21192245276845662,0.045,0.9999999999974012,-138.3199567202843,1.1275570929729641,227,2026-10-07 22:16:49.540244,25.0,0.5313804990527891,1.265266662779574,1.7735693944587776
0395,cdot_cos,S,R-S,228,45,33486,0.0011915648957125373,-0.09324991050805456,-0.050220810413699406,0.22174601829414017,741.0,7.956849846461293,0.6287717968219426,9.494259471153155,-0.09107655639615772,0.03,0.9999999999973488,469.9741457528991,1.1325242205191113,228,2026-10-07 22:16:49.570244,25.0,0.2653088597642047,0.8636737067000855,1.1354458966505554
0395,cdot_cos,T,S-T,229,45,33698,-0.21613951617551655,-0.11437472503029478,-0.2173310810712291,0.004349752781829155,741.0,7.974606891963782,0.6287768399955376,9.515133740814314,-0.047632385439034905,0.212,0.9999999999972846,8614.450829253725,1.137491689147768,229,2026-10-07 22:16:49.782243,25.0,0.4016910075027452,0.26032208935585754,0.08375964859664371
0395,cdot_cos,P,T-P,230,46,34046,0.046856862984470504,-0.004207561426252522,0.2629963791599871,0.9986070109419504,752.0,8.067226412348177,0.6299338964078369,9.553434399047454,-0.2498474931384892,0.348,0.9999999999972745,-174.76685280850216,1.1424594173552993,230,2026-10-07 22:16:50.130244,25.0,0.4451454665772242,0.17564746091412844,0.26614804708159523
0395,cdot_cos,Q,P-Q,231,46,34166,-0.01934807951325385,-0.016501172631720244,-0.06620494249772435,0.1604176872511234,752.0,8.096857524760015,0.6301196289856182,9.577003588924594,-0.08052443790603185,0.12,0.9999999999972081,911.6497345544831,1.1474267147718427,231,2026-10-07 22:16:50.250243,25.0,0.1221196906928771,0.46921036658769866,0.2469259367653187
0395,cdot_cos,R,Q-R,232,46,34196,0.055079545418788636,0.14838399603549876,0.07442762493204248,0.8653774255089489,752.0,8.179836900329224,0.6311209028559048,9.612961712162011,-0.22681781280184393,0.03,0.9999999999971887,-146.10725320729605,1.1523938406972367,232,2026-10-07 22:16:50.280244,25.0,0.5246720593083118,1.9260964127362594,2.7659791856403144
0395,cdot_cos,S,R-S,233,46,34225,-0.0009935603756767925,-0.10071750563694531,-0.05607310579446543,0.1975262519695651,752.0,8.21242330952419,0.6313492902167364,9.637143189377385,-0.08968182671507223,0.029,0.999999999997132,600.4534821343785,1.1573609655703603,233,2026-10-07 22:16:50.309243,25.0,0.21672216725222349,0.8684723645130973,1.1236692825850392
0395,cdot_cos,T,S-T,234,46,34438,-0.2425569123753396,-0.09172363268276053,-0.2415633519996628,0.0023780731850986344,752.0,8.230208297470984,0.6313520394769532,9.657843653373515,-0.04909676346435509,0.213,0.9999999999970642,14762.176021922833,1.1623284488828458,234,2026-10-07 22:16:50.522244,25.0,0.43751941849528536,0.26160462125452155,0.08349759599433572
0395,cdot_cos,P,T-P,235,47,34798,0.046975360242511276,-0.004512177630641524,0.28953227261785086,0.9992819885807245,767.0,8.323866878178617,0.6325065398279873,9.696156497446292,-0.25996284652851753,0.36,0.9999999999970541,-182.64704976077155,1.1672962235308877,235,2026-10-07 22:16:50.882244,25.0,0.4443515251180046,0.1712059576649278,0.2601627241878685
0395,cdot_cos,Q,P-Q,236,47,34908,-0.02050867432174084,-0.015920484835359076,-0.06748403456425212,0.15615748529234413,767.0,8.353476586989732,0.6326868164120745,9.719534709222147,-0.08278099717410418,0.11,0.9999999999969844,982.8334070761103,1.1722635069530423,236,2026-10-07 22:16:50.992243,25.0,0.1176114801332419,0.519745316461805,0.2691791710101396
0395,cdot_cos,R,Q-R,237,47,34948,0.05802458910870997,0.1445206004891153,0.0785332634304508,0.8768930543629011,767.0,8.438210847800214,0.6336984584254557,9.755679308930373,-0.2382423294951567,0.04,0.9999999999969649,-153.67227760880826,1.1772306520995972,237,2026-10-07 22:16:51.032243,25.0,0.5207243424304725,1.4601542489925956,2.1183565202620436
0395,cdot_cos,S,R-S,238,47,34974,-0.0008806259873317482,-0.11100116669579652,-0.05890521509604172,0.18654313874464779,767.0,8.47028892690914,0.6339135153258386,9.779556980798015,-0.09079699064999067,0.026,0.9999999999969045,685.6108247753396,1.1821977699933883,238,2026-10-07 22:16:51.058244,25.0,0.19712816767595093,0.9725621111904901,1.2337722734202272
0395,cdot_cos,T,S-T,239,47,35197,-0.18733374965809788,-0.013936880084887844,-0.18645312367076614,0.009365359260742728,767.0,8.48878407758212,0.6339243108063543,9.800247605958313,-0.05250646771704419,0.223,0.9999999999968332,3546.9030653605505,1.1871652864295272,239,2026-10-07 22:16:51.281244,25.0,0.48226889170866644,0.2533375956400808,0.08293789539452724
0395,cdot_cos,P,T-P,240,48,35565,0.0508644287969912,-0.004089883465010577,0.23819817845508906,0.9974137441510824,763.0,8.583277494564616,0.6350732610777801,9.838528574682844,-0.2696877105346226,0.368,0.9999999999968223,-189.02579878245197,1.192133101381952,240,2026-10-07 22:16:51.649244,25.0,0.44695095396490003,0.16846924103752287,0.2567755896263491
0395,cdot_cos,Q,P-Q,241,48,35684,-0.018245134358525362,-0.015203341045743472,-0.06910956315551656,0.15087700485785743,763.0,8.612777438985736,0.6352469272059372,9.861700793164289,-0.08478829145458902,0.119,0.9999999999967478,1064.6832577087175,1.1971004083546355,241,2026-10-07 22:16:51.768243,25.0,0.11296030840156858,0.4806158070601072,0.24789869261445682
0395,cdot_cos,R,Q-R,242,48,35715,0.056931676168847624,0.14329463910828943,0.07517681052737299,0.8675445225005827,763.0,8.697664056644921,0.6362448251562147,9.897663343330828,-0.2453154648288422,0.031,0.9999999999967261,-160.86532027610053,1.2020675344876277,242,2026-10-07 22:16:51.799244,25.0,0.5197692178776022,1.925456357955222,2.7382779890059727
0395,cdot_cos,S,R-S,243,48,35741,0.004799776019494766,-0.12037567182840611,-0.05213190014935286,0.21361057556545443,763.0,8.73215573317896,0.636490352525353,9.921919352932145,-0.10033656943023819,0.026,0.9999999999966642,590.4795701897555,1.2070346510926093,243,2026-10-07 22:16:51.825243,25.0,0.23576357533145745,1.0368970936470285,1.32660294361687
0395,cdot_cos,T,S-T,244,48,35957,-0.152857288555858,-0.012500554448830197,-0.15765706457535278,0.01905051902070287,763.0,8.751582705514567,0.6365122460409142,9.942655829764874,-0.05668660811868665,0.216,0.99999999999659,1993.7392507679083,1.2120021667120446,244,2026-10-07 22:16:52.041243,25.0,0.46300267014324936,0.2650421727456422,0.08993968673892067
0395,cdot_cos,P,T-P,245,49,36328,0.041848003688966705,-0.004288937135612318,0.19470529224482472,0.992367153465623,746.0,8.846653951805077,0.6376519247785066,9.980848383960938,-0.27885090623870334,0.371,0.9999999999965778,-194.93589797887412,1.2169700131918215,245,2026-10-07 22:16:52.412243,25.0,0.45080808614888235,0.1686901644936437,0.2562567285458506
0395,cdot_cos,Q,P-Q,246,49,36443,-0.026056208873277566,-0.02183020700633017,-0.06790421256224427,0.15477828368676036,746.0,8.87675080756885,0.6378295400138185,10.003983102933397,-0.08888536202054803,0.115,0.9999999999964996,1069.5340626864956,1.2219373175499624,246,2026-10-07 22:16:52.527244,25.0,0.1179850720463661,0.5078939545586783,0.26171178925020067
0395,cdot_cos,R,Q-R,247,49,36475,0.0536278362694648,0.13878075796765263,0.07968404514274237,0.8799652494408758,746.0,8.963469561353573,0.6388386243418185,10.040154902576093,-0.2574837232428602,0.032,0.9999999999964788,-167.08054673337455,1.2269044450032403,247,2026-10-07 22:16:52.559244,25.0,0.5195499581400541,1.919569790729686,2.7099610557725917
0395,cdot_cos,S,R-S,248,49,36504,0.005342202070053449,-0.12781910378005146,-0.048285634199411356,0.23020733464433518,746.0,8.99960327417555,0.6391024087769581,10.064612636117973,-0.10799207962938301,0.029,0.9999999999964144,566.718970868554,1.2318715669200522,248,2026-10-07 22:16:52.588243,25.0,0.2505032450683032,0.9555031872576704,1.2459900973095506
0395,cdot_cos,T,S-T,249,49,36734,-0.16260703422806624,-0.023901803808262144,-0.1679492362981197,0.014792515679296,746.0,9.018888746214518,0.6391193560010348,10.08515118471597,-0.05781476734401286,0.23,0.9999999999963358,2960.798302923703,1.2368391267794523,249,2026-10-07 22:16:52.818244,25.0,0.4198331745093923,0.2509076960241878,0.08384987843029526
0395,cdot_cos,P,T-P,250,50,37074,0.03948904816419914,-0.0032902182293100915,0.2020960823922654,0.9936466666163599,762.0,9.115020814346677,0.6402569442406344,10.123369386084724,-0.2896346359262276,0.34,0.9999999999963233,-203.78187863809205,1.2418069311682054,250,2026-10-07 22:16:53.158243,25.0,0.44915499697954636,0.18579961753600424,0.2827413768592896
0395,cdot_cos,Q,P-Q,251,50,37185,-0.02912987442828748,-0.022801639627548612,-0.06861892259248661,0.15245518087725804,762.0,9.145232486139001,0.6404313453702417,10.146359516207502,-0.09163898151262911,0.111,0.9999999999962417,1135.288830177928,1.2467742326189155,251,2026-10-07 22:16:53.269243,25.0,0.11525535438997417,0.5352911467422928,0.2721772233542741
0395,cdot_cos,R,Q-R,252,50,37224,0.055788251137271046,0.14186902211575583,0.08491812556555853,0.8931141673220203,762.0,9.233855448923466,0.6414522771710364,10.182758200011346,-0.2702250312262432,0.039,0.9999999999962211,-174.9245635943648,1.251741375118919,252,2026-10-07 22:16:53.308243,25.0,0.5163972192926429,1.579897382545899,2.2723836611401174
0395,cdot_cos,S,R-S,253,50,37250,0.0019144356040264128,-0.11991668959535551,-0.053873815533244634,0.20638659075536583,762.0,9.268464481977581,0.6416880188222103,10.206691776388148,-0.10620504669840322,0.026,0.9999999999961516,695.761583543182,1.2567084893950147,253,2026-10-07 22:16:53.334244,25.0,0.21344610598396588,1.0364995659591327,1.3311166559275214
0395,cdot_cos,T,S-T,254,50,37472,-0.1728450539664506,-0.017199711207665985,-0.17475948957047702,0.012505686971153184,762.0,9.28775342635334,0.6417023010358985,10.227070807673611,-0.05936357547851384,0.222,0.9999999999960686,3279.7066506835604,1.2616760463123249,254,2026-10-07 22:16:53.556243,25.0,0.45427123994827934,0.26244281539430897,0.08688713682774478
0395,cdot_cos,P,T-P,255,51,37836,0.04393158962837773,-0.0027453864201694936,0.21677664359482834,0.9955898035319726,776.0,9.384989092012654,0.6428385133195006,10.265327249258004,-0.3007074723560227,0.364,0.9999999999960564,-212.41092035406695,1.2666439292982388,255,2026-10-07 22:16:53.920243,25.0,0.4481680691231635,0.18056398490543243,0.2671309496134996
0395,cdot_cos,Q,P-Q,256,51,37943,-0.01173018545285173,-0.009546134066589997,-0.055661775081229464,0.19916132030514053,776.0,9.419204007364495,0.6430656130623458,10.289069876102968,-0.10652660289602713,0.107,0.9999999999959747,855.0466285308462,1.271611227180704,256,2026-10-07 22:16:54.027244,25.0,0.1615663770351844,0.5649108448526453,0.3197655640358968
0395,cdot_cos,R,Q-R,257,51,37988,0.06011583274719179,0.14855488681840653,0.07184601820004352,0.8576796861474423,776.0,9.50588001281112,0.6440428729232015,10.324812906950486,-0.2712646339845854,0.045,0.9999999999959506,-168.57136743988136,1.276578383406987,257,2026-10-07 22:16:54.072243,25.0,0.5448218692676347,1.3111550419880658,1.9261334543694473
0395,cdot_cos,S,R-S,258,51,38014,-0.005891632586159855,-0.08567102134069202,-0.06600746533335164,0.16108372714386013,776.0,9.537207961143421,0.6442262819059654,10.34782658126273,-0.09863382801873227,0.026,0.9999999999958737,941.2341934640027,1.2815454963839419,258,2026-10-07 22:16:54.098243,25.0,0.17373588033546178,0.9598194934508086,1.2049210897038767
0395,cdot_cos,T,S-T,259,51,38232,-0.26667097629390385,-0.04758453456772602,-0.26077934370774397,0.0014722595682408602,776.0,9.555790626470563,0.6442279580169139,10.367888063193279,-0.05865946118037066,0.218,0.9999999999957859,23849.475402953078,1.2865130581416522,259,2026-10-07 22:16:54.316243,25.0,0.5058753666565318,0.2685060538123166,0.08524158406945531
0395,cdot_cos,P,T-P,260,52,38612,0.03936118961065728,-0.00392041061968803,0.3060321659045611,0.9995245646731197,752.0,9.654276600605591,0.6453650605585122,10.406219573701323,-0.3123447484599846,0.38,0.9999999999957734,-223.09798632851857,1.2914810042921019,260,2026-10-07 22:16:54.696243,25.0,0.44388204223877487,0.16935612495240635,0.2591736161448126
0395,cdot_cos,Q,P-Q,261,52,38723,-0.0314618502081151,-0.024612613123025567,-0.07082303981877239,0.14547071290251248,752.0,9.684501281434391,0.6455304178838018,10.428884451462842,-0.09647853358735126,0.111,0.9999999999956828,1305.4529909364119,1.296448316532259,261,2026-10-07 22:16:54.807244,25.0,0.10672996609375145,0.5425404707351538,0.2722944218810814
0395,cdot_cos,R,Q-R,262,52,38760,0.0528199719367133,0.1372221804134215,0.0842818221448284,0.891586085669951,752.0,9.774720585108795,0.646543127605305,10.465236316440906,-0.2894028636409596,0.037,0.9999999999956596,-190.50308884885231,1.3014154535784002,262,2026-10-07 22:16:54.844243,25.0,0.5134364785683753,1.7374305950819546,2.438359558767679
0395,cdot_cos,S,R-S,263,52,38788,0.00774437248152809,-0.12878555678217304,-0.04507559945518521,0.2447354994666708,752.0,9.813071145470456,0.6468208814126897,10.489693517850357,-0.12378852926096223,0.028,0.9999999999955864,596.263057343481,1.306382569999206,263,2026-10-07 22:16:54.872243,25.0,0.2624010801400474,1.0391478427082783,1.369662870059304
0395,cdot_cos,T,S-T,264,52,39010,-0.1598784221339743,-0.02325844481331625,-0.1676227946155024,0.01491192440663935,752.0,9.832912864300459,0.6468378019657903,10.509891883660055,-0.06423432716418744,0.222,0.9999999999954948,3519.6368429870795,1.311350155926431,264,2026-10-07 22:16:55.094244,25.0,0.3956838230283496,0.26781015027010213,0.08937711184686069
0395,cdot_cos,P,T-P,265,53,39364,0.052256611456938114,-0.005510175621013836,0.2121350335909124,0.9950498543469717,764.0,9.931978852190381,0.647966051126042,10.548145091762944,-0.322180861361539,0.354,0.9999999999954816,-228.62550514977843,1.3163180666942818,265,2026-10-07 22:16:55.448243,25.0,0.44904754935875646,0.1854941599128301,0.2798474234178595
0395,cdot_cos,Q,P-Q,266,53,39481,-0.01198928562497236,-0.010078515504763722,-0.06424589708191047,0.16712417992664322,764.0,9.964242729518743,0.6481553854080797,10.571117125426156,-0.10559939302616232,0.117,0.9999999999953887,1143.9104741329284,1.3212853995967593,266,2026-10-07 22:16:55.565243,25.0,0.12860974877550818,0.5179646678542509,0.2757596352851405
0395,cdot_cos,R,Q-R,267,53,39512,0.06239446816454328,0.14918874356137732,0.07438375378951564,0.8652496003219698,764.0,10.053182584468276,0.6491348773535364,10.606974174337566,-0.29249853233497036,0.031,0.9999999999953633,-190.8123289586341,1.326252521466237,267,2026-10-07 22:16:55.596244,25.0,0.5278333750717109,1.9372247013990778,2.869027579017202
0395,cdot_cos,S,R-S,268,53,39540,-0.006367087923698208,-0.09191451580285935,-0.06876155608824149,0.15199500054476525,764.0,10.084350661005486,0.6493068114714409,10.629633517516138,-0.10309504408502823,0.028,0.9999999999952783,1101.6050249848654,1.3312196368231723,268,2026-10-07 22:16:55.624243,25.0,0.15926695041424252,0.8991584301455888,1.1131455906146266
0395,cdot_cos,T,S-T,269,53,39769,-0.2200199084375136,-0.03998170669550199,-0.2136528205138154,0.004766711516545441,764.0,10.103535456556429,0.6493122028665197,10.649534859872594,-0.06361605993782536,0.229,0.9999999999951815,7322.5915686023955,1.3361872546120068,269,2026-10-07 22:16:55.853244,25.0,0.5376314244103358,0.2608141627952009,0.08377639978577918
0395,cdot_cos,P,T-P,270,54,40128,0.04265801782782305,-0.004704486849771889,0.26267792626533665,0.9985958922777025,779.0,10.203803547565688,0.6504408238324739,10.687856691819293,-0.3339551480460683,0.359,0.9999999999951681,-239.53045022486867,1.341155202874216,270,2026-10-07 22:16:56.212243,25.0,0.445077357915186,0.18303924788562023,0.2792983036469599
0395,cdot_cos,Q,P-Q,271,54,40239,-0.026698802684584723,-0.0201876990526905,-0.06935682051240777,0.15008678984779952,779.0,10.234957636538304,0.6506103078602739,10.71042148603868,-0.10441066551529513,0.111,0.99999999999507,1354.3723589207304,1.346122526404956,271,2026-10-07 22:16:56.323244,25.0,0.11097200205035362,0.5580111998487085,0.28066746822177235
0395,cdot_cos,R,Q-R,272,54,40275,0.06189621984197586,0.13784227588789863,0.08859502252656058,0.9015774106291672,779.0,10.327682033932101,0.6516276031599778,10.746942005630578,-0.31221945198361256,0.036,0.9999999999950463,-204.27577570523695,1.3510896601177491,272,2026-10-07 22:16:56.359244,25.0,0.5139724322882796,1.7408828361941995,2.5756777053832383
0395,cdot_cos,S,R-S,273,54,40302,-0.0025744718118077916,-0.12142119411829692,-0.06447069165378365,0.1663433929731358,779.0,10.360301200744287,0.6518151461643574,10.769777994307594,-0.11047640357899233,0.027,0.9999999999949589,1075.716202115739,1.3560567717019358,273,2026-10-07 22:16:56.386244,25.0,0.16103735884241427,0.9759819426789681,1.2081172893402148
0395,cdot_cos,T,S-T,274,54,40511,-0.1736375230368265,-0.0024175754960713393,-0.17106305122501872,0.013699843994506213,779.0,10.380385058836765,0.651830589886974,10.789740443631937,-0.0681930493402532,0.209,0.9999999999948588,2737.8990991130904,1.3610243532427977,274,2026-10-07 22:16:56.595244,25.0,0.5379155374937932,0.2895658116445534,0.09609501479654775
0395,cdot_cos,P,T-P,275,55,40907,0.04546422062869026,-0.004908157830169871,0.21910174366551677,0.9958378123490509,759.0,10.48133971001171,0.6529523334037114,10.828014182306303,-0.3442635032902511,0.396,0.9999999999948457,-246.10835706271024,1.3659924240119818,275,2026-10-07 22:16:56.991244,25.0,0.4484688187580293,0.16665899747431212,0.2549359878155173
0395,cdot_cos,Q,P-Q,276,55,41019,-0.02539122006113017,-0.020300862452488112,-0.07085544068982043,0.14537004883187085,759.0,10.51237898483642,0.6531159412384332,10.850402483117069,-0.10649268078275566,0.112,0.9999999999947412,1453.2972880656985,1.3709597556389486,276,2026-10-07 22:16:57.103244,25.0,0.10723384862516977,0.5497253780334308,0.27713638236348537
0395,cdot_cos,R,Q-R,277,55,41055,0.05580337667850476,0.13993710772257273,0.08119459673963493,0.8838972161899559,759.0,10.604478194691199,0.6541099503716762,10.886584977941785,-0.31740797037721263,0.036,0.9999999999947148,-212.18647046666297,1.3759268886256881,277,2026-10-07 22:16:57.139244,25.0,0.5145344680642248,1.7835675427216253,2.558311384854949
0395,cdot_cos,S,R-S,278,55,41082,0.0022255353425064644,-0.12142166345367043,-0.0535778413359983,0.2076011729252468,759.0,10.640795847912377,0.6543432188802483,10.910107496024182,-0.12588526879152573,0.027,0.9999999999946271,821.0396798010337,1.3808939987705515,278,2026-10-07 22:16:57.166244,25.0,0.21840442351105802,1.0386690856685692,1.3450982674510688
0395,cdot_cos,T,S-T,279,55,41307,-0.1914501326242669,-0.025196051573379133,-0.19367566796677338,0.007830312730181126,759.0,10.660566325317301,0.6543520158626328,10.929859286511645,-0.0687091410262842,0.225,0.9999999999945218,6499.516000591616,1.3858616367186387,279,2026-10-07 22:16:57.391244,25.0,0.43511395228572824,0.2705576762650431,0.08786878846632835
0395,cdot_cos,P,T-P,280,56,41666,0.04482566813639376,-0.003220893394705891,0.23627580076066068,0.9972867604336493,762.0,10.762546802231647,0.6554715548845252,10.968163198721323,-0.3558953668430519,0.359,0.9999999999945072,-256.5218542640137,1.3908296375564326,280,2026-10-07 22:16:57.750243,25.0,0.4462213935772752,0.1890298390678854,0.284068180819904
0395,cdot_cos,Q,P-Q,281,56,41777,-0.01730942800613558,-0.014459908024614766,-0.06213509614252934,0.1745990013368143,762.0,10.796289749768043,0.6556673801134023,10.991015126474144,-0.11847158755399162,0.111,0.9999999999944025,1212.4269209362592,1.3957969724345443,281,2026-10-07 22:16:57.861243,25.0,0.13478738012306268,0.5635510581945262,0.30399051834591145
0395,cdot_cos,R,Q-R,282,56,41815,0.05706852348930783,0.14417314020899136,0.0743779514954434,0.8652326867933086,762.0,10.887655137150832,0.6566370191156937,11.026837866007646,-0.3222126590183082,0.038,0.9999999999943732,-210.12054071963274,1.4007641104159256,282,2026-10-07 22:16:57.899244,25.0,0.5313583410266303,1.6524783572257238,2.40435229954707
0395,cdot_cos,S,R-S,283,56,41844,-0.003927260593933045,-0.09410250704731145,-0.06099578408324088,0.17874189483593106,762.0,10.921878104917198,0.6568371671389697,11.04973869389592,-0.12135735958553,0.029,0.999999999994279,1003.5337653865071,1.405731224793857,283,2026-10-07 22:16:57.928244,25.0,0.19107809038501222,0.9263620239728892,1.1801023367712535
0395,cdot_cos,T,S-T,284,56,42065,-0.24030310389052534,-0.08910024130470563,-0.23637584329659228,0.0027064804043834714,762.0,10.94138413454126,0.6568401973192647,11.069295024988424,-0.0693401070245936,0.221,0.9999999999941684,17166.38862924813,1.4106988670370075,284,2026-10-07 22:16:58.149244,25.0,0.4722836385453632,0.2772242879186512,0.08826257748443994
0395,cdot_cos,P,T-P,285,57,42428,0.039933239930202376,-0.002817942242391713,0.2802363438207277,0.9990943111058181,777.0,11.044411240177242,0.6579579104791728,11.107635668042617,-0.3677181555693996,0.363,0.9999999999941538,-266.95404442524625,1.4156669055408495,285,2026-10-07 22:16:58.512243,25.0,0.44422176306123173,0.18720526460939138,0.28382122764733503
0395,cdot_cos,Q,P-Q,286,57,42538,-0.02611001687025667,-0.020494298028463795,-0.06604325680045904,0.16096284613230996,777.0,11.077295156647677,0.6581378203424522,11.130149022013311,-0.11806310077101569,0.11,0.9999999999940435,1387.6674143806533,1.4206342433399008,286,2026-10-07 22:16:58.622243,25.0,0.12068275674715012,0.57763321456612,0.2989446951857776
0395,cdot_cos,R,Q-R,287,57,42579,0.05729319226498539,0.1385308346043056,0.08340320913524206,0.8894445762213303,777.0,11.171490547381788,0.6591311406418846,11.166418391504912,-0.3396556444327788,0.041,0.9999999999940162,-223.08266909311652,1.4256013893718564,287,2026-10-07 22:16:58.663244,25.0,0.5207925273366909,1.5930632061453733,2.297448554490509
0395,cdot_cos,S,R-S,288,57,42605,0.0022292218125666667,-0.12263899178655532,-0.05506397045241872,0.20155572866704993,777.0,11.207926339551598,0.6593560417618916,11.189671857722765,-0.1321118331661807,0.026,0.9999999999939202,922.8224886571751,1.4305684941351346,288,2026-10-07 22:16:58.689243,25.0,0.20784334309249056,1.1021150100250638,1.4013766219157595
0395,cdot_cos,T,S-T,289,57,42825,-0.1601377716966188,-0.006750804741289231,-0.16236699350918546,0.016970295633359903,777.0,11.228800527903092,0.6593749743849937,11.20940335714752,-0.07587917195241727,0.22,0.9999999999938066,2970.14634001615,1.4355361489921745,289,2026-10-07 22:16:58.909244,25.0,0.476598128888826,0.28263754655165924,0.09488267432497079
0395,cdot_cos,P,T-P,290,58,43205,0.04380613236411965,-0.0038784926347349502,0.20394390406073845,0.9939317458960049,757.0,11.332286860034328,0.660482948576427,11.24764857448979,-0.377667747313531,0.38,0.9999999999937914,-272.378704932397,1.44050426381988,290,2026-10-07 22:16:59.289243,25.0,0.44974035555481634,0.1781860521356251,0.2723324529769381
0395,cdot_cos,Q,P-Q,291,58,43315,-0.026701006879303175,-0.022207484291872286,-0.07050713924342282,0.14645519623445738,757.0,11.364221927526167,0.6606460597837204,11.26980770940303,-0.11721758167655538,0.11,0.9999999999936746,1596.7643790931406,1.4454716073227754,291,2026-10-07 22:16:59.399244,25.0,0.10839885904838947,0.5751760629846927,0.290318795380351
0395,cdot_cos,R,Q-R,292,58,43355,0.0548139251345496,0.14171318411863323,0.08151493201385278,0.8847165364862144,757.0,11.45882559389096,0.6616305813625916,11.30597868144311,-0.3486839334623918,0.04,0.9999999999936459,-235.1054123681331,1.4504387502123277,292,2026-10-07 22:16:59.439244,25.0,0.5148763237379204,1.7208934251816022,2.3650916591198445
0395,cdot_cos,S,R-S,293,58,43381,0.016230636008647888,-0.14582490425798103,-0.03858328912590171,0.27596169508863855,757.0,11.501893401540695,0.6619373886970581,11.330573369105736,-0.15962328240823448,0.026,0.9999999999935536,616.2194635369192,1.455405853497407,293,2026-10-07 22:16:59.465244,25.0,0.30592424810654606,1.245136321870587,1.6564541403743998
0395,cdot_cos,T,S-T,294,58,43603,-0.13150122035728626,-0.015367454956293058,-0.14773185636593414,0.024285361369884507,757.0,11.523572682628231,0.6619643820401616,11.350355151658567,-0.0805739822600748,0.222,0.9999999999934357,2928.4738776150057,1.4603735300678278,294,2026-10-07 22:16:59.687244,25.0,0.3749070163318251,0.2824327307797472,0.09765441931322585
0395,cdot_cos,P,T-P,295,59,43962,0.03931104416248626,-0.0037594484841019515,0.17081226451977252,0.9862151804571461,760.0,11.627293534006903,0.6630596742490985,11.388454783217444,-0.38697467417623965,0.359,0.9999999999934192,-279.7433318854353,1.4653416132824972,295,2026-10-07 22:17:00.046243,25.0,0.4530354640119328,0.18774092898638411,0.28891602055340276
0395,cdot_cos,Q,P-Q,296,59,44075,-0.03560814502910329,-0.02825607793101571,-0.07491918919158955,0.13319731929756176,760.0,11.658370669640455,0.6632074695957735,11.410284519844407,-0.11659651957221294,0.113,0.9999999999932971,1829.4091166390695,1.470308971860826,296,2026-10-07 22:17:00.159244,25.0,0.09837964894576408,0.566353618948695,0.2750188994119663
0395,cdot_cos,R,Q-R,297,59,44111,0.05332687741554494,0.1362850626821593,0.08893502244464824,0.9023290925829553,760.0,11.755289451889308,0.6642078497320816,11.44678278362345,-0.3650861844661111,0.036,0.9999999999932695,-248.39524084409433,1.4752761027411814,297,2026-10-07 22:17:00.195244,25.0,0.5062964608930417,1.9080067870881223,2.6921883958014687
0395,cdot_cos,S,R-S,298,59,44140,0.007488431577102575,-0.13056759419736932,-0.04583844583844236,0.24122756925897143,760.0,11.7957471583108,0.6644750411626524,11.47064968332895,-0.15323526583138927,0.029,0.9999999999931698,792.8806630590681,1.4802432137577108,298,2026-10-07 22:17:00.224244,25.0,0.25094521125571295,1.0651194236905706,1.3950933248790323
0395,cdot_cos,T,S-T,299,59,44364,-0.1525229544404339,-0.01602125264771951,-0.16001138601753648,0.017981182954791074,760.0,11.81706637846336,0.6644949534852201,11.490223907575286,-0.08095697147430328,0.224,0.9999999999930466,3629.8274152262447,1.4852109123754675,299,2026-10-07 22:17:00.448243,25.0,0.40950797902698194,0.2822493124206214,0.09517508996679089
0395,cdot_cos,P,T-P,300,60,44722,0.04249027645851268,-0.003706334644972355,0.19501323089894657,0.9924252456787164,779.0,11.922194850275238,0.6655930542276366,11.528442402200948,-0.4006961578625263,0.358,0.9999999999930298,-291.17472927357574,1.49017902078871,300,2026-10-07 22:17:00.806243,25.0,0.4502468900829775,0.19370377635737449,0.2936549491951878
0395,cdot_cos,Q,P-Q,301,60,44833,-0.024124539963230846,-0.018821009542272865,-0.06661481642174352,0.15904239981937812,779.0,11.95575828233524,0.6657688654906376,11.550691556624324,-0.1286405467200984,0.111,0.9999999999929068,1547.4299342291026,1.495146379698523,301,2026-10-07 22:17:00.917243,25.0,0.12065124436472227,0.5865206734033769,0.3023732618018279
0395,cdot_cos,R,Q-R,302,60,44872,0.05938755967475283,0.14062958049620652,0.08351209963798367,0.8897119805949493,779.0,12.052402439770788,0.6667515352921961,11.586939967905538,-0.37188633049081343,0.039,0.9999999999928764,-247.53562527813133,1.5001135193716952,302,2026-10-07 22:17:00.956243,25.0,0.5199168519761196,1.704709657551904,2.4780553188601737
0395,cdot_cos,S,R-S,303,60,44899,0.0012593163613102557,-0.1179667491117123,-0.058128243313442574,0.18950863708872953,779.0,12.08872563562429,0.666960657198134,11.609747938363647,-0.1405016235403218,0.027,0.9999999999927686,1106.4584836903055,1.50508062307686,303,2026-10-07 22:17:00.983244,25.0,0.1926563568469536,1.071790972755272,1.3453035501296942
0395,cdot_cos,T,S-T,304,60,45122,-0.15709951492961594,-0.0037306994870008837,-0.15835883129092618,0.01872541222991361,779.0,12.110279152299572,0.6669813170372215,11.629250337561977,-0.08356845275642921,0.223,0.9999999999926401,2755.741249617912,1.510048334631182,304,2026-10-07 22:17:01.206244,25.0,0.5059710245254558,0.28636429620404147,0.09665254114476653
0395,cdot_cos,P,T-P,305,61,45501,0.05000560848378713,-0.004864227706280727,0.20710512341340306,0.9943902751320839,767.0,12.216444111731292,0.6680775093307231,11.667506324810098,-0.41311583241985295,0.379,0.9999999999926236,-300.6291702806585,1.5150165365099426,305,2026-10-07 22:17:01.585243,25.0,0.4503582900023772,0.18532868986377443,0.280118626468917
0395,cdot_cos,Q,P-Q,306,61,45612,-0.014979094799212776,-0.01202568282136654,-0.0649847032829999,0.16456903328876007,767.0,12.250758299216313,0.6682587511846175,11.689789113353756,-0.13425984891551299,0.111,0.9999999999924954,1538.584921266209,1.519983901325508,306,2026-10-07 22:17:01.696243,25.0,0.12530717339448952,0.5838069670808914,0.30913682418938254
0395,cdot_cos,R,Q-R,307,61,45651,0.05934540717026697,0.1489507905652983,0.07432450196947975,0.8650767985748691,767.0,12.34604925842325,0.6692106499846827,11.725553259806823,-0.37427281720821126,0.039,0.9999999999924609,-252.14126572726204,1.5249510405193796,307,2026-10-07 22:17:01.735244,25.0,0.5266189119698383,1.6667262652004429,2.443357928382985
0395,cdot_cos,S,R-S,308,61,45678,-0.004723499525309851,-0.09041873702201111,-0.06406890669557683,0.16774098602840481,767.0,12.380762947901948,0.6693950660870064,11.747871201842402,-0.13702654868561612,0.027,0.9999999999923441,1286.4726319082615,1.5299181426706747,308,2026-10-07 22:17:01.762244,25.0,0.1770383206934424,1.026118816465066,1.2856922029147455
0395,cdot_cos,T,S-T,309,61,45900,-0.20269684145556668,-0.013805333620884049,-0.19797334193025684,0.007038243260688744,767.0,12.401459674512363,0.6694028028639042,11.767062929270454,-0.08187911012336026,0.222,0.9999999999922098,7127.960298028872,1.5348858665143137,309,2026-10-07 22:17:01.984244,25.0,0.5099091579998838,0.2883759340569293,0.09322849824511459
0395,cdot_cos,P,T-P,310,62,46268,0.04775158509114833,-0.003577801617691184,0.250448426546715,0.9980947037625898,765.0,12.508801862623224,0.6704990273633827,11.805389595805668,-0.4261348094459445,0.368,0.999999999992193,-314.03758945940325,1.5398540621968304,310,2026-10-07 22:17:02.352243,25.0,0.445812722080106,0.19377740934940105,0.2916907285621227
0395,cdot_cos,Q,P-Q,311,62,46389,-0.014955948706801071,-0.0128982724272008,-0.0627075337979494,0.1725461861835894,765.0,12.544079847793522,0.6706883503154112,11.82775490201096,-0.14080992187504154,0.121,0.9999999999920612,1507.0802800921347,1.544821465170077,311,2026-10-07 22:17:02.473243,25.0,0.13182073105631742,0.5397849081968836,0.2915535964487439
0395,cdot_cos,R,Q-R,312,62,46419,0.05669367351972808,0.14773431407972087,0.07164962222652915,0.8570793049298792,765.0,12.63942981040687,0.6716279422395507,11.863352007741177,-0.38201036834475605,0.03,0.9999999999920245,-256.7076624148407,1.549788574586934,312,2026-10-07 22:17:02.503244,25.0,0.5318479473350111,2.1922602905800543,3.1783320871115945
0395,cdot_cos,S,R-S,313,62,46449,-0.003565151567271098,-0.08854394699266087,-0.06025882508699918,0.18146243513755234,765.0,12.675615465228326,0.671826698589104,11.88586489684437,-0.14568658517453031,0.03,0.9999999999919055,1189.0124954563453,1.5547556850859647,313,2026-10-07 22:17:02.533243,25.0,0.19747599312789185,0.94148789966176,1.206188494048514
0395,cdot_cos,T,S-T,314,62,46679,-0.2882613154458066,-0.19891052592992958,-0.28469616387853547,0.0008102119828253645,765.0,12.695919084386576,0.6718275858787247,11.90485245355873,-0.08192654432591953,0.23,0.9999999999917646,71859.33359703918,1.5597234507811863,314,2026-10-07 22:17:02.763244,25.0,0.4592049572844127,0.2796751158148456,0.08827660503587037
0395,cdot_cos,P,T-P,315,63,47033,0.06158294592577774,-0.0058993253024426625,0.3498442613715843,0.9998409458107841,786.0,12.804266018503155,0.6729216077776939,11.94321162198967,-0.4386515271344234,0.354,0.9999999999917473,-326.0674975012872,1.5646916288075565,315,2026-10-07 22:17:03.117243,25.0,0.4434230869889509,0.202734827830942,0.3060647856400531
0395,cdot_cos,Q,P-Q,316,63,47151,-0.0022729086953699744,-0.0026450171963020063,-0.06385585462114772,0.16848587527273476,786.0,12.839455342490883,0.6731057797294954,11.965428917180896,-0.14322751138772935,0.118,0.9999999999916115,1604.066269902051,1.5696590286603926,316,2026-10-07 22:17:03.235244,25.0,0.1271204010460787,0.5544961234863534,0.29821461006549255
0395,cdot_cos,R,Q-R,317,63,47182,0.06782265445150484,0.1525616723287263,0.07009556314687482,0.852253881306464,786.0,12.935127103645934,0.6740365602813826,12.000918856006166,-0.3908148928102342,0.031,0.9999999999915724,-265.9997363723427,1.5746261402535717,317,2026-10-07 22:17:03.266243,25.0,0.5307226406313165,2.0563252437580197,3.0861858437113314
0395,cdot_cos,S,R-S,318,63,47209,-0.008539260786033898,-0.0743368605747351,-0.07636191523753874,0.129087855555434,786.0,12.96694750760388,0.6741774229107257,12.022344748265722,-0.1305989297027898,0.027,0.9999999999914417,1847.3030378670571,1.5795932394800267,318,2026-10-07 22:17:03.293243,25.0,0.13635662400072715,0.9670596209600185,1.1785334799239238
0395,cdot_cos,T,S-T,319,63,47420,-0.3299516501506883,-0.07931402739373038,-0.3214123893646544,0.00032371938733608577,786.0,12.987348323177775,0.6741777761187014,12.04123923688272,-0.08389893677029756,0.211,0.9999999999912965,132216.69989899668,1.584560957383235,319,2026-10-07 22:17:03.504243,25.0,0.5731418779154905,0.30709048370856096,0.09668632973409981
0395,cdot_cos,P,T-P,320,64,47819,0.05177263216050388,-0.00451482135453539,0.38172428231119215,0.9999283113949917,778.0,13.096539691728893,0.6752678453869418,12.079598093200733,-0.4505108870902396,0.399,0.9999999999912796,-336.3198660867948,1.5895293145827625,320,2026-10-07 22:17:03.903244,25.0,0.4431843981876755,0.18118752968138654,0.27366257782235004
0395,cdot_cos,Q,P-Q,321,64,47930,-0.012244808586783127,-0.010199165040672762,-0.064017440747287,0.16792068406338828,778.0,13.131935971863522,0.6754507179636955,12.101735263735424,-0.14680771165509565,0.111,0.9999999999911366,1660.7365676499107,1.5944966967197531,321,2026-10-07 22:17:04.014244,25.0,0.1263481549607438,0.5990424453130403,0.3188854066182776
0395,cdot_cos,R,Q-R,322,64,47970,0.06225358678248579,0.14965644676498485,0.07449839536926892,0.8655834100222144,778.0,13.229527114588388,0.6763925243385452,12.137470927629208,-0.4062005766978874,0.04,0.9999999999910988,-275.4205874686006,1.5994638378266934,322,2026-10-07 22:17:04.054244,25.0,0.5280400202092359,1.6517908388888447,2.4397785681216533
0395,cdot_cos,S,R-S,323,64,47995,-0.004941912197490647,-0.08956200324678994,-0.06719549897997644,0.1571103696913763,778.0,13.26407923897463,0.6765633168910896,12.159372826473433,-0.14449653990550573,0.025,0.9999999999909664,1532.2918528569169,1.6044309284333396,323,2026-10-07 22:17:04.079243,25.0,0.16346702858557544,1.1137810234981416,1.3820849754496578
0395,cdot_cos,T,S-T,324,64,48219,-0.20348870495153432,-0.007553099935409731,-0.19854679275404366,0.006938756077804636,778.0,13.285216165763295,0.6765708588338819,12.17831654529045,-0.08857920429635427,0.224,0.9999999999908151,7414.181882462178,1.6093987057551864,324,2026-10-07 22:17:04.303244,25.0,0.5319161911605965,0.29238226108986776,0.094361280306543
0395,cdot_cos,P,T-P,325,65,48597,0.043752097046525516,-0.004711465279702559,0.24724080199805984,0.9979359521137312,762.0,13.39506649194289,0.6776545881061223,12.216633479762525,-0.4618116319541199,0.378,0.9999999999907975,-344.39637021723115,1.6143670212838088,325,2026-10-07 22:17:04.681243,25.0,0.4456631345732642,0.1904907404607682,0.2906093285174474
0395,cdot_cos,Q,P-Q,326,65,48707,-0.025244219491609623,-0.020314673359086263,-0.06899631653813514,0.15124007295834985,762.0,13.429227165551636,0.6778186642012576,12.238377390883013,-0.14434857436863735,0.11,0.9999999999906477,1934.8525897316208,1.6193344057194758,326,2026-10-07 22:17:04.791244,25.0,0.11088286938325118,0.6106391065437674,0.310551578261324
0395,cdot_cos,R,Q-R,327,65,48745,0.05684644955355031,0.13992563785151985,0.08209066904515994,0.8861764584869793,762.0,13.529407095382519,0.6787791703460099,12.274502656808197,-0.4247701725947006,0.038,0.9999999999906114,-291.95190448092524,1.6243015393332598,327,2026-10-07 22:17:04.829243,25.0,0.5167621713854307,1.8531733680284357,2.6363139429179787
0395,cdot_cos,S,R-S,328,65,48774,0.006733560953503376,-0.1276731348849051,-0.05011288860004694,0.2222119822539422,762.0,13.570068341521797,0.6790197841171183,12.297614356829424,-0.17323912073603825,0.029,0.9999999999904836,1045.372634741442,1.629268642362442,328,2026-10-07 22:17:04.858243,25.0,0.23411803742794468,1.0727475424345898,1.4021119358371692
0395,cdot_cos,T,S-T,329,65,48998,-0.17765906570664125,-0.019117477950232862,-0.18439262666014464,0.009855554164805271,762.0,13.591626452843725,0.6790304536270164,12.316539943206049,-0.09205876179193036,0.224,0.9999999999903275,7608.630548085584,1.6342364362680855,329,2026-10-07 22:17:05.082243,25.0,0.41402373888640787,0.2947574228268238,0.09624156840146567
0395,cdot_cos,P,T-P,330,66,49359,0.04071504342482356,-0.003804429590055467,0.21837410913146482,0.9957617295498727,775.0,13.702119666948214,0.6801074884958921,12.354809717182505,-0.47328585175771104,0.361,0.9999999999903086,-353.9598400966797,1.6392047220582966,330,2026-10-07 22:17:05.443244,25.0,0.4468688417703633,0.19901505960197602,0.3060753853309938
0395,cdot_cos,Q,P-Q,331,66,49466,-0.03265873948954156,-0.025369541468457293,-0.07337378291436511,0.13772152391654355,775.0,13.735315325876352,0.6802562999849212,12.376223384535217,-0.14290362642705912,0.107,0.9999999999901524,2220.139234451167,1.6441721019692073,331,2026-10-07 22:17:05.550244,25.0,0.09907052465878104,0.633804389720475,0.3102398030667095
0395,cdot_cos,R,Q-R,332,66,49510,0.056472561487768726,0.1374923918751149,0.08913130097731028,0.9027606967003279,775.0,13.837753806348395,0.6812308454912603,12.412661694828182,-0.4424477060898924,0.044,0.9999999999901178,-307.3679758558093,1.6491392568770886,332,2026-10-07 22:17:05.594244,25.0,0.5081311060923153,1.6344225783215414,2.3281472834555395
0395,cdot_cos,S,R-S,333,66,49537,0.0074358680716045825,-0.13725386069073,-0.049036693416164144,0.22689678623634826,775.0,13.879144512768647,0.6814755357788483,12.435806577213485,-0.17963219773781347,0.027,0.9999999999899872,1074.0741324175344,1.6541063514230936,333,2026-10-07 22:17:05.621243,25.0,0.23152307664275296,1.197155008347762,1.5329891266759959
0395,cdot_cos,T,S-T,334,66,49754,-0.1362670031803609,-0.006391424784111629,-0.14370287125196549,0.02678998491408123,775.0,13.902400176799175,0.6815044200610263,12.454992794583811,-0.10115831263473483,0.217,0.9999999999898285,2716.8369502695396,1.6590741369062998,334,2026-10-07 22:17:05.838243,25.0,0.46035690787510736,0.3085883204924698,0.10716895866602423
0395,cdot_cos,P,T-P,335,67,50134,0.04205775998295767,-0.004325728647258651,0.17832476316331855,0.9885485237639525,771.0,14.01307184386238,0.6825692710917528,12.49311454166218,-0.4828588409635409,0.38,0.9999999999898085,-358.4543915672273,1.664042522160209,335,2026-10-07 22:17:06.218244,25.0,0.4536173522747763,0.19094697294259141,0.29124122911369643
0395,cdot_cos,Q,P-Q,336,67,50245,-0.027720577268521954,-0.02192444694328614,-0.06977833725147962,0.1487475158869908,771.0,14.047519876235544,0.6827293349779693,12.514682229216934,-0.15103706404210482,0.111,0.9999999999896484,2073.0583566655773,1.669009922753263,336,2026-10-07 22:17:06.329243,25.0,0.11114096230520493,0.6155288070905469,0.31034263399247614
0395,cdot_cos,R,Q-R,337,67,50284,0.05661045299567896,0.13830083228580412,0.08433103026420091,0.8917049402347769,771.0,14.14971923903648,0.6836879718445664,12.550889825642308,-0.4495432280150157,0.039,0.9999999999896112,-311.3860674193702,1.673977059176938,337,2026-10-07 22:17:06.368243,25.0,0.5147772249320559,1.8115502318012797,2.6204964820752963
0395,cdot_cos,S,R-S,338,67,50310,0.0007730148411963121,-0.1176080482786476,-0.05583743815448265,0.19846180626840293,771.0,14.188820794316044,0.6839011184652789,12.573416159095899,-0.17279510796525213,0.026,0.999999999989471,1298.3931864586261,1.6789441484647363,338,2026-10-07 22:17:06.394243,25.0,0.20157435413942237,1.1856685524191604,1.5039059722908952
0395,cdot_cos,T,S-T,339,67,50534,-0.1608779621564471,-0.007822251036899156,-0.16165097699764341,0.017271512178789562,771.0,14.211374003762277,0.6839196642971759,12.592343563832456,-0.09987956715915479,0.224,0.9999999999893058,3931.6403389801017,1.6839119760576722,339,2026-10-07 22:17:06.618243,25.0,0.48189231175910785,0.3003528433625026,0.10068397074211191
