record_id,input,event,transition,event_index,k,peak,value_cos,value_sin,value_return,x_input,rr,knowledge,decision,decision_norm,entropy,delta_t,cosine_similarity,delta_h_over_delta_d,frobenius_norm,matrix_size,timestamp,scale,P,zdot,zdot_back
0237,cdot_cos,Q,P-Q,1,0,840,-0.0027226027269356937,-0.0035987533484537434,-0.05997086337104195,0.015247496713023338,878.0,7.573647415350942e-05,0.5000189341185294,0.5000189341185294,,,1.0,,0.004967141530112327,1,2026-10-08 00:46:16.924243,69.5,,,
0237,cdot_cos,R,Q-R,2,0,887,0.04877849023166164,0.14348723063891416,0.05150109295859734,0.9728624931131757,878.0,0.006941076365508284,0.501227018078533,0.7088420467944858,-8.687281059957599e-06,,1.0,,0.009934283060224654,2,2026-10-08 00:46:16.971244,69.5,,,
0237,cdot_cos,S,R-S,3,0,941,0.020438892989152104,-0.05784540921120891,-0.028339597242509538,0.12243164146975374,878.0,0.009554368902384742,0.5013790508675454,0.8684139899532493,-7.773799219064307e-06,0.054,1.0,0.006008452826702904,0.014901424597317007,3,2026-10-08 00:46:17.025243,69.5,0.8891335996935569,0.037882963438991696,0.04839430623845292
0237,cdot_cos,T,S-T,4,0,1187,-0.2055455113299241,-0.14699136299826907,-0.2259844043190762,1.5101053245802674e-07,878.0,0.011032436416919388,0.5013790510550666,1.0027581021104532,-5.487372947082557e-06,0.246,1.0000000000000002,12192.893489864508,0.019868566165889303,4,2026-10-08 00:46:17.271244,69.5,0.6592381220457106,0.02822588623438464,0.00600840453062864
0237,cdot_cos,P,T-P,5,1,1588,0.06304126729949397,0.0002442531097569049,0.26858677862941804,0.9999999921815627,858.0,0.023441504929701984,0.5026208159223309,1.1238943113112256,-7.714410421828346e-05,0.401,0.9999999999999999,-0.0577055553432346,0.024835707820644627,5,2026-10-08 00:46:17.672243,69.5,0.39500038570249885,0.01841006241158055,0.030945308011926673
0237,cdot_cos,Q,P-Q,6,1,1698,-0.003468428794876477,-0.0035934185184444555,-0.06650969609437045,0.009733275193132149,858.0,0.02579730647100699,0.5026329022275793,1.2311941383984264,-2.0917933196771475e-05,0.11,1.0,4.6520561797771025,0.02980284939536769,6,2026-10-08 00:46:17.782243,69.5,0.06802084778676187,0.07892671837779008,0.021416377648227323
0237,cdot_cos,R,Q-R,7,1,1753,0.056478097531328465,0.1391546550711177,0.059946526326204945,0.9847270856941166,858.0,0.0408053829728158,0.5038556698362074,1.3330767990654353,-0.0001802501053799988,0.055,1.0,-0.13030454115642148,0.034769990950137,7,2026-10-08 00:46:17.837244,69.5,0.41314754094934764,0.17981910200683776,0.2728741182147057
0237,cdot_cos,S,R-S,8,1,1798,0.030254178002990552,-0.05835092718908618,-0.026223919528337913,0.13912668840143505,858.0,0.04557740769175914,0.5040284245835442,1.4256076677452671,-7.43337896857062e-05,0.045,1.0,0.6131022002411275,0.039737132521048456,8,2026-10-08 00:46:17.882244,69.5,0.2405386674151329,0.08374465865025481,0.10604499375429649
0237,cdot_cos,T,S-T,9,1,2047,-0.127325502796725,-0.025292201806165017,-0.15757968079971554,1.7526345673108076e-05,858.0,0.048342402251338734,0.5040284463460915,1.5120853390520166,-4.682824109463508e-05,0.249,1.0,1263.893804673776,0.04470427443536202,9,2026-10-08 00:46:18.131244,69.5,0.5557865547184232,0.042344173774297444,0.011104395821604782
0237,cdot_cos,P,T-P,10,2,2446,0.057727579238834495,0.0027335452524470494,0.18505308203555948,0.9999974030991337,879.0,0.06666480623135927,0.5052701204967909,1.597804414437186,-0.0003799651952812379,0.399,1.0,-0.26829660100353214,0.049671416781582045,10,2026-10-08 00:46:18.530244,69.5,0.41613044483751016,0.0273672341056253,0.04592081198000134
0237,cdot_cos,Q,P-Q,11,2,2576,-0.0015819228723821122,-0.002094579379629085,-0.059309502111216605,0.01595325689374368,879.0,0.07018145506762773,0.5052899288088395,1.675857104287727,-8.677565028564146e-05,0.13,1.0000000000000002,14.801339168929033,0.054638558558503005,11,2026-10-08 00:46:18.660243,69.5,0.03409148773044805,0.09053431345773912,0.027051144894372724
0237,cdot_cos,R,Q-R,12,2,2621,0.056181263426042856,0.151569296784329,0.057763186298424966,0.9822688391781156,879.0,0.09020372773037144,0.5065095254652797,1.7546004653486316,-0.0005790133130598145,0.045,0.9999999999999998,-0.4036069303526322,0.05960570010921896,12,2026-10-08 00:46:18.705244,69.5,0.42735857822387585,0.26723390199605074,0.4449393925054159
0237,cdot_cos,S,R-S,13,2,2654,-0.0003458154891622822,-0.004176977992047596,-0.056527078915205135,0.019291097034340288,879.0,0.0942325062472723,0.5065334767922944,1.8263324234198046,-0.00013397693254740863,0.033,0.9999999999999999,18.580865278946167,0.06457284165494795,13,2026-10-08 00:46:18.738244,69.5,0.03609002238611077,0.11493893027732342,0.122084197481844
0237,cdot_cos,T,S-T,14,2,2906,-0.2215300184977552,-0.12523628895797873,-0.2211842030085929,2.1081132034208444e-07,879.0,0.09778969712867479,0.5065334770540322,1.895274726178253,-0.00012315981021330472,0.252,0.9999999999999999,41328.095165174505,0.06953998421613461,14,2026-10-08 00:46:18.990243,69.5,0.9159165975429296,0.05203790360309762,0.01411583683096228
0237,cdot_cos,P,T-P,15,3,3325,0.05749150419080279,0.0010387627000351144,0.27902152268855795,0.9999999962141517,877.0,0.12045960966323349,0.5077750075591948,1.9666041480720047,-0.0008920357154348071,0.419,0.9999999999999999,-0.6192968292154767,0.0745071278621837,15,2026-10-08 00:46:19.409244,69.5,0.42234448110295303,0.032019433872899496,0.05410480318510431
0237,cdot_cos,Q,P-Q,16,3,3435,-0.007693817978670684,-0.006599235381220119,-0.06518532216947347,0.01066168485672509,877.0,0.12462198271416457,0.5077882438767936,2.0311529757942672,-0.00018392080627362,0.11,1.0,53.49787838484001,0.07947426980905967,16,2026-10-08 00:46:19.519244,69.5,0.021277445111673347,0.12828922489340602,0.03783975500846432
0237,cdot_cos,R,Q-R,17,3,3494,0.05527822502058046,0.13336294190639975,0.06297204299925115,0.9875874499533215,877.0,0.14868323913978282,0.5090142686862735,2.0987195950579602,-0.0011855219574691477,0.059,1.0000000000000004,-0.8169501493369958,0.0844414114777479,17,2026-10-08 00:46:19.578244,69.5,0.4296171126216251,0.2440368361759419,0.40781790551895347
0237,cdot_cos,S,R-S,18,3,3533,-0.0006128831813306465,-0.006065159144475741,-0.05589110820191111,0.02014532496586315,877.0,0.1534183293829257,0.5090392767028044,2.159670747012676,-0.0002578836610415324,0.039,1.0,37.093637365610064,0.08940855305211974,18,2026-10-08 00:46:19.617243,69.5,0.02740254714807763,0.11460676803641973,0.12141257033699723
0237,cdot_cos,T,S-T,19,3,3782,-0.16620863418093723,-0.02467730848477159,-0.16559575099960658,1.0040187840014648e-05,877.0,0.15762256704662356,0.509039289166488,2.218850820110119,-0.00023574763224490334,0.249,0.9999999999999999,1776.0422548204544,0.09437569652660359,19,2026-10-08 00:46:19.866244,69.5,0.9103763973238707,0.06127054796866892,0.0168844886092283
0237,cdot_cos,P,T-P,20,4,4202,0.04146263963191545,0.0022483818174409476,0.2076712738128527,0.9999994607864077,900.0,0.18393106227132283,0.5102806097339719,2.2820442623880584,-0.0016197792156051481,0.42,1.0,-1.1149670919942705,0.09934284198351469,20,2026-10-08 00:46:20.286243,69.5,0.4255142103749709,0.036960406307800835,0.06263927434452209
0237,cdot_cos,Q,P-Q,21,4,4333,-0.02682257502161748,-0.0236880137223463,-0.06828521465353293,0.008613084231587517,900.0,0.18866930834517626,0.5102913008096525,2.338448513101044,-0.000318244876748599,0.131,1.0,121.74026054529753,0.10430998450218003,21,2026-10-08 00:46:20.417243,69.5,0.016743821155210795,0.12320801903733963,0.03616981735765973
0237,cdot_cos,R,Q-R,22,4,4376,0.041834581850960326,0.1000384740127892,0.06865715687257781,0.9916048655634443,900.0,0.21621156325910582,0.5115220747039668,2.3992512014179024,-0.0020099285484661738,0.043,1.0,-1.3744877751570888,0.10927712603448914,22,2026-10-08 00:46:20.460243,69.5,0.4309929324671403,0.6537118556719796,0.6405175561378967
0237,cdot_cos,S,R-S,23,4,4433,0.16725175369089207,-0.21315619580863238,0.12541717183993173,0.9998361660741096,900.0,0.2448885279329665,0.5127629237644011,2.4591245945159117,-0.0023830320120160303,0.057,1.0,-0.3006840037572867,0.11424426795666973,23,2026-10-08 00:46:20.517244,69.5,0.855074480382961,0.2977560447338089,0.5031046434010646
0237,cdot_cos,T,S-T,24,4,4661,-0.001120618272076635,-7.909536620705703e-05,-0.1683723719629687,8.278174129586358e-06,900.0,0.25015575235876003,0.5127629340374188,2.5120150956809058,-0.0004699237087352618,0.228,0.9999999999999997,186226.5175459769,0.11921141308295977,24,2026-10-08 00:46:20.745243,69.5,0.017058545003609003,0.07374664260934002,0.02310186151663827
0237,cdot_cos,P,T-P,25,5,5102,0.03706560743877086,-0.0005744112228091966,0.038186225710847496,0.934253580460751,859.0,0.27851699696282556,0.5139222498196643,2.5696112506238915,-0.0027018418003488436,0.441,0.9999999999999999,-1.925202887595102,0.12417856268496953,25,2026-10-08 00:46:21.186244,69.5,0.4377650946437641,0.03857313857028511,0.06431121225411685
0237,cdot_cos,Q,P-Q,26,5,5211,-0.03718479844050066,-0.029267467077917636,-0.07425040587927152,0.005706632488393144,859.0,0.2841772605777515,0.5139293307354666,2.6205356888508367,-0.0005739267987979311,0.109,0.9999999999999999,300.51409463707876,0.12914570563291872,26,2026-10-08 00:46:21.295244,69.5,0.02453531376061492,0.16883334141284065,0.05192902399014626
0237,cdot_cos,R,Q-R,27,5,5264,0.046249565114587755,0.10989997319136786,0.08343436355508842,0.9969776336957596,859.0,0.3153226653908248,0.5151663142897838,2.676882695230608,-0.0033640922864154464,0.053,1.0,-2.255620519674443,0.1341128474564299,27,2026-10-08 00:46:21.348243,69.5,0.4363126356758812,0.568255752778341,0.5876491474164778
0237,cdot_cos,S,R-S,28,5,5311,0.0758413180514673,-0.14260256731404639,0.029591752936879538,0.8866155122730822,859.0,0.34441237037225564,0.516266212248659,2.7318240190935135,-0.003457271883477622,0.047,1.0,-0.08471658330693067,0.13907998934996707,28,2026-10-08 00:46:21.395243,69.5,0.973408187747706,0.3743278110268703,0.6189298932219324
0237,cdot_cos,T,S-T,29,5,5561,-0.07332800056238196,-0.013367753390263127,-0.14916931861384924,3.144410325511549e-05,859.0,0.35050947962735063,0.5162662512541611,2.7801788508655636,-0.0007632812805744273,0.25,0.9999999999999998,69066.93808857576,0.14404713737477012,29,2026-10-08 00:46:21.645243,69.5,0.029319982117800757,0.07858665187092306,0.02438843702037996
0237,cdot_cos,P,T-P,30,6,5961,0.063668861082272,0.005433448013914575,0.13699686164465397,0.9999267296957457,897.0,0.38370569630771717,0.5175065287336351,2.834499999587426,-0.004389992367461069,0.4,1.0,-2.924112665840555,0.14901429057961665,30,2026-10-08 00:46:22.045243,69.5,0.43773939929369343,0.049791353854455114,0.08299054170091635
0237,cdot_cos,Q,P-Q,31,6,6090,-0.0015497875617601214,-0.0019281607395237495,-0.06521864864403212,0.010637281323801987,897.0,0.3903425627109147,0.5175197217485155,2.8814278716689437,-0.0009252990741314956,0.129,0.9999999999999998,262.61573451964864,0.1539814351103492,31,2026-10-08 00:46:22.174243,69.5,0.02364972675334438,0.15681350291980425,0.051448576768973256
0237,cdot_cos,R,Q-R,32,6,6138,0.055494722845623234,0.15206352136102752,0.057044510407383356,0.9813776243368741,897.0,0.42416358006102667,0.5187367795619057,2.9344183645532076,-0.004960840784159342,0.048,0.9999999999999993,-3.3158175935673335,0.1589485769215335,32,2026-10-08 00:46:22.222244,69.5,0.4433129233861048,0.4267948023830009,0.7046045281273322
0237,cdot_cos,S,R-S,33,6,6169,-0.00039935664878253823,-0.0033826025420555426,-0.05589407949440577,0.02014124906959777,897.0,0.4313148637396828,0.5187617555014573,2.980059412070144,-0.001101705976038662,0.031,0.9999999999999994,154.51409946526192,0.1639157182242699,33,2026-10-08 00:46:22.253243,69.5,0.03011078663111646,0.21996105882907305,0.2306865702792303
0237,cdot_cos,T,S-T,34,6,6437,-0.27064305472203687,-0.1763133283762778,-0.2702436980732543,6.968004001981585e-09,897.0,0.4378011657084292,0.5187617555100978,3.0248748503628917,-0.001015190515288227,0.268,0.9999999999999994,10012746.136879113,0.16888286897245314,34,2026-10-08 00:46:22.521244,69.5,0.9183093971649936,0.07885058187600034,0.02420261928636712
0237,cdot_cos,P,T-P,35,7,6858,0.07364731112255389,-0.0029337057703715326,0.3442903658445908,0.9999999999594376,877.0,0.473578775625219,0.5200016743413173,3.076371404061393,-0.005870833966175784,0.421,0.9999999999999994,-3.9160978353011524,0.17385002668176575,35,2026-10-08 00:46:22.942244,69.5,0.4373248509471685,0.050660989339595876,0.08498244635817055
0237,cdot_cos,Q,P-Q,36,7,6968,-0.0013816380685694803,-0.0013691606770161256,-0.07502894919112336,0.005407684251001364,877.0,0.4804577187323689,0.5200083787748788,3.1200502875499345,-0.0011816129622608136,0.11,0.9999999999999988,699.4209072056244,0.17881717114558202,36,2026-10-08 00:46:23.052243,69.5,0.018901925083500977,0.19797085712354218,0.06253584642863569
0237,cdot_cos,R,Q-R,37,7,7018,0.07336425352520909,0.1509089271165094,0.07474589159377856,0.994485472220463,877.0,0.5171323641923983,0.5212412143855705,3.170586543868287,-0.0065859449320653,0.05,0.9999999999999989,-4.383659851269644,0.18378431301881437,37,2026-10-08 00:46:23.102243,69.5,0.44017378675501506,0.43796022543936386,0.7334929092005871
0237,cdot_cos,S,R-S,38,7,7048,-0.00048123962094260344,-0.0022004697880273227,-0.07384549314615169,0.005868550484989024,877.0,0.5242537412763053,0.5212484887091456,3.2131914988640293,-0.0013349815745273322,0.03,0.9999999999999987,721.8490218750737,0.18875145406769844,38,2026-10-08 00:46:23.132244,69.5,0.019577777177999654,0.23291100150386418,0.23737923613023443
0237,cdot_cos,T,S-T,39,7,7315,-0.23581904298690354,-0.11213072044481086,-0.23533780336596094,7.882958922666815e-08,877.0,0.5311070242826301,0.5212484888068583,3.2551957854171074,-0.0013019644351107747,0.267,0.999999999999999,337900.4763531395,0.19371860727698037,39,2026-10-08 00:46:23.399244,69.5,0.9749593718565986,0.08433374820702473,0.025667726615448753
0237,cdot_cos,P,T-P,40,8,7735,0.051230690621739766,0.0034373927673314766,0.2870497336086433,0.9999999978330745,880.0,0.5692879628188565,0.5224878981700514,3.3045036349977828,-0.007561367816572907,0.42,0.9999999999999987,-5.050311517201972,0.19868576931898305,40,2026-10-08 00:46:23.819244,69.5,0.4370036919679017,0.054753543101065554,0.09090699651482476
0237,cdot_cos,Q,P-Q,41,8,7866,-0.0025448755041213482,-0.0033944311195155696,-0.05377556612586112,0.023261897178117403,880.0,0.5771000004875252,0.5225167259471819,3.345739535538987,-0.0016117543444142627,0.131,0.9999999999999979,206.38474639296953,0.20365291571926,41,2026-10-08 00:46:23.950243,69.5,0.02493732121907079,0.17680420558189955,0.05963387533334862
0237,cdot_cos,R,Q-R,42,8,7909,0.052746770386988336,0.13626655114716468,0.055291645891109686,0.9790156229461948,880.0,0.6156106646813142,0.5237298525036237,3.394157394517592,-0.008264590599258305,0.043,0.9999999999999979,-5.484041396602025,0.20862005716136198,42,2026-10-08 00:46:23.993243,69.5,0.44709653763927004,0.5916370632584877,0.8955968417160236
0237,cdot_cos,S,R-S,43,8,7966,0.028465962579234297,-0.0659969501404559,-0.02428080780775404,0.1561027708880263,880.0,0.6279807879277551,0.5239232584507532,3.4355945834021644,-0.0027678397457555097,0.057,0.9999999999999979,28.420795405134438,0.21358719973232812,43,2026-10-08 00:46:24.050244,69.5,0.13725217229737013,0.17219805069610092,0.2170197060779111
0237,cdot_cos,T,S-T,44,8,8196,-0.13765384284364302,-0.022956276983226657,-0.1661198054228773,9.681089048188168e-06,880.0,0.6352412424606697,0.5239232704450665,3.475313839164102,-0.0016501851960744494,0.23,0.9999999999999976,93182.03717312728,0.21855435359530828,44,2026-10-08 00:46:24.280244,69.5,0.5079915961034761,0.10382413313821295,0.03156719362136771
0237,cdot_cos,P,T-P,45,9,8615,0.05333790660297458,-0.0018783489348321804,0.1909917494466176,0.999998281275832,859.0,0.6757398891713331,0.5251620611369293,3.522894231811244,-0.009550371172870107,0.419,0.9999999999999973,-6.377337211757489,0.2235215209299554,45,2026-10-08 00:46:24.699244,69.5,0.43726648937798623,0.057679016743157334,0.09665548140969783
0237,cdot_cos,Q,P-Q,46,9,8723,-0.01143998587347209,-0.010658668546856532,-0.06477789247644666,0.010964542482696783,859.0,0.6835762584914356,0.5251756422451316,3.561914538529835,-0.001916096950368814,0.108,0.9999999999999972,562.1245415913821,0.22848866691728623,46,2026-10-08 00:46:24.807244,69.5,0.018605763215044608,0.22695597449847202,0.07255897518613384
0237,cdot_cos,R,Q-R,47,9,8776,0.058755138021854426,0.13102225148788563,0.07019512389532652,0.9924494907628004,859.0,0.724762379663003,0.5264047720153159,3.6088493319293535,-0.010431089352333871,0.053,0.9999999999999971,-6.927659396524327,0.23345580911716227,47,2026-10-08 00:46:24.860243,69.5,0.44206027951411636,0.5058217727310717,0.7770966258786322
0237,cdot_cos,S,R-S,48,9,8805,0.03243853613062872,-0.08058641574560452,-0.026316601891225706,0.13835698796405854,859.0,0.7371933664009291,0.5265760994337374,3.6482262685200326,-0.003268102696313978,0.029,0.9999999999999969,41.80875846968479,0.2384229496834948,48,2026-10-08 00:46:24.889244,69.5,0.1117168755194464,0.34604755774235296,0.42865471510089953
0237,cdot_cos,T,S-T,49,9,9073,-0.13745227751206046,-0.024629040037813476,-0.16989081364268918,7.4490876416345665e-06,859.0,0.7448331380120595,0.5265761086577724,3.686032796176806,-0.0020360676849927183,0.268,0.9999999999999966,133567.90319599258,0.24339010953169224,49,2026-10-08 00:46:25.157243,69.5,0.546017018142959,0.09388915805883652,0.028506610489292483
0237,cdot_cos,P,T-P,50,10,9474,0.04092868513803876,0.0022496966154693762,0.17838096265009923,0.9999958710236264,878.0,0.7875179551204655,0.5278142147033927,3.7322101441262965,-0.011758995964597252,0.401,0.9999999999999966,-7.8530658290524915,0.2483572812676689,50,2026-10-08 00:46:25.558244,69.5,0.4374249154527937,0.06337149320334882,0.10644592795113714
0237,cdot_cos,Q,P-Q,51,10,9603,-0.027481754184131544,-0.02401617042809567,-0.06841043932217031,0.008539086143087767,878.0,0.7956570755611453,0.52782478558985,3.7694229756880024,-0.002316561936911954,0.129,0.999999999999996,893.2490255988779,0.25332443013485445,51,2026-10-08 00:46:25.687244,69.5,0.016974296157051694,0.199460069316328,0.06309395690449435
0237,cdot_cos,R,Q-R,52,10,9647,0.04330193376469076,0.1130738804368136,0.07078368794882231,0.9927499201893271,878.0,0.8389786530040781,0.5290535790669474,3.8150596621294324,-0.012727436804153355,0.044,0.9999999999999959,-8.472436630957525,0.25829157163272015,52,2026-10-08 00:46:25.731244,69.5,0.44131923977284604,0.9339804370140345,0.9845813055212014
0237,cdot_cos,S,R-S,53,10,9702,0.06858382339211447,-0.11483542623468951,0.025281889627423705,0.8528449953272674,878.0,0.8778473540183803,0.5301089222269785,3.8592512560065084,-0.011990386037771467,0.055,0.9999999999999961,0.6983991504338529,0.26325871463661105,53,2026-10-08 00:46:25.786243,69.5,0.9403810205498875,0.42829916664132966,0.7067036548054941
0237,cdot_cos,T,S-T,54,10,9933,-0.07850610264271965,-0.01267676544361317,-0.14708992603483412,3.6332925363042625e-05,878.0,0.8860915613346244,0.5301089671810686,3.8954894828986273,-0.0026129993229409404,0.231,0.9999999999999952,208599.1884255819,0.2682258760472424,54,2026-10-08 00:46:26.017244,69.5,0.02763300436085551,0.11525084939488764,0.03568920916122983
0237,cdot_cos,P,T-P,55,11,10352,0.05925558203759535,-0.000267485651438931,0.137761684680315,0.9999305224281916,874.0,0.9310932464388184,0.531345976106914,3.940567279904301,-0.01468933592262537,0.419,0.999999999999995,-9.762529879427344,0.2731930583638856,55,2026-10-08 00:46:26.436243,69.5,0.43950073106730225,0.06434266419128608,0.10740258974747972
0237,cdot_cos,Q,P-Q,56,11,10461,-0.0028075839829174525,-0.0027405648966779984,-0.0620631660205128,0.013211213579863679,874.0,0.9400107139269221,0.531362317087013,3.976351544469767,-0.002997173989538507,0.109,0.9999999999999943,715.5116683507947,0.27816020720103696,56,2026-10-08 00:46:26.545243,69.5,0.02022042341599131,0.24912049429690078,0.08181162833122695
0237,cdot_cos,R,Q-R,57,11,10516,0.06014460224001164,0.14040962832406254,0.0629521862229291,0.98757052130097,874.0,0.9854015141955428,0.5325836524503251,4.020918468417436,-0.015693789999582198,0.055,0.9999999999999943,-10.395683602914474,0.2831273501960536,57,2026-10-08 00:46:26.600243,69.5,0.44529350239986365,0.4959758154897858,0.8252872776112843
0237,cdot_cos,S,R-S,58,11,10561,-0.0002513923190781585,-0.0036480062623537313,-0.0603959945590898,0.014810149786095888,874.0,0.9945680536307986,0.5326019653313343,4.056175794215916,-0.0032591032262130385,0.045,0.9999999999999938,679.0131365534089,0.28809449229429235,58,2026-10-08 00:46:26.645243,69.5,0.022029547831980946,0.19670905931575958,0.2037008763390179
0237,cdot_cos,T,S-T,59,11,10809,-0.19412376226884084,-0.023877624684441382,-0.19387236994976267,1.4068869681802998e-06,874.0,1.0031053295339611,0.5326019670709583,4.090993405993711,-0.0030625133447137317,0.248,0.9999999999999931,113007.1104176857,0.29306165906369464,59,2026-10-08 00:46:26.893243,69.5,0.9378246060143254,0.11185037882652686,0.034424499609526434
0237,cdot_cos,P,T-P,60,12,11226,0.0523510724335545,0.0029727331536505146,0.24647483470239534,0.9999999636474342,901.0,1.050045841528756,0.533838270145082,4.135093538195104,-0.017300538168270603,0.417,0.9999999999999929,-11.516613621339463,0.2980288479045903,60,2026-10-08 00:46:27.310244,69.5,0.4391204131295126,0.0672454631054242,0.11256717504746946
0237,cdot_cos,Q,P-Q,61,12,11360,-0.012339246492717927,-0.012221520928814615,-0.06469031892627243,0.011030741779187645,901.0,1.059188045763885,0.5338519051961479,4.169516760665759,-0.0034615045995005705,0.134,0.9999999999999923,1014.9601568706115,0.30299600110111513,61,2026-10-08 00:46:27.444243,69.5,0.018352634584418513,0.21070261873886817,0.06822540473976876
0237,cdot_cos,R,Q-R,62,12,11403,0.05233840930307509,0.13597826288947834,0.06467765579579302,0.9889596531559678,901.0,1.1065141433507726,0.5350741458717512,4.2131781326024935,-0.01839253694224043,0.043,0.9999999999999916,-12.216114747915837,0.30796314252400253,62,2026-10-08 00:46:27.487243,69.5,0.4440587456486049,0.7697510800574343,1.1006069206252946
0237,cdot_cos,S,R-S,63,12,11460,0.03677973607645374,-0.07198914172216049,-0.015558673226621349,0.2532548271229457,901.0,1.1253866386488243,0.5353870726381753,4.249503243594598,-0.007558018014052151,0.057,0.9999999999999909,34.623177339528986,0.31293028628976605,63,2026-10-08 00:46:27.544243,69.5,0.23846964655162337,0.24359342296544242,0.3310964087377488
0237,cdot_cos,T,S-T,64,12,11689,-0.12121126725614897,-0.010905553875236871,-0.15799100333260271,1.7032423526190415e-05,901.0,1.134283793568833,0.5353870936828468,4.28309684637902,-0.003607447058671745,0.229,0.9999999999999905,187723.09963504717,0.31789745476344433,64,2026-10-08 00:46:27.773243,69.5,0.3345009915530595,0.1261361283322748,0.03885220489086792
0237,cdot_cos,P,T-P,65,13,12127,0.04253992817267729,0.0010956371136346041,0.16375119542882627,0.9999885865662338,900.0,1.1831569854250061,0.5366224252033209,4.326388410419989,-0.02031550955918688,0.438,0.9999999999999901,-13.525164883756798,0.3228646549863962,65,2026-10-08 00:46:28.211244,69.5,0.43936318124635326,0.06660224577960401,0.11158262980861441
0237,cdot_cos,Q,P-Q,66,13,12238,-0.023565683074074577,-0.01768354048064221,-0.06610561124675186,0.010007723649094314,900.0,1.1926273608717661,0.5366347859548982,4.359641731407349,-0.004035719792715063,0.111,0.9999999999999887,1317.0550079157704,0.3278318066149623,66,2026-10-08 00:46:28.322243,69.5,0.017704707699160695,0.26579582416913744,0.08531869771855849
0237,cdot_cos,R,Q-R,67,13,12291,0.05990101160342267,0.12414552886210144,0.08346669467749725,0.9969843969109422,900.0,1.2421636583905546,0.5378659543944015,4.402622705277993,-0.02162578074906825,0.053,0.999999999999989,-14.287290343025113,0.3327989495914339,67,2026-10-08 00:46:28.375243,69.5,0.44335527419137355,0.6293639801596842,0.9346471229960098
0237,cdot_cos,S,R-S,68,13,12338,0.039396151361301174,-0.10191764618662301,-0.020504860242121496,0.19386521799849774,900.0,1.2593399427686927,0.5381053039266862,4.437330137405546,-0.007703447811162115,0.047,0.9999999999999879,58.16737056059159,0.3377660919972397,68,2026-10-08 00:46:28.422244,69.5,0.16409890683257622,0.2808949727431221,0.3654528591093193
0237,cdot_cos,T,S-T,69,13,12587,-0.10518197229147637,-0.002183198876496905,-0.14457812365277756,4.3262564531880824e-05,900.0,1.2685677858284081,0.5381053573374808,4.469838929022358,-0.004182309820171848,0.249,0.999999999999987,65925.58713412072,0.3427332680407416,69,2026-10-08 00:46:28.671244,69.5,0.43088576142311447,0.12037033019582778,0.03705961068158822
0237,cdot_cos,P,T-P,70,14,13027,0.047874582626088916,-0.002762553745071273,0.15305655491756529,0.9999759999481479,896.0,1.319284367206215,0.5393396645548133,4.512439517878439,-0.023522157534278988,0.44,0.9999999999999869,-15.668585132235235,0.34770047775482477,70,2026-10-08 00:46:29.111244,69.5,0.43946508167358167,0.06883786406674429,0.11526495767683356
0237,cdot_cos,Q,P-Q,71,14,13136,-0.016536548996168045,-0.012038400239368583,-0.06441113162225696,0.011244436779345671,896.0,1.329145106207143,0.5393535412633802,4.544673875769642,-0.004680407759921723,0.109,0.9999999999999855,1357.7967486689392,0.35266763052744726,71,2026-10-08 00:46:29.220243,69.5,0.01785156391648849,0.28069770290579626,0.09046549542135972
0237,cdot_cos,R,Q-R,72,14,13185,0.06515888754076223,0.12017267905102602,0.08169543653693027,0.9965906989021128,896.0,1.3804764664396785,0.5405831845784338,4.587000587748514,-0.02491755207754777,0.049,0.9999999999999852,-16.457735401703836,0.3576347729198519,72,2026-10-08 00:46:29.269243,69.5,0.44389633531994965,0.6720055340139378,1.0475787802558238
0237,cdot_cos,S,R-S,73,14,13236,0.03609791626456,-0.10238381123170825,-0.029060971276202226,0.11714613628156328,896.0,1.395001648540509,0.5407276931657532,4.619979597265673,-0.007221922222281229,0.051,0.9999999999999841,122.45382910120367,0.36260191610075976,73,2026-10-08 00:46:29.320243,69.5,0.08627064287186448,0.23579179601484165,0.28480749217314777
0237,cdot_cos,T,S-T,74,14,13486,-0.10025818585908572,0.0005717798184525909,-0.1363561021236457,7.660672378088737e-05,896.0,1.4045272296331923,0.5407277876636818,4.651516473590163,-0.004777160489310441,0.25,0.9999999999999829,25871.06161334974,0.36756909713316094,74,2026-10-08 00:46:29.570244,69.5,0.5994393749760868,0.12399894689059554,0.03810232437073324
0237,cdot_cos,P,T-P,75,15,13923,0.05240303836547367,-0.0013667781145726128,0.15266122422455938,0.9999753314092356,901.0,1.4570011219858068,0.5419610513375538,4.693520558167535,-0.02688786753072861,0.437,0.9999999999999823,-17.928612923462353,0.3725363157366037,75,2026-10-08 00:46:30.007244,69.5,0.4394065300217008,0.07215626353034862,0.1200775568709713
0237,cdot_cos,Q,P-Q,76,15,14033,-0.002876551722011982,-0.00277977612895437,-0.055279590087485654,0.021001597364775585,901.0,1.467591803958717,0.5419869470251449,4.7249328582012105,-0.005546264504868428,0.11,0.9999999999999806,824.1373375679309,0.3775034702003821,76,2026-10-08 00:46:30.117243,69.5,0.02132396395189835,0.2883563578650908,0.09627892702645675
0237,cdot_cos,R,Q-R,77,15,14083,0.06591891905097032,0.12547801977008996,0.0687954707729823,0.9916845119531381,901.0,1.5204395207161268,0.5432094672646003,4.766643931354416,-0.02826443704802257,0.05,0.9999999999999805,-18.58306456609293,0.38247061283327305,77,2026-10-08 00:46:30.167244,69.5,0.44763713813646644,0.6309392118110035,1.0569543351481947
0237,cdot_cos,S,R-S,78,15,14114,-0.0013562074041998198,-0.005551029400172773,-0.06727512645517014,0.009233677682918256,901.0,1.5306857251398174,0.5432208478554299,4.79759682853163,-0.005595646853534076,0.031,0.9999999999999796,1991.881663604268,0.3874377518169389,78,2026-10-08 00:46:30.198244,69.5,0.017402395694358672,0.32302710401828943,0.33052272334485866
0237,cdot_cos,T,S-T,79,15,14382,-0.16165972862569014,0.0001823453347878255,-0.16030352122149033,1.4503664321113266e-05,901.0,1.5404672011652607,0.5432208657312911,4.828252869313809,-0.005376913883920162,0.268,0.9999999999999782,12236.21993535892,0.3924049415871934,79,2026-10-08 00:46:30.466244,69.5,0.9601363042727183,0.11926887242549658,0.036498044871057185
0237,cdot_cos,P,T-P,80,16,14824,0.06003564738435011,0.0036958738657323965,0.22169537601004025,0.9999997965465971,898.0,1.5946138407598835,0.5444531049522139,4.869736830124919,-0.03037095097399089,0.442,0.9999999999999778,-20.28342927711246,0.3973721707658423,80,2026-10-08 00:46:30.908243,69.5,0.43913049316567737,0.0731668776382771,0.12250370949009694
0237,cdot_cos,Q,P-Q,81,16,14951,-0.0018604473866710642,-0.0023047679246023596,-0.061896094771021176,0.01336344709464375,898.0,1.6051467209974977,0.5444695682684872,4.900226355822398,-0.006029762087331228,0.127,0.9999999999999757,1478.5106768581509,0.40233933054143967,81,2026-10-08 00:46:31.035244,69.5,0.01765315637231874,0.25403863244807,0.08293606486310329
0237,cdot_cos,R,Q-R,82,16,14998,0.05472281184171475,0.13474201750156692,0.056583259228385814,0.9807826341264243,898.0,1.6591396534016933,0.545677591743001,4.941321001929821,-0.031518822507006196,0.047,0.9999999999999754,-21.099805556290576,0.40730647242765117,82,2026-10-08 00:46:31.082243,69.5,0.4454397445540849,0.6918605861175096,1.1487857958339505
0237,cdot_cos,S,R-S,83,16,15032,-0.0004714452633477766,-0.003874512816373009,-0.055194257105062525,0.021123881537444957,898.0,1.6701816160925436,0.5457036040250098,4.971596687165858,-0.0065741958382538905,0.034,0.9999999999999737,958.9557217736465,0.412273611633418,83,2026-10-08 00:46:31.116243,69.5,0.02249811754763997,0.30990088894033985,0.3247636085544184
0237,cdot_cos,T,S-T,84,16,15301,-0.18942719101784516,-0.1146520745243724,-0.1889557457544974,1.979975058776708e-06,898.0,1.6802129138496364,0.5457036064631707,5.001456416706066,-0.006010266495132361,0.269,0.9999999999999724,231292.91597822978,0.4172408071665794,84,2026-10-08 00:46:31.385243,69.5,0.9104396384540497,0.12230076709869621,0.037291069728969825
0237,cdot_cos,P,T-P,85,17,15722,0.057732491291877304,0.004637162009230713,0.24715968230972246,0.9999999653371717,878.0,1.7359794287916421,0.5469347343229055,5.0424893632252905,-0.03405309831365744,0.421,0.999999999999972,-22.77816361378278,0.4222080412587444,85,2026-10-08 00:46:31.806243,69.5,0.43889148032168507,0.0791642373005292,0.13246203074110616
0237,cdot_cos,Q,P-Q,86,17,15851,-0.0021235433249573387,-0.002765306913988833,-0.05985603461683464,0.015367790213302267,878.0,1.746869201656682,0.5469536495985771,5.072239771268689,-0.006779397908206457,0.129,0.9999999999999696,1441.887545232744,0.4271752035654703,86,2026-10-08 00:46:31.935244,69.5,0.017898704597587693,0.2564216778508011,0.08441684391503793
0237,cdot_cos,R,Q-R,87,17,15896,0.05018706100703407,0.14321284612186705,0.05231060433199141,0.9743089808588028,878.0,1.8021362216771488,0.5481525880219542,5.11282726429427,-0.035043745537354204,0.045,0.9999999999999697,-23.574478120013215,0.4321423448810501,87,2026-10-08 00:46:31.980243,69.5,0.44639783789459997,0.7439418386347861,1.2281560004548178
0237,cdot_cos,S,R-S,88,17,15931,-0.00023350410829617093,-0.0026468923999386816,-0.050420565115330246,0.02919213432527585,878.0,1.8138239671338128,0.5481885019260304,5.1424642757612995,-0.0075506811066252035,0.035,0.9999999999999682,765.5270329952107,0.43710948398225186,88,2026-10-08 00:46:32.015244,69.5,0.02622251174171681,0.31377782437348295,0.333935584476113
0237,cdot_cos,T,S-T,89,17,16199,-0.25770326045868974,-0.20605796791174508,-0.2574697563503936,1.6930517346692504e-08,878.0,1.8241006693832926,0.5481885019468592,5.171600283104372,-0.0066794271281306284,0.268,0.9999999999999657,41829326.875504166,0.44207668518639387,89,2026-10-08 00:46:32.283243,69.5,0.8777105331575522,0.126153614801127,0.03834590391596959
0237,cdot_cos,P,T-P,90,18,16600,0.0683574531760785,0.006374969393750004,0.32606071363476824,0.9999999998560016,897.0,1.8814423046672168,0.5494184560427537,5.212241444658827,-0.03794399984429994,0.401,0.9999999999999656,-25.419300460502587,0.44704392396315307,90,2026-10-08 00:46:32.684243,69.5,0.43868828155679707,0.08497172602751123,0.1429965967180155
0237,cdot_cos,Q,P-Q,91,18,16729,-0.0008870988855629387,-0.0011193596764619326,-0.06924455206164144,0.008062020571140563,897.0,1.8922479936573566,0.5494283695247011,5.2412129427116625,-0.0072817905976948795,0.129,0.9999999999999627,3092.980792164734,0.45201108853183264,91,2026-10-08 00:46:32.813244,69.5,0.014834403508612964,0.26417027234823726,0.08376503093131615
0237,cdot_cos,R,Q-R,92,18,16774,0.06045130833161066,0.1536614173140076,0.061338407217173596,0.9861157590986348,897.0,1.949598234933062,0.5506406506848417,5.281559930547219,-0.0393261849286347,0.045,0.9999999999999627,-26.433137282462756,0.45697822981652625,92,2026-10-08 00:46:32.858243,69.5,0.4427118911710243,0.7625418455763144,1.2744498061267873
0237,cdot_cos,S,R-S,93,18,16829,9.837545606604655e-05,-0.003307478027745891,-0.060352932875544614,0.014853880437751857,897.0,1.960876759759225,0.55065890673782,5.3103625358050905,-0.00787200138277494,0.055,0.9999999999999611,1722.9454572235213,0.46194537450080125,93,2026-10-08 00:46:32.913243,69.5,0.018394501165600877,0.19811540872083366,0.20506408774841586
0237,cdot_cos,T,S-T,94,18,17059,-0.22331995503367194,-0.09105795502284236,-0.223418330489738,1.804929443285975e-07,897.0,1.9713909298923538,0.5506589069596528,5.338836536214793,-0.007379406324253752,0.23,0.9999999999999588,2220569.345155849,0.4669125707227438,94,2026-10-08 00:46:33.143244,69.5,0.9354265338812382,0.15083981064949314,0.045713783187516656
0237,cdot_cos,P,T-P,95,19,17497,0.05439249318100916,0.0007608389162065686,0.2777124482146811,0.9999999958535577,898.0,2.0302630726579918,0.5518876333276436,5.37913563191594,-0.04202730172130256,0.438,0.999999999999959,-28.1982191476087,0.47187983078769585,95,2026-10-08 00:46:33.581243,69.5,0.4384918788987249,0.08018780533788335,0.1344112848530548
0237,cdot_cos,Q,P-Q,96,19,17608,-0.006128535306016034,-0.006705083477010842,-0.060521028487025195,0.014683890857056505,898.0,2.0416354473683396,0.5519056711302753,5.407549521498913,-0.008260892180092029,0.111,0.9999999999999564,1871.9802090387016,0.4768469921202943,96,2026-10-08 00:46:33.692243,69.5,0.016781108085608024,0.3171040316428185,0.10245382621934954
0237,cdot_cos,R,Q-R,97,19,17666,0.05961483466213352,0.1330116614396699,0.06574336996814956,0.9897397437945131,898.0,2.1006601676826975,0.5531211577050488,5.4476120356784286,-0.04359429195534879,0.058,0.999999999999956,-29.06934597927809,0.48181413748201735,97,2026-10-08 00:46:33.750243,69.5,0.44463338624556564,0.6979183722436902,1.0176675916268603
0237,cdot_cos,S,R-S,98,19,17725,0.04193636597817464,-0.08948394646357645,-0.01767846868395888,0.22641716872994436,898.0,2.1225939785486077,0.5533991290085535,5.478372284291894,-0.01651444137772959,0.059,0.9999999999999544,97.41959056993242,0.4867812838006934,98,2026-10-08 00:46:33.809243,69.5,0.1940250735738307,0.27746186861116845,0.3717595062018674
0237,cdot_cos,T,S-T,99,19,17956,-0.09158261915531475,-0.006281056729035161,-0.1335189851334894,9.330258224369134e-05,898.0,2.1334006681788154,0.5533992435488292,5.5062533620818614,-0.008199668794097585,0.231,0.9999999999999525,72592.56652034028,0.4917484864867062,99,2026-10-08 00:46:34.040244,69.5,0.36275136855707524,0.15414411964433494,0.04678220619137532
0237,cdot_cos,P,T-P,100,20,18395,0.029155912941164517,0.0005628329540559638,0.12073853209647926,0.9997732255804024,897.0,2.1938085618242904,0.5546262589339803,5.546263018756361,-0.04657696211683181,0.439,0.9999999999999521,-31.276945494866226,0.49671575996696044,100,2026-10-08 00:46:34.479244,69.5,0.438693446394244,0.08162363013191556,0.13760340238149216
0237,cdot_cos,Q,P-Q,101,20,18504,-0.04360426204870003,-0.0341692434898283,-0.07276017498986455,0.006325427362620334,897.0,2.205066215434637,0.5546340199878413,5.574003381557488,-0.008823838853193648,0.109,0.9999999999999488,4864.432580895376,0.5016829228437845,101,2026-10-08 00:46:34.588243,69.5,0.013862925190428827,0.33127421864565987,0.10328122578299823
0237,cdot_cos,R,Q-R,102,20,18563,0.04659609436586786,0.10250399219382306,0.09020035641456789,0.9981093171960327,897.0,2.2660263414890442,0.5558583251524541,5.6138943725484625,-0.048538873501926656,0.059,0.9999999999999495,-32.43883616328056,0.5066500690376331,102,2026-10-08 00:46:34.647244,69.5,0.44122034266740284,1.0338873320816775,1.0332224754984245
0237,cdot_cos,S,R-S,103,20,18622,0.11425671434533899,-0.2036072350900196,0.06766061997947112,0.991008229679808,897.0,2.327064920620275,0.5570732492931966,5.653676476277034,-0.04989973511679435,0.059,0.9999999999999494,-1.120120647233244,0.5116172162604723,103,2026-10-08 00:46:34.706244,69.5,0.9730966005181948,0.6128051913601488,1.0345521886649305
0237,cdot_cos,T,S-T,104,20,18854,-0.024519160370198453,-0.002057567052597865,-0.13877587471553743,6.474927566411191e-05,897.0,2.338337354069542,0.5570733286502723,5.6810560262771705,-0.009360423939009347,0.232,0.999999999999947,510846.8378661921,0.5165844285793568,104,2026-10-08 00:46:34.938244,69.5,0.013155349065627476,0.157466102484089,0.048588075212356245
0237,cdot_cos,P,T-P,105,21,19292,0.048265067389550054,0.00016990873731198718,0.07278422775974851,0.9936850710972271,919.0,2.4001291921728924,0.5582908491798476,5.720779348399277,-0.052084724836747774,0.438,0.9999999999999465,-35.09123654172774,0.5215517207541857,105,2026-10-08 00:46:35.376243,69.5,0.440306298280679,0.08405447006548128,0.14107725594372295
0237,cdot_cos,Q,P-Q,106,21,19404,-0.020115444888442212,-0.016832894971108327,-0.06838051227799227,0.008556713192820075,919.0,2.4119690698469034,0.5583013303395892,5.748064556307741,-0.01013493573443505,0.112,0.9999999999999433,4002.399556603763,0.5265188883262407,106,2026-10-08 00:46:35.488243,69.5,0.015936753567781792,0.33156711523611515,0.10571319351795497
0237,cdot_cos,R,Q-R,107,21,19460,0.05380876792568541,0.11130309581825723,0.07392421281412762,0.9941632818977306,919.0,2.4744002259857822,0.5595187298131261,5.787707307111808,-0.05423432925463496,0.056,0.9999999999999432,-36.22425874070479,0.5314860344894218,107,2026-10-08 00:46:35.544243,69.5,0.44346919980759597,0.7462922530335956,1.1148420739085507
0237,cdot_cos,S,R-S,108,21,19503,0.03259866437177572,-0.09030832395890487,-0.02121010355390969,0.1863199008117133,919.0,2.495553802186666,0.5597468080787155,5.817060032079433,-0.0186885173458849,0.043,0.9999999999999405,155.84918544035986,0.5364531760245012,108,2026-10-08 00:46:35.587244,69.5,0.14926776881365705,0.38003378684565253,0.4919436325786947
0237,cdot_cos,T,S-T,109,21,19755,-0.11065475297295647,0.0016269381573423734,-0.14325341734473218,4.743453817496102e-05,919.0,2.5070831316545084,0.5597468661411638,5.843929419018217,-0.010252781574489691,0.252,0.9999999999999384,145287.290138292,0.5414204032313048,109,2026-10-08 00:46:35.839243,69.5,0.43921100475646,0.14900544852586736,0.04575130741207239
0237,cdot_cos,P,T-P,110,22,20211,0.0521054363697088,0.001866533190062003,0.16276018934266528,0.9999877727731847,938.0,2.5706525482437033,0.5609705397488884,5.8835092547441885,-0.05734513333868942,0.456,0.9999999999999378,-38.48440586355695,0.5463877170901522,110,2026-10-08 00:46:36.295244,69.5,0.4398994011088508,0.08378796690607361,0.1394066153271818
0237,cdot_cos,Q,P-Q,111,22,20343,-0.0020462468641273724,-0.0024398989605692923,-0.05415168323383618,0.022675316169728975,938.0,2.5834977574728475,0.5609982787374217,5.910484274530645,-0.011761712403169321,0.132,0.9999999999999344,1643.2978758714596,0.5513548954839911,111,2026-10-08 00:46:36.427244,69.5,0.020742368076250284,0.28868310729533087,0.0973121911298805
0237,cdot_cos,R,Q-R,112,22,20384,0.05774405682916457,0.11926999738193704,0.05979030369329195,0.9845629307542348,938.0,2.6468648885696706,0.5622023366234918,5.949790944657491,-0.0588445795826486,0.041,0.9999999999999336,-39.10349138873251,0.5563220353201873,112,2026-10-08 00:46:36.468243,69.5,0.44927396246519896,0.9289676257585832,1.5455397828493445
0237,cdot_cos,S,R-S,113,22,20443,0.0012100073826014223,-0.02332000018286651,-0.05653404944656315,0.019281933846321302,938.0,2.6596731027850513,0.5622259099364078,5.97654407262459,-0.012067166706811471,0.059,0.9999999999999303,1984.3376721248912,0.5612891836755607,113,2026-10-08 00:46:36.527244,69.5,0.02072487644749785,0.20807584289408282,0.21708837653187624
0237,cdot_cos,T,S-T,114,22,20673,-0.14408177427980373,0.007110648548380011,-0.14529178166240517,4.11692065214106e-05,938.0,2.6714178380311724,0.5622259602679149,6.002931248496466,-0.01111641533052445,0.23,0.9999999999999271,18889.78553347328,0.5662564079834336,114,2026-10-08 00:46:36.757244,69.5,0.9180285440524402,0.16674479207715828,0.05106406628748293
0237,cdot_cos,P,T-P,115,23,21149,0.054025426618307025,0.0012751946682319486,0.19810720089811076,0.9999989518161003,901.0,2.736375707140544,0.5634481309813757,6.042308753832519,-0.062328431591004874,0.476,0.9999999999999265,-41.90250649638463,0.5712237450375349,115,2026-10-08 00:46:37.233243,69.5,0.4397065260063858,0.08180629929960503,0.13646611157431038
0237,cdot_cos,Q,P-Q,116,23,21261,-0.002249006719754157,-0.002211881918442507,-0.05627443333806118,0.01962611153424421,901.0,2.7492974349643964,0.5634721098067638,6.068781116909007,-0.012577070032235654,0.112,0.9999999999999223,2074.8039469655996,0.5761909169370956,116,2026-10-08 00:46:37.345243,69.5,0.01914488826795691,0.34624335157991204,0.11537256985582373
0237,cdot_cos,R,Q-R,117,23,21317,0.0560872410298299,0.12409632450139449,0.058336247749584055,0.9829493491936372,901.0,2.8139342178944444,0.5646726775372883,6.1078696560244765,-0.06376231947259772,0.056,0.9999999999999214,-42.63420391783927,0.5811580634376005,117,2026-10-08 00:46:37.401243,69.5,0.44809467323890506,0.6933458221402526,1.1542282666080008
0237,cdot_cos,S,R-S,118,23,21361,-0.000763547738132577,-0.00584275537942829,-0.05685078876796248,0.018870033137557755,901.0,2.8269521670441047,0.5646957178974993,6.1341664103718845,-0.01302092685158052,0.044,0.9999999999999181,2202.282957230427,0.5861252048259101,118,2026-10-08 00:46:37.445244,69.5,0.020304536095930505,0.2837686122568285,0.29586248067409676
0237,cdot_cos,T,S-T,119,23,21611,-0.17270371454198544,-0.014115645108992146,-0.17194016680385285,6.460214392008581e-06,901.0,2.8389058557730453,0.5646957257853902,6.160103890612579,-0.012009352864278875,0.25,0.9999999999999145,128243.91217348306,0.5910924451459992,119,2026-10-08 00:46:37.695244,69.5,0.9192178061663815,0.15653867429219748,0.04781475491576259
0237,cdot_cos,P,T-P,120,24,22050,0.06176554258649847,0.0018879282659447739,0.2344692571284839,0.9999999162653909,898.0,2.9052215041902034,0.5659163261583935,6.19930356843196,-0.06750101218088739,0.439,0.9999999999999136,-45.46259410036899,0.5960597794456152,120,2026-10-08 00:46:38.134243,69.5,0.4395137269961246,0.09005320639906421,0.15106070254477924
0237,cdot_cos,Q,P-Q,121,24,22179,-0.001365190272261381,-0.0016939914838915598,-0.06313073285875985,0.01227807646190493,898.0,2.9179725709914237,0.5659313078480824,6.225245265992903,-0.013157534298254898,0.129,0.9999999999999089,3627.3263571026396,0.6010269620696687,121,2026-10-08 00:46:38.263244,69.5,0.01607938182802998,0.30573739381679454,0.09884547907922706
0237,cdot_cos,R,Q-R,122,24,22224,0.05986016240204915,0.15029974501777166,0.061225352674310535,0.9860077693310683,898.0,2.9841017517949364,0.5671340373733111,6.264201082838501,-0.06911646133005199,0.045,0.9999999999999087,-46.526609564320886,0.6059941031619244,122,2026-10-08 00:46:38.308243,69.5,0.4450216224665522,0.8796763231292538,1.4695373511891714
0237,cdot_cos,S,R-S,123,24,22258,-0.00016706349850907707,-0.0014068869176358202,-0.06002722590055823,0.015188791525325535,898.0,2.9971434400730566,0.5671525584703138,6.290027052502843,-0.013813531232308471,0.034,0.9999999999999044,2985.9424681980345,0.6109612391825744,123,2026-10-08 00:46:38.342243,69.5,0.018251041317598728,0.37059602028948985,0.38357906700353334
0237,cdot_cos,T,S-T,124,24,22528,-0.24431129785820893,-0.11690904573499297,-0.24414423435969984,4.274454163604773e-08,898.0,3.0093022811746217,0.5671525585224358,6.315544506996131,-0.012932694938674922,0.27,0.9999999999999,16899483.26758228,0.6159284973071202,124,2026-10-08 00:46:38.612243,69.5,0.9341584010195308,0.14778376117667116,0.04503274482061176
0237,cdot_cos,P,T-P,125,25,22948,0.04621441393314788,0.0018096894380534541,0.29052571179135683,0.999999998298128,916.0,3.076946671108459,0.5683715356427471,6.354587888499109,-0.07285651961084691,0.42,0.9999999999999001,-49.15910534634988,0.6208958361416708,125,2026-10-08 00:46:39.032243,69.5,0.4393359467832401,0.09630653014179445,0.1610580712710411
0237,cdot_cos,Q,P-Q,126,25,23057,-0.011833442159669125,-0.010600636225173342,-0.058047856092817006,0.017389845698848095,916.0,3.090199766493729,0.5683927261862233,6.380193527229476,-0.014463832804379018,0.109,0.9999999999998942,2755.6011893781324,0.6258630110738845,126,2026-10-08 00:46:39.141243,69.5,0.017647667220335506,0.3720669137480534,0.12158803105752372
0237,cdot_cos,R,Q-R,127,25,23116,0.06077317199208656,0.12877745241043417,0.07260661415175568,0.9936071370081867,916.0,3.1580572583055346,0.5696030764061988,6.419101682449931,-0.07497952742098586,0.059,0.9999999999998942,-49.998499292073795,0.6308301597465971,127,2026-10-08 00:46:39.200243,69.5,0.4461517048290044,0.7236055972610307,1.1501269798611113
0237,cdot_cos,S,R-S,128,25,23175,0.027674164628698174,-0.07004894922735169,-0.03309900736338839,0.09109141070175683,916.0,3.1755852269705307,0.5697139968919516,6.44557910664684,-0.019631061271818885,0.059,0.99999999999989,498.9922805830928,0.6357973091683069,128,2026-10-08 00:46:39.259244,69.5,0.05963973617970801,0.2534788805581368,0.29708421466095025
0237,cdot_cos,T,S-T,129,25,23406,-0.11951909825530092,0.001325016050809994,-0.1471932628839991,3.607292968940385e-05,916.0,3.1879677662113948,0.5697140408159688,6.470708666162259,-0.013933750155168755,0.231,0.9999999999998853,129708.3345212045,0.6407645544837997,129,2026-10-08 00:46:39.490243,69.5,0.6643901710768243,0.17607973497157875,0.05360406597776656
0237,cdot_cos,P,T-P,130,26,23864,0.0461670212782082,0.001251328216053648,0.16568611953350912,0.9999900226724588,941.0,3.2569340645274,0.570931249513142,6.509618859304638,-0.07854317391073636,0.458,0.9999999999998852,-53.07998858832701,0.6457319300321823,130,2026-10-08 00:46:39.948243,69.5,0.43928908840696657,0.08963102461797724,0.15058143737119065
0237,cdot_cos,Q,P-Q,131,26,23976,-0.018392774601098935,-0.01473328484364712,-0.06455979587930713,0.01113014195983754,941.0,3.270069784761462,0.5709447925554475,6.534762967585728,-0.015150242861615655,0.112,0.9999999999998798,4680.848632023337,0.650699109130335,131,2026-10-08 00:46:40.060243,69.5,0.015233096630048624,0.36780665953474656,0.11728321637555217
0237,cdot_cos,R,Q-R,132,26,24036,0.05842835686499579,0.12000085802591065,0.07682113146609473,0.995222593684145,941.0,3.3393227562631833,0.5721553374114412,6.573565504304388,-0.08082478411236022,0.06,0.9999999999998787,-54.25205098809352,0.6556662587977935,132,2026-10-08 00:46:40.120243,69.5,0.44372313085577986,0.7532057956813814,1.1542161916953564
0237,cdot_cos,S,R-S,133,26,24095,0.033300046675275335,-0.08334480393202609,-0.025128310189720456,0.14849961859282113,941.0,3.3604544802432277,0.5723358921170243,6.6005006526786225,-0.024997329249480543,0.059,0.9999999999998749,309.1996671179962,0.6606334086859547,133,2026-10-08 00:46:40.179244,69.5,0.10717022916477384,0.2860796718453292,0.35816481322109106
0237,cdot_cos,T,S-T,134,26,24326,-0.08445828167833046,0.004783298833696555,-0.11775832835360579,0.00027894865979461857,941.0,3.373080157540932,0.5723362312613502,6.625272024699107,-0.015010529933737844,0.231,0.99999999999987,29447.048207552987,0.6656006618229858,134,2026-10-08 00:46:40.410244,69.5,0.5141092077522766,0.1794039402748484,0.054656611678374344
0237,cdot_cos,P,T-P,135,27,24805,0.032610604052450566,0.0014094021046925135,0.11706888573078103,0.9997073637645053,939.0,3.4433391006502077,0.5735512312158988,6.6640642951543185,-0.08449704276266407,0.479,0.9999999999998697,-57.19054767762945,0.6705680677840139,135,2026-10-08 00:46:40.889244,69.5,0.43939593274618,0.08764020353076572,0.14667837809869624
0237,cdot_cos,Q,P-Q,136,27,24934,-0.02598291999817047,-0.02062577070466657,-0.058593524050621036,0.01675354511082636,939.0,3.4570394725234057,0.5735715852115243,6.688937921602438,-0.016679521167074163,0.129,0.9999999999998628,3331.902140660198,0.6755352600847561,136,2026-10-08 00:46:41.018244,69.5,0.017147285854915418,0.3266302628499653,0.10620443312556634
0237,cdot_cos,R,Q-R,137,27,24977,0.05206505246113092,0.10459671187755924,0.0780479724593014,0.9956113446607859,939.0,3.5276097084654987,0.5747807103960647,6.7276370265578445,-0.08690121100353301,0.043,0.9999999999998621,-58.07644298067437,0.6805023994159457,137,2026-10-08 00:46:41.061243,69.5,0.4457204038173945,1.3847403371960547,1.6411682777230931
0237,cdot_cos,S,R-S,138,27,25034,0.058576318573135666,-0.14097829822621347,0.006511266112004747,0.6112413071025332,939.0,3.5761271415222664,0.5755225934426982,6.760860954191597,-0.06073599610592703,0.057,0.9999999999998601,35.2686518668122,0.6854695487355207,138,2026-10-08 00:46:41.118243,69.5,0.649987314085795,0.5391829454197421,0.8511830360836439
0237,cdot_cos,T,S-T,139,27,25264,-0.059645727165199065,0.002826998280576723,-0.11822204573833472,0.00027010431557103584,939.0,3.5890765642433493,0.5755229212019584,6.785316477525676,-0.016350851040174714,0.23,0.9999999999998554,135419.95744618782,0.6904368114759686,139,2026-10-08 00:46:41.348243,69.5,0.06623498537193215,0.18385504284787443,0.05630183791775175
0237,cdot_cos,P,T-P,140,28,25744,0.04699671858445998,0.0007805602222487831,0.10664244574965905,0.999396191806058,916.0,3.6607004612322886,0.5767351857726163,6.824024095856317,-0.09143568638106678,0.48,0.9999999999998546,-61.937663739641856,0.6954042418518299,140,2026-10-08 00:46:41.828243,69.5,0.43991379894256255,0.09005955899328705,0.1492164520602903
0237,cdot_cos,Q,P-Q,141,28,25872,-0.00291228103529455,-0.003466985888393309,-0.04990899961975453,0.030216770892310466,916.0,3.675533740876905,0.5767718243159605,6.848787396259552,-0.019161677212099656,0.128,0.999999999999848,1972.6223417213687,0.7003714382550312,141,2026-10-08 00:46:41.956243,69.5,0.023010612827089542,0.33592528436371916,0.11588499722356427
0237,cdot_cos,R,Q-R,142,28,25916,0.055018368258419936,0.11926688601882614,0.057930649293714484,0.9824704136141749,916.0,3.7466973340294007,0.5779626305076931,6.887221077428022,-0.09293675851318453,0.044,0.9999999999998469,-61.95389460793986,0.705338578358373,142,2026-10-08 00:46:42.000243,69.5,0.4521143002033079,1.0088357720264285,1.6173543898294518
0237,cdot_cos,S,R-S,143,28,25973,0.018833831142068432,-0.056106858946488466,-0.0361845371163515,0.07482538250915573,916.0,3.7643112888152306,0.5780532858824894,6.91251339042613,-0.023276900803599936,0.057,0.9999999999998421,768.4029531194462,0.7103057282319016,143,2026-10-08 00:46:42.057244,69.5,0.050153833191062945,0.26977341879117955,0.3090167506285936
0237,cdot_cos,T,S-T,144,28,26203,-0.13667106557581557,-0.003696437008396329,-0.155504896717884,2.024484090613027e-05,916.0,3.777451503771595,0.5780533104095996,6.936641207162363,-0.017435939695538118,0.23,0.9999999999998357,238143.06099992676,0.7152729988836272,144,2026-10-08 00:46:42.287244,69.5,0.7153413147441217,0.18705670093329926,0.05713136937549842
0237,cdot_cos,P,T-P,145,29,26660,0.060112580728237275,-0.00010234771778795478,0.19678364630405284,0.9999988508230498,901.0,3.8503573712445482,0.5792643609718774,6.975268117153424,-0.0977671395637211,0.457,0.999999999999835,-66.33182987595023,0.7202404321097909,145,2026-10-08 00:46:42.744244,69.5,0.4397018101869618,0.09516200858389467,0.15953143867166963
0237,cdot_cos,Q,P-Q,146,29,26771,-0.0015044930999116195,-0.0014575675211813803,-0.06161707382814889,0.013621555051366864,901.0,3.864429579617275,0.5792808508332989,6.999478779880259,-0.01908587993448891,0.111,0.9999999999998277,4771.493077946019,0.7252076197927442,146,2026-10-08 00:46:42.855244,69.5,0.016204191940231566,0.3912919540665683,0.12677665200654697
0237,cdot_cos,R,Q-R,147,29,26824,0.0637142414352516,0.13448173677238046,0.06521873453516322,0.9893627814991074,901.0,3.9372241850473264,0.5804780695808376,7.03792421105918,-0.09976331354588817,0.053,0.9999999999998268,-67.38737910449842,0.73017476629645,147,2026-10-08 00:46:42.908243,69.5,0.4454419284396911,0.8194984468312515,1.3734831213217256
0237,cdot_cos,S,R-S,148,29,26852,-0.00020146251999882687,-0.0008578964816658903,-0.06391570395525042,0.011633767776883224,901.0,3.9512964149813876,0.5804921418907364,7.0619933531961046,-0.01950021830958167,0.028,0.9999999999998205,5703.619079844366,0.735141895046644,148,2026-10-08 00:46:42.936243,69.5,0.0163094581355507,0.48926273434549533,0.5025796405021861
0237,cdot_cos,T,S-T,149,29,27121,-0.2874318398409335,-0.14303558945095998,-0.2872303773209347,2.1398903962179556e-09,901.0,3.964622898170674,0.5804921418933249,7.085811269199585,-0.018530959346188893,0.269,0.9999999999998143,374450294.34794927,0.7401092026850762,149,2026-10-08 00:46:43.205244,69.5,0.9490395124277282,0.1625341448577749,0.049540829699949926
0237,cdot_cos,P,T-P,150,30,27561,0.052998568038422095,0.0015219103009515695,0.34043040787935563,0.9999999999469567,916.0,4.0387397849148705,0.581701259330463,7.1243580528038235,-0.10411678219949053,0.44,0.9999999999998136,-70.7837139921451,0.7450766411450024,150,2026-10-08 00:46:43.645243,69.5,0.4395439547251136,0.1010991990749812,0.16844746987317355
0237,cdot_cos,Q,P-Q,151,30,27688,-0.0008803279390690482,-0.0010366138643956827,-0.05387889597749114,0.023099287018779932,916.0,4.053590193356658,0.5817291775423683,7.148409623787456,-0.02109283418887065,0.127,0.9999999999998054,2973.827560743529,0.7500438438045381,151,2026-10-08 00:46:43.772243,69.5,0.019523800495136488,0.35074842984750976,0.1169323499353314
0237,cdot_cos,R,Q-R,152,30,27725,0.07142384323405258,0.14276415245044363,0.07230417117312163,0.9934722246225998,916.0,4.127829886096138,0.582929408102666,7.186838248331415,-0.10652091762787504,0.037,0.9999999999998043,-71.17639415698068,0.7550109780137767,152,2026-10-08 00:46:43.809243,69.5,0.44843832937630135,1.1921021642291225,2.006478182148119
0237,cdot_cos,S,R-S,153,30,27769,-0.0002207781721761429,-0.0015274193942468681,-0.07164462140622872,0.006831872367927344,916.0,4.141805753509613,0.5829376584188101,7.210542455789165,-0.020269021259135774,0.044,0.9999999999997975,10454.37470066137,0.7599781184200171,153,2026-10-08 00:46:43.853244,69.5,0.014188042306803738,0.31237669860570166,0.3176333503062426
0237,cdot_cos,T,S-T,154,30,28018,-0.21719896948708067,-0.00448722390207644,-0.21697819131490453,2.823877871852342e-07,916.0,4.15531903557344,0.5829376587598266,7.234067945620254,-0.019663286018151274,0.249,0.9999999999997913,1776263.480307337,0.7649454202863911,154,2026-10-08 00:46:44.102243,69.5,0.9696642587832371,0.17836017905671,0.05427020909167498
0237,cdot_cos,P,T-P,155,31,28477,0.04387074657884054,-0.00205113391292872,0.2610697160659212,0.9999999868170997,921.0,4.230629122679854,0.5841447771022393,7.272545725435856,-0.11066556026117874,0.459,0.9999999999997903,-75.38803035760151,0.7699128918668232,155,2026-10-08 00:46:44.561243,69.5,0.439411947790176,0.09730183472322035,0.16407426384839763
0237,cdot_cos,Q,P-Q,156,31,28588,-0.02907912835484559,-0.019530274851078184,-0.07294987493368613,0.006243096572582817,921.0,4.244642119849356,0.584152310104758,7.296062024690737,-0.02081083827467452,0.111,0.9999999999997818,11928.14176870023,0.7748800850692179,156,2026-10-08 00:46:44.672243,69.5,0.013330658647488995,0.4039916628506697,0.12624321774325922
0237,cdot_cos,R,Q-R,157,31,28638,0.057823843962431586,0.10730131366093555,0.08690297231727717,0.997623522386664,921.0,4.320315271832703,0.5853555484237831,7.334486029842863,-0.11347681320924374,0.05,0.9999999999997811,-77.01381635655295,0.7798472294078138,157,2026-10-08 00:46:44.722244,69.5,0.44192851905820163,1.2356499559998824,1.513463039666938
0237,cdot_cos,S,R-S,158,31,28669,0.0605389588016445,-0.14636509868324862,0.002715114839212912,0.5470356331917988,921.0,4.368207115449344,0.5860148995741741,7.3660951034918,-0.07281910837064255,0.031,0.9999999999997774,61.66320452234569,0.7848143589199907,158,2026-10-08 00:46:44.753243,69.5,0.5721589707983135,0.995391387732267,1.5448981811819786
0237,cdot_cos,T,S-T,159,31,28936,-0.054707706800543016,0.0032392805522925626,-0.11524666560218752,0.00033213287361142323,921.0,4.3820295378721035,0.5860152998060782,7.389373806363944,-0.021166144127098874,0.267,0.9999999999997705,129057.58812541398,0.7897816884640233,159,2026-10-08 00:46:45.020243,69.5,0.08712967365802463,0.16919920888273884,0.05176937236988471
0237,cdot_cos,P,T-P,160,32,29398,0.045674341639513276,0.004408321528031837,0.1003820484400563,0.9990673545566724,956.0,4.458559492992727,0.5872186951256639,7.4277963514524625,-0.1182979052799364,0.462,0.9999999999997695,-80.71475729711055,0.7947491875252564,160,2026-10-08 00:46:45.482244,69.5,0.4399572972615392,0.10004659618052207,0.16564925350784268
0237,cdot_cos,Q,P-Q,161,32,29527,-0.003497961091896465,-0.00391990489429959,-0.04917230273140974,0.031753767739736635,956.0,4.474472592742906,0.587256926130817,7.451457275721907,-0.024854564460228396,0.129,0.9999999999997609,2444.1769303607084,0.7997164005796196,161,2026-10-08 00:46:45.611244,69.5,0.023292943015613188,0.3567338817639746,0.12335736240448893
0237,cdot_cos,R,Q-R,162,32,29576,0.05635745596188142,0.12365529269818806,0.059855417053777886,0.9846315603144349,956.0,4.550596834487832,0.5884418816952017,7.489644669098433,-0.12001976632621147,0.049,0.9999999999997594,-80.31119877089999,0.8046835444964094,162,2026-10-08 00:46:45.660243,69.5,0.45252478639260413,0.9312214803378581,1.5535559539780894
0237,cdot_cos,S,R-S,163,32,29607,-0.0015684910558043548,-0.007720567571049048,-0.057925947017685775,0.017535215661955685,956.0,4.565732297816016,0.5884629752147091,7.51299459741141,-0.024103955250701033,0.031,0.9999999999997516,4547.169619646447,0.8096506731373434,163,2026-10-08 00:46:45.691243,69.5,0.01869954467095437,0.4698938800474604,0.4882407525220554
0237,cdot_cos,T,S-T,164,32,29877,-0.12265845438126764,0.006189176301151904,-0.12108996332546329,0.00022130387973648383,956.0,4.579730255050775,0.5884632414242257,7.536008759069146,-0.022363658594125896,0.27,0.9999999999997434,6537.319473708845,0.8146180157523638,164,2026-10-08 00:46:45.961244,69.5,0.9251327244920988,0.16989458777980143,0.05184428605466233
0237,cdot_cos,P,T-P,165,33,30354,0.04343006304230868,0.00025326159559104297,0.16608851742357633,0.9999902978365685,960.0,4.657475375217109,0.5896656127522178,7.574394282806143,-0.12534354155250282,0.477,0.999999999999743,-85.64732089074536,0.8195855483696364,165,2026-10-08 00:46:46.438244,69.5,0.4397358445130918,0.09865298619514236,0.16298767330468333
0237,cdot_cos,Q,P-Q,166,33,30466,-0.004048046207007459,-0.0035779129041195435,-0.04747810924931614,0.035580501308183146,960.0,4.673845203880941,0.5897083744982372,7.597863397115555,-0.02666009707038201,0.112,0.9999999999997333,2307.7505871122175,0.8245527494351899,166,2026-10-08 00:46:46.550244,69.5,0.024685454900537116,0.41916113130214894,0.14615918449849868
0237,cdot_cos,R,Q-R,167,33,30523,0.06031549860942112,0.1120789488928817,0.06436354481642859,0.9887187333499362,960.0,4.75136746862879,0.5908961027286205,7.636063014426794,-0.12741097643662053,0.057,0.9999999999997319,-84.82654262897103,0.8295199006156146,167,2026-10-08 00:46:46.607244,69.5,0.45350222659787176,0.8120198762819145,1.3600397324184124
0237,cdot_cos,S,R-S,168,33,30565,-0.001867929488059561,-0.008230694072539214,-0.06218342809748068,0.013102692405867788,960.0,4.766415469777079,0.5909118356456905,7.65909527998714,-0.02497461229835445,0.042,0.999999999999723,6510.958119359471,0.8344870385275938,168,2026-10-08 00:46:46.649244,69.5,0.016545852819025007,0.347905993613636,0.3582857416259225
0237,cdot_cos,T,S-T,169,33,30814,-0.12621472185347102,0.016645235577113785,-0.12434679236541146,0.00017648431201953892,960.0,4.7805915720923355,0.5909120475560605,7.681859139133276,-0.023599791142403497,0.249,0.9999999999997146,6487.748361539437,0.8394543720644431,169,2026-10-08 00:46:46.898243,69.5,0.9434087348382794,0.18687263153220016,0.05693213781227582
0237,cdot_cos,P,T-P,170,34,31314,0.05054537905423177,-2.03240503975554e-06,0.17676010090770278,0.9999953786867241,917.0,4.8594780402801145,0.5921122295280652,7.720201531704973,-0.13248657937735236,0.5,0.9999999999997137,-90.7252323187917,0.8444219479780023,170,2026-10-08 00:46:47.398243,69.5,0.43960867342181137,0.09472351145693114,0.157772936375558
0237,cdot_cos,Q,P-Q,171,34,31422,-0.002713853385950314,-0.0025161134397890094,-0.05325923244018209,0.02409133768546671,917.0,4.875315083549267,0.5921411301625638,7.743252780933952,-0.026858422798852703,0.108,0.9999999999997028,3654.873272202764,0.8493891480151314,171,2026-10-08 00:46:47.506243,69.5,0.019589220256227814,0.4378890345767591,0.14663928952918648
0237,cdot_cos,R,Q-R,172,34,31477,0.06386456013073438,0.12602549462800602,0.0665784135166847,0.9903126495082911,917.0,4.9540620717486945,0.5933285828878959,7.781434179242024,-0.13472349990920596,0.055,0.9999999999997016,-90.83736540347796,0.854356297353102,172,2026-10-08 00:46:47.561243,69.5,0.44904130512115265,0.8533453152155943,1.4317634218077786
0237,cdot_cos,S,R-S,173,34,31524,-0.0004303670399117506,-0.00324725135186778,-0.06429492717064614,0.011334583415768276,917.0,4.969183068222982,0.5933421675467014,7.804200524204703,-0.026116382902944442,0.047,0.9999999999996924,7994.8358336479905,0.8593234396322169,173,2026-10-08 00:46:47.608243,69.5,0.015629706834835236,0.31342894821019335,0.32172332924016067
0237,cdot_cos,T,S-T,174,34,31773,-0.18177813009579283,0.001787320604277029,-0.18134776305588107,3.359652902870788e-06,917.0,4.983524392880453,0.5933421715732718,7.826723568911436,-0.024843306860162236,0.249,0.9999999999996833,316168.8268219816,0.8642907830382547,174,2026-10-08 00:46:47.857243,69.5,0.9500466156738833,0.1894591538873333,0.057595681355303706
0237,cdot_cos,P,T-P,175,35,32231,0.058197225502572496,0.0019108740717237896,0.23997535559836533,0.999999942890038,919.0,5.063533726858874,0.5945401214853546,7.865029383964372,-0.13978259737548293,0.458,0.999999999999682,-95.94665799965333,0.8692583393755096,175,2026-10-08 00:46:48.315244,69.5,0.43943220950722345,0.10420988936909917,0.17469286894851824
0237,cdot_cos,Q,P-Q,176,35,32363,-0.0018469196384101824,-0.002282618733302407,-0.06004414514098268,0.015171212519625856,919.0,5.0789806515425475,0.5945582872124671,7.887710017027541,-0.02724300838825335,0.132,0.9999999999996705,6195.160165659446,0.8742255668423053,176,2026-10-08 00:46:48.447244,69.5,0.016067558103951697,0.3600685565462144,0.11702215669449605
0237,cdot_cos,R,Q-R,177,35,32405,0.06008486864281052,0.13783415426970028,0.0619317882812207,0.98666922113337,919.0,5.158591825787075,0.5957391485285541,7.925796907049799,-0.14159024218183236,0.042,0.9999999999996693,-96.8337536642168,0.8791927028575934,177,2026-10-08 00:46:48.489243,69.5,0.4459303014495754,1.1329532529287467,1.8955041486792172
0237,cdot_cos,S,R-S,178,35,32462,3.704174702999508e-05,-0.005558471450417824,-0.060047826895780525,0.015167389849558873,919.0,5.174148724788562,0.5957572924884942,7.948396697351757,-0.02792509480309955,0.057,0.9999999999996593,6264.62733352284,0.884159855389547,178,2026-10-08 00:46:48.546243,69.5,0.017071267126463438,0.2637877137399236,0.2729280526576772
0237,cdot_cos,T,S-T,179,35,32693,-0.15810870569181099,-0.003600716903574136,-0.158145747438841,1.6850229225509318e-05,919.0,5.188663625153426,0.5957573126454018,7.970692656362535,-0.02613050424824244,0.231,0.9999999999996492,89031.0454154251,0.8891271901448253,179,2026-10-08 00:46:48.777244,69.5,0.9336272673740119,0.20699048785809468,0.06283506651456143
0237,cdot_cos,P,T-P,180,36,33150,0.04783659284204107,-0.002028253613140054,0.20594529853385207,0.9999993920656004,898.0,5.269778330179002,0.5969529801151748,8.008967774179919,-0.14723358910101333,0.457,0.9999999999996486,-101.2849206943432,0.8940947666259726,180,2026-10-08 00:46:49.234244,69.5,0.43932163287425435,0.10600020429180566,0.1774938840822233
0237,cdot_cos,Q,P-Q,181,36,33261,-0.010353030411851096,-0.009097591611203371,-0.05818962325389217,0.01722228439908069,898.0,5.285547811876136,0.596973562207786,8.031461138271519,-0.02888831742886317,0.111,0.9999999999996363,5749.914447870135,0.8990619758407166,181,2026-10-08 00:46:49.345243,69.5,0.016628318000025583,0.43651778219676096,0.1420674026768858
0237,cdot_cos,R,Q-R,182,36,33310,0.06141657869184512,0.12078287956637103,0.07176960910369622,0.9932268164466604,898.0,5.366685277826683,0.5981599727582443,8.069622506520258,-0.14985702806586315,0.049,0.999999999999636,-101.96193096080368,0.904029119160014,182,2026-10-08 00:46:49.394243,69.5,0.4460931569277062,1.0908307929985224,1.6558666520519716
0237,cdot_cos,S,R-S,183,36,33342,0.03801338604511847,-0.0954499814561594,-0.023403192646726655,0.16430738483786375,898.0,5.3924492295899915,0.5983561277413997,8.094414964346853,-0.0480546268065492,0.032,0.9999999999996267,518.9896255588158,0.9089962447652374,183,2026-10-08 00:46:49.426244,69.5,0.12021512725466535,0.6325458738853651,0.8051234926033934
0237,cdot_cos,T,S-T,184,36,33611,-0.09713022507573686,-0.0010589685239214845,-0.13514361112085532,8.334146797447718e-05,898.0,5.407168213755346,0.5983562272289074,8.116502064765964,-0.027556979052747527,0.269,0.999999999999616,206032.3776573918,0.9139636321955349,184,2026-10-08 00:46:49.695244,69.5,0.47529109855181734,0.18020289553193322,0.05471741325410697
0237,cdot_cos,P,T-P,185,37,34048,0.04266824012341225,0.0017363347334976192,0.13979846519914912,0.9999396924732734,919.0,5.489398387386172,0.5995493034601325,8.154755559858929,-0.15518127312672622,0.437,0.9999999999996159,-106.9707791789027,0.9189312098839052,185,2026-10-08 00:46:50.132244,69.5,0.43936678304357696,0.11198504907224073,0.18816973370898238
0237,cdot_cos,Q,P-Q,186,37,34159,-0.020529245223935347,-0.01663951021766807,-0.06319748534734759,0.012221941303412184,919.0,5.505043146644485,0.5995638787788329,8.176964659785563,-0.029788957414818323,0.111,0.9999999999996025,8603.058244505384,0.9238984229047599,186,2026-10-08 00:46:50.243244,69.5,0.014855937922446385,0.44161536337251606,0.14094377710191983
0237,cdot_cos,R,Q-R,187,37,34215,0.05697400771578873,0.11602699256437003,0.07750325293972407,0.9954427855553551,919.0,5.58743699805487,0.6007504038306835,8.215141787298876,-0.15812716544046662,0.056,0.9999999999996022,-108.16308330404368,0.9288655744833674,187,2026-10-08 00:46:50.299244,69.5,0.444140681568226,1.1273785906726261,1.4713187751854546
0237,cdot_cos,S,R-S,188,37,34242,0.05263132973165141,-0.12301580952180279,-0.004342677984137316,0.4251135777208519,919.0,5.631309548799819,0.6012567616518658,8.244020948602044,-0.08512066474911226,0.027,0.9999999999995954,144.17966433476332,0.933832693636899,188,2026-10-08 00:46:50.326244,69.5,0.4241439168782274,1.0897995822428963,1.6249092868499506
0237,cdot_cos,T,S-T,189,37,34510,-0.06468904827146003,0.00011513031558759863,-0.11732037800311144,0.0002875672305129021,919.0,5.6462861754959865,0.6012571041034438,8.26592215688244,-0.029209777542832722,0.268,0.9999999999995849,163266.54861825344,0.9388000948707909,189,2026-10-08 00:46:50.594244,69.5,0.1474722178259056,0.1834291038728882,0.055882935433461664
0237,cdot_cos,P,T-P,190,38,34967,0.04109584775028561,0.0007797474704781638,0.10578489602174565,0.9993591347516985,901.0,5.729627548475687,0.6024465978742503,8.304156952262703,-0.16379680750117806,0.457,0.9999999999995837,-113.14647731790745,0.9437677222723624,190,2026-10-08 00:46:51.051244,69.5,0.4396964598573232,0.10889391497420983,0.18236624284398326
0237,cdot_cos,Q,P-Q,191,38,35078,-0.0177710511896432,-0.01398337071785202,-0.05886689893992881,0.016443424720773592,901.0,5.745815213782414,0.6024661596918641,8.326251833033172,-0.03209260460877465,0.111,0.9999999999995708,6732.718068030772,0.9487349398130951,191,2026-10-08 00:46:51.162244,69.5,0.016508495593037707,0.4489301669336751,0.14583482258313007
0237,cdot_cos,R,Q-R,192,38,35131,0.05719670221129917,0.11747272406216641,0.07496775340094236,0.9945693924750317,901.0,5.829290045534963,0.6036487320389565,8.364406073365275,-0.1667590846968664,0.053,0.99999999999957,-113.87589133062083,0.9537020886707088,192,2026-10-08 00:46:51.215244,69.5,0.4459488200293492,0.9802778469843653,1.574996825519782
0237,cdot_cos,S,R-S,193,38,35159,0.021341779818891272,-0.06723077211192484,-0.035854922392407895,0.07642676709960776,901.0,5.849724665562757,0.6037395557985021,8.387421857406713,-0.04118581278555825,0.028,0.9999999999995591,1382.6037651331378,0.9586692079309419,193,2026-10-08 00:46:51.243244,69.5,0.04740892138810393,0.6351881918223524,0.7298078581355101
0237,cdot_cos,T,S-T,194,38,35429,-0.14210901044922594,-0.00662723749667004,-0.1634507902681172,1.1654227387071043e-05,901.0,5.8648605842770145,0.6037395696475646,8.409123040337233,-0.030599236826697948,0.27,0.9999999999995474,764425.4616698447,0.9636366241844736,194,2026-10-08 00:46:51.513243,69.5,0.7075300595795755,0.18443470142465374,0.05605895820095354
0237,cdot_cos,P,T-P,195,39,35868,0.04874817828781752,0.0036708493904919854,0.19085718873704346,0.9999982651270105,879.0,5.94931940433207,0.6049272826399463,8.447353779585095,-0.17201774803194547,0.439,0.9999999999995463,-119.06791633360743,0.9686042527793537,195,2026-10-08 00:46:51.952243,69.5,0.43950076752072026,0.11561326639805002,0.19238911174272338
0237,cdot_cos,Q,P-Q,196,39,35997,-0.003339023905921243,-0.004328324019080317,-0.05208720219373877,0.02608253693410589,879.0,5.966369032174502,0.6049582447587558,8.469419597622972,-0.03502248646435066,0.129,0.9999999999995329,4424.608742397342,0.9735714965735422,196,2026-10-08 00:46:52.081243,69.5,0.020007717210372273,0.38538094514604343,0.1321676576932741
0237,cdot_cos,R,Q-R,197,39,36044,0.04378803106183141,0.1288328307575889,0.04712705496775266,0.9635727307026324,879.0,6.048747688179749,0.6061014928775368,8.507044053634178,-0.17045778219514812,0.047,0.9999999999995315,-118.46535630009188,0.9785386380286755,197,2026-10-08 00:46:52.128243,69.5,0.45178962109484355,1.0722040215361048,1.7527373618137627
0237,cdot_cos,S,R-S,198,39,36076,-0.0005055789799599354,-0.005918488791735279,-0.044293610041791345,0.044006830909787034,879.0,6.067156210198896,0.606153677944342,8.529342512713438,-0.03840862888611578,0.032,0.9999999999995197,2530.401154832046,0.9835057611995782,198,2026-10-08 00:46:52.160243,69.5,0.032128638629504255,0.5267575924072232,0.5752663130983438
0237,cdot_cos,T,S-T,199,39,36347,-0.14977061868689173,-0.03214547373415592,-0.1492650397069318,3.123561849912425e-05,879.0,6.082460174093812,0.6061537149839326,8.55085464480544,-0.03201994383648671,0.271,0.9999999999995072,172482.6047583854,0.9884731912747037,199,2026-10-08 00:46:52.431243,69.5,0.8191221534832267,0.18600324232840065,0.056472191494152335
0237,cdot_cos,P,T-P,200,40,36747,0.06764489491367218,0.005822267949312046,0.2174155136005639,0.9999997260659546,897.0,6.167969967540889,0.6073388998933854,8.589073420508042,-0.18020241950395394,0.4,0.999999999999507,-125.02899293231515,0.9934407915554236,200,2026-10-08 00:46:52.831244,69.5,0.4394148851522745,0.12683893709269367,0.2137744836176947
0237,cdot_cos,Q,P-Q,201,40,36876,-0.0017984989442264888,-0.0022348484662481926,-0.06944339385789866,0.007952253633610393,897.0,6.1839313237679665,0.6073483197413619,8.610653034336543,-0.033915126106219856,0.129,0.9999999999994917,15529.68729030148,0.9984080400772332,201,2026-10-08 00:46:52.960243,69.5,0.013388826118183815,0.3882719977391603,0.1237314436207524
0237,cdot_cos,R,Q-R,202,40,36926,0.05106086181661116,0.14856261882507543,0.05285936076083765,0.9752465532660419,897.0,6.268144142957593,0.608502941196731,8.64845627894138,-0.1802003274854339,0.05,0.999999999999491,-126.69537769195365,1.0033751855497814,202,2026-10-08 00:46:53.010243,69.5,0.4440615522093385,1.0170163748109395,1.6842563837925262
0237,cdot_cos,S,R-S,203,40,36976,0.00010600407600419595,-0.0037768627279902572,-0.050954857740606964,0.028157975940444516,897.0,6.2856329612490605,0.6085362602430461,8.670311643634697,-0.037727446301382576,0.05,0.9999999999994785,4276.019182443011,1.0083423319989444,203,2026-10-08 00:46:53.060243,69.5,0.02290563686126321,0.32951701732728544,0.3497763658293529
0237,cdot_cos,T,S-T,204,40,37223,-0.20473441591382036,-0.03955711585742715,-0.20484041998982455,6.564562112391935e-07,897.0,6.301095844690321,0.6085362610198123,8.691640867320848,-0.03344459198784092,0.247,0.9999999999994654,5513698.041231061,1.0133097426923092,204,2026-10-08 00:46:53.307244,69.5,0.8798021714885805,0.20649167591303838,0.06260276696866761
0237,cdot_cos,P,T-P,205,41,37644,0.05028947532035266,0.0019314769630193681,0.255023891234173,0.9999999799324242,899.0,6.387639849150101,0.6097188928494821,8.729850662169325,-0.18849809019997638,0.421,0.9999999999994643,-131.10884919732345,1.0182773918674082,205,2026-10-08 00:46:53.728243,69.5,0.4392997437970785,0.12282835130800922,0.20556770655529705
0237,cdot_cos,Q,P-Q,206,41,37754,-0.006882878514824737,-0.007377564133265043,-0.057172353835177395,0.018460687568692853,899.0,6.404517316491665,0.6097407129736666,8.751430425241814,-0.03705902905455003,0.11,0.9999999999994496,6940.339104622947,1.0232446190478428,206,2026-10-08 00:46:53.838243,69.5,0.01679912977005746,0.46867511287025176,0.15343152128694273
0237,cdot_cos,R,Q-R,207,41,37811,0.05834121538941173,0.12785058675184935,0.06522409390423646,0.9893667007490451,899.0,6.490748373981557,0.6109094780842426,8.789461669309102,-0.19066279368234418,0.057,0.9999999999994488,-131.42398180597647,1.0282117744462287,207,2026-10-08 00:46:53.895243,69.5,0.44680611985508556,0.935766571760694,1.5128255699980997
0237,cdot_cos,S,R-S,208,41,37870,0.02040548454777479,-0.06228438273435083,-0.03793573084163694,0.06682388968215963,899.0,6.511194705672384,0.6109883731439764,8.811804517445704,-0.045578885448039314,0.059,0.999999999999436,1838.947948373939,1.033178933732096,208,2026-10-08 00:46:53.954243,69.5,0.041455340251529985,0.3057640268187151,0.34654799475978704
0237,cdot_cos,T,S-T,209,41,38104,-0.1464377150642546,-0.008186202962651141,-0.1668431996120294,9.206400774350211e-06,899.0,6.526828529146165,0.6109883840130351,8.8329615031841,-0.03494757302990457,0.234,0.9999999999994222,978126.3169926896,1.038146338323939,209,2026-10-08 00:46:54.188244,69.5,0.7377078058490779,0.2205353989631838,0.06681121142641432
0237,cdot_cos,P,T-P,210,42,38543,0.043193868475999715,0.0023258373961004154,0.1896315835402543,0.9999981108752761,919.0,6.614405272387154,0.6121683269014148,8.871166852911651,-0.19709857726069113,0.439,0.9999999999994222,-137.42275649752958,1.0431140357772521,210,2026-10-08 00:46:54.627244,69.5,0.43924853957622695,0.11981376395217057,0.1994914424623897
0237,cdot_cos,Q,P-Q,211,42,38672,-0.008837113856647568,-0.009222049496301897,-0.05203098233264728,0.026181974605220513,919.0,6.632025013896171,0.6121992025952421,8.892712274319987,-0.03997094130167339,0.129,0.9999999999994064,5089.039839487336,1.048081293938351,211,2026-10-08 00:46:54.756243,69.5,0.019623122739747513,0.4066893840239467,0.1365871434807495
0237,cdot_cos,R,Q-R,212,42,38716,0.057469674317189204,0.12330637391075018,0.06630678817383677,0.9901298571618067,919.0,6.7193311334653325,0.6133661725978964,8.93075151529046,-0.19940413358376308,0.044,0.999999999999406,-136.62150005523173,1.0530484310141832,212,2026-10-08 00:46:54.800243,69.5,0.44953207045759136,1.2324242210210496,1.9842299902082174
0237,cdot_cos,S,R-S,213,42,38772,0.02097866338976843,-0.06922524781707988,-0.03649101092742077,0.0733641504028568,919.0,6.740478345346023,0.6134525881981064,8.953051018830749,-0.048687817568488306,0.056,0.9999999999993925,1744.0868969135336,1.058015586628112,213,2026-10-08 00:46:54.856243,69.5,0.04524942812857332,0.3299371326204646,0.3776287835837642
0237,cdot_cos,T,S-T,214,42,39022,-0.13384768181815931,-0.001394320757163986,-0.15482634520792773,2.122242367839125e-05,919.0,6.7562840923188245,0.6134526131949563,8.974043329828335,-0.03648992197281007,0.25,0.9999999999993783,487977.3126327339,1.0629830261846713,214,2026-10-08 00:46:55.106244,69.5,0.7158524426613695,0.20881187927780687,0.06322298789120495
0237,cdot_cos,P,T-P,215,43,39462,0.05631194210912989,0.006077327095975167,0.1901596239272892,0.9999981789470569,938.0,6.844884284984927,0.614629796089896,9.012247266585426,-0.2058955891708023,0.44,0.9999999999993783,-143.90768666976362,1.067950749387265,215,2026-10-08 00:46:55.546243,69.5,0.4392113134062582,0.12022964336622693,0.20136407424114136
0237,cdot_cos,Q,P-Q,216,43,39590,-0.0013745132555291304,-0.001584091626024707,-0.05768645536465902,0.017824280221665243,938.0,6.862086178481104,0.6146507664491688,9.033490061419057,-0.040285168974888694,0.128,0.9999999999993616,7897.357314730614,1.0729180110048897,216,2026-10-08 00:46:55.674243,69.5,0.016392151899249696,0.40954460843142454,0.1343897929388868
0237,cdot_cos,R,Q-R,217,43,39641,0.05532213510007031,0.13176362071748954,0.05669664835559944,0.9809306056842364,938.0,6.949727704743371,0.6158041781350133,9.071367619257371,-0.20658573456141685,0.051,0.9999999999993606,-144.18144677003949,1.0778851582979336,217,2026-10-08 00:46:55.725244,69.5,0.44708998412302725,1.030356864328031,1.718461299260141
0237,cdot_cos,S,R-S,218,43,39670,-0.000742464788610378,-0.004219958726195847,-0.056064599888680684,0.019908684706328707,938.0,6.967182578642563,0.6158275740157264,9.092590798839678,-0.04145619073363636,0.029,0.9999999999993459,7058.060598477661,1.0828522731283674,218,2026-10-08 00:46:55.754244,69.5,0.018625381546061276,0.5761465063419947,0.601892203420413
0237,cdot_cos,T,S-T,219,43,39941,-0.1869317384171473,-0.011341833962791356,-0.18618927362853693,2.399723784776925e-06,938.0,6.983144202111207,0.6158275768357524,9.113421534659643,-0.03800067452450163,0.271,0.9999999999993308,1225349.0644317013,1.087819756945359,219,2026-10-08 00:46:56.025243,69.5,0.9130788641684506,0.19476348822011236,0.0588989795890912
0237,cdot_cos,P,T-P,220,44,40400,0.06019051056364232,-0.001125024520323872,0.24712224898078963,0.9999999652468748,918.0,7.072744389257864,0.6170020447461365,9.151625016637283,-0.21468153287282357,0.459,0.999999999999331,-150.43481119082927,1.092787533198082,220,2026-10-08 00:46:56.484244,69.5,0.439116518723937,0.1161147793709892,0.19520737940448188
0237,cdot_cos,Q,P-Q,221,44,40509,-0.0024743309103005397,-0.0022763802883201656,-0.06266484147394286,0.01267701789590717,918.0,7.089737569573775,0.61701692476552,9.172622000560345,-0.04102373783369992,0.109,0.9999999999993132,11670.535539251747,1.0977547698751766,221,2026-10-08 00:46:56.593244,69.5,0.014507273580152037,0.4881513327293623,0.1559007368432193
0237,cdot_cos,R,Q-R,222,44,40560,0.06651895378998166,0.12544545243858302,0.0689932847002822,0.9917971202322655,918.0,7.179161379792865,0.6181803939158202,9.210686439171486,-0.2172508499150192,0.051,0.9999999999993131,-151.46694008675152,1.1027219171807616,222,2026-10-08 00:46:56.644243,69.5,0.4443384181032947,1.041693486000159,1.7534080435115702
0237,cdot_cos,S,R-S,223,44,40590,-0.0009074588195222185,-0.0033406086074136924,-0.06742641260950387,0.009137982360518866,918.0,7.195990305145791,0.6181911073319118,9.231567904710074,-0.04118908543966734,0.03,0.9999999999992979,16433.76519403336,1.107689032263939,223,2026-10-08 00:46:56.674243,69.5,0.0139193380752912,0.5490920405705129,0.560964178430871
0237,cdot_cos,T,S-T,224,44,40858,-0.18664489144643387,0.004850493857078209,-0.18573743262691164,2.4762777219782234e-06,918.0,7.212106902227096,0.6181911102350965,9.252243367042958,-0.03953605327088994,0.268,0.9999999999992819,569385.8103355183,1.1126565249248914,224,2026-10-08 00:46:56.942244,69.5,0.9590512607098551,0.19907599334462592,0.06013655627352477
0237,cdot_cos,P,T-P,225,45,41318,0.05642896331401744,-0.00038364336299747385,0.24307385476045132,0.9999999539543688,937.0,7.302695037578511,0.6193628185892837,9.290448431512269,-0.22360585355007492,0.46,0.9999999999992818,-157.09523587623897,1.117624328116465,225,2026-10-08 00:46:57.402244,69.5,0.4390295096324908,0.11731862786855142,0.1969307290248149
0237,cdot_cos,Q,P-Q,226,45,41428,-0.0036024580673961913,-0.0032584082118163886,-0.06003142138141363,0.01518443057278957,937.0,7.320040039866163,0.6193805996421816,9.311338509232405,-0.043131645124081464,0.11,0.9999999999992638,10149.804371073913,1.1225915700239792,226,2026-10-08 00:46:57.512243,69.5,0.0152334070852032,0.4899357157991007,0.1576818389786587
0237,cdot_cos,R,Q-R,227,45,41482,0.06637234114402463,0.126301368051196,0.06997479921142082,0.9923338765183204,937.0,7.410480895054313,0.6205419319650329,9.349413337239774,-0.2262882887105973,0.054,0.9999999999992637,-157.7125168933795,1.127558722242322,227,2026-10-08 00:46:57.566243,69.5,0.4451272196168703,1.0091658575713855,1.6748306516324019
0237,cdot_cos,S,R-S,228,45,41528,0.01631877300606701,-0.05042351041012556,-0.05005356813795762,0.029923727113795203,937.0,7.429029952483873,0.6205769304595287,9.370512594949611,-0.046752550915940154,0.046,0.9999999999992474,5129.813164293657,1.1325258623890577,228,2026-10-08 00:46:57.612243,69.5,0.021490869668985314,0.3785791433798704,0.4032403789034766
0237,cdot_cos,T,S-T,229,45,41777,-0.11867844016719928,0.01019560280520181,-0.1349972131732663,8.419369567125271e-05,937.0,7.445310176245261,0.6205770289298705,9.391040968941224,-0.04113030570071818,0.249,0.9999999999992312,57095.82304533637,1.1374933374436464,229,2026-10-08 00:46:57.861243,69.5,0.8722375307836225,0.21656188961709172,0.06538242474453075
0237,cdot_cos,P,T-P,230,46,42255,0.03506583827330955,-0.00016537841308652025,0.15374427844050884,0.9999771200649873,920.0,7.536877773513185,0.6217458687442846,9.429249523555852,-0.2327330337570081,0.478,0.999999999999231,-163.92556592738845,1.1424611967431464,230,2026-10-08 00:46:58.339243,69.5,0.43899265709693824,0.11398996313512891,0.1915640110207605
0237,cdot_cos,Q,P-Q,231,46,42367,-0.0263999817092794,-0.01898914997493865,-0.061465819982588946,0.013763520828569705,920.0,7.554284581002444,0.6217619466342641,9.449970256870573,-0.04456313208011086,0.112,0.9999999999992121,11703.644067538085,1.147428445689271,231,2026-10-08 00:46:58.451244,69.5,0.014661260615012795,0.4875412690439657,0.15541792401124743
0237,cdot_cos,R,Q-R,232,46,42418,0.05981691721520367,0.11406712210983691,0.08621689892448307,0.997507751178419,920.0,7.646087017779033,0.6229264730721428,9.488140211797097,-0.2364370980346183,0.051,0.9999999999992123,-164.76565899528106,1.1523955929237977,232,2026-10-08 00:46:58.502244,69.5,0.4441813958659244,1.4073206668980778,1.8000477799331103
0237,cdot_cos,S,R-S,233,46,42447,0.057819824414329035,-0.13898729784763042,-0.0019970928008746364,0.46535611223715734,920.0,7.697831289026048,0.6234692622880303,9.516852115017624,-0.13444926670292753,0.029,0.9999999999992039,187.89583202186392,1.157362703813132,233,2026-10-08 00:46:58.531244,69.5,0.46834036716551253,1.177027046973985,1.7842852154143207
0237,cdot_cos,T,S-T,234,46,42715,-0.05934704870992844,0.0013345019618377556,-0.11716687312425747,0.00029065069428800376,920.0,7.714354586503524,0.623469601204992,9.537257851106055,-0.043124178039859185,0.268,0.9999999999991867,269461.5466579563,1.1623302279945824,234,2026-10-08 00:46:58.799244,69.5,0.12030518226634926,0.20349691694431188,0.06165409506520831
0237,cdot_cos,P,T-P,235,47,43175,0.04335855747699036,0.002821746610633541,0.1027056061869188,0.9992063227157945,919.0,7.8069056365081995,0.6246340223644233,9.575465241735976,-0.24295914037668637,0.46,0.999999999999187,-171.6174261505276,1.1672980901953625,235,2026-10-08 00:46:59.259244,69.5,0.43933001687092865,0.11980732117143368,0.20119793479277248
0237,cdot_cos,Q,P-Q,236,47,43305,-0.017728906620798974,-0.01481926397795924,-0.06108746409778934,0.014125063220296845,919.0,7.824577321981243,0.6246504726589962,9.596069903268658,-0.04671922510783246,0.13,0.9999999999991677,11929.264512535066,1.1722653763324167,236,2026-10-08 00:46:59.389244,69.5,0.014989425102860748,0.4237697133059582,0.13593604210033577
0237,cdot_cos,R,Q-R,237,47,43350,0.05398560503161809,0.12309876451498937,0.07171451165241706,0.9932010070357602,919.0,7.917085761967749,0.625806448521587,9.63417512966202,-0.24598728795566313,0.045,0.999999999999167,-172.3808163271114,1.1772325135004102,237,2026-10-08 00:46:59.434243,69.5,0.444824864860789,1.4095628288797672,2.055743110811233
0237,cdot_cos,S,R-S,238,47,43383,0.03664469929665428,-0.08302796559180228,-0.01734090573496381,0.23055270826925095,919.0,7.951437976580422,0.6260745816548287,9.658615549473897,-0.09205486710263501,0.033,0.9999999999991532,574.089516621846,1.182199630356107,238,2026-10-08 00:46:59.467244,69.5,0.1878369030780823,0.773385069503785,1.0409762003840475
0237,cdot_cos,T,S-T,239,47,43655,-0.10507780771181678,-0.004974976145401158,-0.14172250700847105,5.275948465074779e-05,919.0,7.968129176554998,0.6260746430053313,9.678886427394394,-0.044871892894785485,0.272,0.9999999999991356,769072.3327146677,1.1871671776288615,239,2026-10-08 00:46:59.739244,69.5,0.34941184344889203,0.20274471472444608,0.06136470578888324
0237,cdot_cos,P,T-P,240,48,44094,0.049806287440670574,0.003046840846831188,0.15488409515248736,0.999978862582584,917.0,8.06173110139052,0.6272367219066761,9.717116987263394,-0.25305998088104387,0.439,0.9999999999991359,-179.15142228753814,1.1921350315365917,240,2026-10-08 00:47:00.178244,69.5,0.4392516578438175,0.12782099892389673,0.21321622969367296
0237,cdot_cos,Q,P-Q,241,48,44224,-0.003545710623634246,-0.004276826555938106,-0.05335199806430482,0.023940221853940725,917.0,8.08035601361018,0.6272645249753603,9.737771801994612,-0.05070489602551572,0.13,0.9999999999991156,7278.156492502311,1.197102323764149,241,2026-10-08 00:47:00.308243,69.5,0.018484196341129428,0.42733897068432114,0.14326855553583764
0237,cdot_cos,R,Q-R,242,48,44268,0.05255615929603192,0.11970870986094781,0.05610186991966617,0.9801417946359597,917.0,8.172839233768444,0.6284020921218975,9.775650167006303,-0.2531960493888614,0.044,0.9999999999991152,-178.00369321472655,1.2020694589894774,242,2026-10-08 00:47:00.352243,69.5,0.44944554775900136,1.3572311218383064,2.1018913672332866
0237,cdot_cos,S,R-S,243,48,44302,0.02523477565880759,-0.06093548017404497,-0.02732138363722433,0.13024025447610377,917.0,8.19979235233195,0.6285531441512939,9.798181631821004,-0.07432084770515641,0.034,0.9999999999990992,1184.1959515433368,1.2070365766990605,243,2026-10-08 00:47:00.386244,69.5,0.09010342399894275,0.6442462015357834,0.7927387812795985
0237,cdot_cos,T,S-T,244,48,44573,-0.1369588183437785,-0.005354229365036671,-0.16219359400258607,1.271831469228276e-05,917.0,8.216647975472878,0.6285531589007087,9.818322020901798,-0.046602265637985675,0.271,0.9999999999990806,1879300.4632297484,1.2120041377408393,244,2026-10-08 00:47:00.657243,69.5,0.5516781636280502,0.20558006856515026,0.06219787136873403
0237,cdot_cos,P,T-P,245,49,45011,0.059562954019868136,0.0008853129853087976,0.19652177236364662,0.9999988297162878,879.0,8.311216749494262,0.6297121139458614,9.85656161266245,-0.26289988854279134,0.438,0.9999999999990807,-186.63159007718178,1.2169720171887104,245,2026-10-08 00:47:01.095244,69.5,0.43922757842796545,0.1284537824827683,0.21591044297119755
0237,cdot_cos,Q,P-Q,246,49,45122,-0.0027572956185453012,-0.0027834401907241217,-0.062320249638413434,0.012980297762393128,879.0,8.329173488927783,0.6297271477576843,9.876892611601319,-0.05025853260168059,0.111,0.9999999999990594,14144.207633080772,1.2219392789867682,246,2026-10-08 00:47:01.206244,69.5,0.014538567299999012,0.5028434564119998,0.16177242732901348
0237,cdot_cos,R,Q-R,247,49,45177,0.055896711760209154,0.1309308385575705,0.05865400737875445,0.983315559597342,879.0,8.422847996817726,0.6308652932416318,9.914834626687918,-0.26360551364647167,0.055,0.9999999999990593,-187.45141465117638,1.2269064351453352,247,2026-10-08 00:47:01.261244,69.5,0.44515093417475776,1.022774880550579,1.703172870726245
0237,cdot_cos,S,R-S,248,49,45223,0.0019422383016502863,-0.017990246524583843,-0.05395447345855887,0.02298105402609228,879.0,8.441678725788346,0.6308918754774362,9.935303489244665,-0.05334507727154856,0.046,0.9999999999990397,7909.8100672138535,1.231873575055928,248,2026-10-08 00:47:01.307244,69.5,0.01941876786308994,0.3895515638917208,0.40936367327435247
0237,cdot_cos,T,S-T,249,49,45470,-0.1353304450434431,-0.017741530464521198,-0.13727268334509338,7.187921807660717e-05,879.0,8.458686740695764,0.63089195861904,9.955315500823318,-0.048283947163052156,0.247,0.9999999999990207,60873.61652561239,1.236841104379674,249,2026-10-08 00:47:01.554244,69.5,0.900486469385699,0.22776132539377375,0.06885835994906114
0237,cdot_cos,P,T-P,250,50,45890,0.05056883800270659,0.003758089734413003,0.1858992830461497,0.9999975514208007,898.0,8.55419282053287,0.6320478866879581,9.993563013524074,-0.2725802956597473,0.42,0.9999999999990216,-194.04005710029486,1.2418089748930516,250,2026-10-08 00:47:01.974244,69.5,0.43917232693173,0.13623055948477453,0.22739542818358602
0237,cdot_cos,Q,P-Q,251,50,46020,-0.0031695633609263993,-0.004061150121053607,-0.05373840136363299,0.023320656164999724,898.0,8.573120410662975,0.632074825717234,10.013957236650343,-0.05438223822936486,0.13,0.9999999999989994,8099.7000744152265,1.2467762784532828,251,2026-10-08 00:47:02.104243,69.5,0.01809166882622467,0.4355104244750257,0.14559684715464982
0237,cdot_cos,R,Q-R,252,50,46065,0.052551348526242665,0.13562777277646085,0.055720911887169065,0.979619853510555,898.0,8.667425530896377,0.6332056945592379,10.051837558729622,-0.27239429097360657,0.045,0.9999999999989991,-192.78279199726651,1.2517434151594906,252,2026-10-08 00:47:02.149244,69.5,0.4491696125755054,1.3669056112176194,2.0956693385200493
0237,cdot_cos,S,R-S,253,50,46121,0.027138214772963062,-0.05740062921884825,-0.025413133753279603,0.1460139372585907,898.0,8.69614191567256,0.6333741272042002,10.074441013833134,-0.08352117267066315,0.056,0.9999999999989821,1121.3569575261295,1.2567105751266368,253,2026-10-08 00:47:02.205244,69.5,0.10420656936209353,0.4096987251370595,0.5127925852889919
0237,cdot_cos,T,S-T,254,50,46350,-0.13929350792377276,-0.014244315627686778,-0.16643172269673584,9.473480389170377e-06,898.0,8.713311788111728,0.6333741381311643,10.094331520024761,-0.0500702982887848,0.229,0.999999999998962,3061314.564696493,1.2616780828679237,254,2026-10-08 00:47:02.434243,69.5,0.5126929287002292,0.24808847220208918,0.07497760890465992
0237,cdot_cos,P,T-P,255,51,46788,0.05271789502807663,0.003683630253452071,0.1920114029518494,0.9999983988590776,901.0,8.809766435941118,0.6345267968799294,10.132589330933085,-0.28273747649220776,0.438,0.9999999999989625,-201.85261115025057,1.266646017173419,255,2026-10-08 00:47:02.872243,69.5,0.439152356211738,0.13169026814771395,0.22021609093467975
0237,cdot_cos,Q,P-Q,256,51,46918,-0.002751234523040404,-0.0035181925343703356,-0.05546912955111703,0.020732455782061482,901.0,8.828672463009125,0.6345506781144027,10.152820086313671,-0.05578255613425153,0.13,0.9999999999989398,9503.483608098779,1.2716133268164553,256,2026-10-08 00:47:03.002244,69.5,0.01710192292490549,0.43907036827559925,0.14543097744621308
0237,cdot_cos,R,Q-R,257,51,46963,0.053141266901184904,0.12945689324926976,0.055892501424225305,0.9798565862995194,901.0,8.923924731692773,0.6356785956632286,10.190712424147222,-0.28249047200733074,0.045,0.9999999999989398,-200.9968867928938,1.2765804634266367,257,2026-10-08 00:47:03.047244,69.5,0.44819227012395124,1.413819253831012,2.116717081858847
0237,cdot_cos,S,R-S,258,51,47019,0.031669454381607884,-0.06943451328725816,-0.02147181251957702,0.1835781143170113,901.0,8.955916195853916,0.6358897480317177,10.213911067082961,-0.09553376770093272,0.056,0.999999999998923,885.4113531576654,1.2815476241573613,258,2026-10-08 00:47:03.103244,69.5,0.14128588852481416,0.4404709839448089,0.5712761457346957
0237,cdot_cos,T,S-T,259,51,47267,-0.12379413736010905,-0.011046162122567536,-0.15546359174171692,2.0303040002811514e-05,901.0,8.973257481894592,0.6358897713814726,10.233686705716933,-0.051927909337802204,0.248,0.9999999999989023,1867508.1831106034,1.2865151851628516,259,2026-10-08 00:47:03.351244,69.5,0.43182348315147834,0.23133123427063107,0.06992454048659533
0237,cdot_cos,P,T-P,260,52,47689,0.04649360203441035,0.0021078488511622703,0.1702877393945194,0.9999927535954364,896.0,9.07065648805215,0.6370390469462399,10.271955470272907,-0.2931267999430684,0.422,0.9999999999989024,-209.8703722584621,1.2914831150984687,260,2026-10-08 00:47:03.773243,69.5,0.4391789555205106,0.13837722671424238,0.2308033321269132
0237,cdot_cos,Q,P-Q,261,52,47799,-0.006537749417901584,-0.0070362744881453596,-0.053031351452311935,0.024466517661318566,896.0,9.090047861241413,0.6370671463704782,10.29214450768262,-0.058735038391542566,0.11,0.9999999999988791,8341.514742922112,1.2964503886969991,261,2026-10-08 00:47:03.883244,69.5,0.018487447511268875,0.5287982533719557,0.17628521081148368
0237,cdot_cos,R,Q-R,262,52,47858,0.05871227058831055,0.13061667520653117,0.06525002000621213,0.9893856400723383,896.0,9.18699210379398,0.6382026546672078,10.330222248732557,-0.2951183061192081,0.059,0.9999999999988792,-208.1739679124135,1.3014175553120295,262,2026-10-08 00:47:03.942244,69.5,0.4488897395753261,1.022153009305376,1.6431227551282555
0237,cdot_cos,S,R-S,263,52,47898,0.022851298924823175,-0.06181565062742122,-0.035860971663487375,0.07639709643059217,896.0,9.210661916339447,0.6382902709026045,10.351338540143344,-0.07252373162125092,0.04,0.9999999999988591,2540.563098725019,1.3063846823167338,263,2026-10-08 00:47:03.982244,69.5,0.046455271982729494,0.5145945096642457,0.5917453136366824
0237,cdot_cos,T,S-T,264,52,48148,-0.12117530285853777,-0.009273508651873466,-0.14402660178336094,4.4952967657628165e-05,896.0,9.22815966456712,0.6382903224543416,10.371000050490093,-0.05373264963327993,0.25,0.9999999999988382,364509.19104865973,1.3113522622820406,264,2026-10-08 00:47:04.232243,69.5,0.7048893687075832,0.2316362256673301,0.06999099291068944
0237,cdot_cos,P,T-P,265,53,48585,0.04974485895235711,0.00047413758994315657,0.17092016181089487,0.9999930651988684,880.0,9.326480029173112,0.639436317666508,10.40927912065551,-0.3034027844724863,0.437,0.9999999999988384,-217.8631570085064,1.316320252138876,265,2026-10-08 00:47:04.669244,69.5,0.43915627682139285,0.13368165781284758,0.2249893926910588
0237,cdot_cos,Q,P-Q,266,53,48697,-0.014277972549110146,-0.013967098440969605,-0.06402283150146726,0.011548468373416776,880.0,9.344997433495548,0.639449543002969,10.429116770447541,-0.057501033720481994,0.112,0.9999999999988145,18593.232125140297,1.3212875346132018,266,2026-10-08 00:47:04.781244,69.5,0.013891539328111154,0.5193769766820923,0.16533396716460796
0237,cdot_cos,R,Q-R,267,53,48753,0.05049482207369103,0.11890836395178464,0.06477279462280117,0.9890316146994985,880.0,9.4428204719499,0.6405813978843679,10.467196677874353,-0.30523661619508063,0.056,0.9999999999988147,-218.8757468346264,1.3262546953876082,267,2026-10-08 00:47:04.837244,69.5,0.4441387943625841,1.395405507174287,1.7468399723991532
0237,cdot_cos,S,R-S,268,53,48797,0.05059242284488623,-0.10074397512256024,9.760077119520122e-05,0.5016958068971579,880.0,9.501282850299068,0.6411549455757104,10.496169228056978,-0.18380816583914755,0.044,0.9999999999988041,211.71465283330903,1.331221831096939,268,2026-10-08 00:47:04.881243,69.5,0.516527895263749,0.8656522403972623,1.3286904170265357
0237,cdot_cos,T,S-T,269,53,49047,-0.08821730948304002,-0.011110920036918843,-0.13880973232792626,6.459710283219883e-05,880.0,9.51899786910486,0.6411550193983411,10.515734608003447,-0.05592075234727455,0.25,0.9999999999987816,1732360.5555954063,1.3361894294940164,269,2026-10-08 00:47:05.131244,69.5,0.10157679707311515,0.234012646167713,0.07086007522316606
0237,cdot_cos,P,T-P,270,54,49465,0.05202616216330769,0.0028941594586076804,0.1402434716463477,0.999941529005788,878.0,9.618289173382925,0.6422969659964417,10.554026699743426,-0.31491571891842507,0.418,0.9999999999987825,-226.80129438796018,1.3411574113331801,270,2026-10-08 00:47:05.549243,69.5,0.4393643346472147,0.14210791896913422,0.23753900544991624
0237,cdot_cos,Q,P-Q,271,54,49595,-0.0032780757552146075,-0.004337754156396182,-0.05530423791852229,0.020966405562422703,878.0,9.637800089363056,0.64232089268381,10.573947316085155,-0.06226383728886528,0.13,0.9999999999987572,10559.417513203081,1.346124741283027,271,2026-10-08 00:47:05.679244,69.5,0.017287652126548297,0.4506477183092067,0.15008396907793242
0237,cdot_cos,R,Q-R,272,54,49635,0.04957592156230257,0.12748308047269033,0.05285399731751717,0.9752375529959586,878.0,9.735457580143319,0.6434330402459162,10.61178053941283,-0.31310998636901216,0.04,0.9999999999987573,-225.55113874016007,1.3510918666714942,272,2026-10-08 00:47:05.719244,69.5,0.44881527993618253,1.5227425127989136,2.4414372695065634
0237,cdot_cos,S,R-S,273,54,49694,0.013745580045786415,-0.045583314586898176,-0.03583034151651615,0.07654744097430988,878.0,9.759619490386969,0.6435202686602806,10.632710834239925,-0.07794670197250697,0.059,0.9999999999987357,2695.9481736556636,1.35605903718722,273,2026-10-08 00:47:05.778244,69.5,0.04894904469655764,0.356109177698483,0.40952390243475517
0237,cdot_cos,T,S-T,274,54,49926,-0.15879861794076056,-0.028662687979661816,-0.17254419798654697,6.194628857331866e-06,878.0,9.77747846311174,0.6435202757188857,10.65216698934131,-0.05773752182937698,0.232,0.9999999999987128,2863055.7636361807,1.3610266087280385,274,2026-10-08 00:47:06.010243,69.5,0.704675305032749,0.2544314837075791,0.07697833071021741
0237,cdot_cos,P,T-P,275,55,50343,0.053993120745556226,0.003978777597519855,0.2127917386863168,0.9999996222473485,880.0,9.877675698827286,0.644658933071153,10.690470182630182,-0.3254256946255149,0.417,0.9999999999987134,-235.0910677941224,1.3659946156860032,275,2026-10-08 00:47:06.427244,69.5,0.43929747375032147,0.14352387738248806,0.24028114080466736
0237,cdot_cos,Q,P-Q,276,55,50474,-0.0028572677370402857,-0.0037878863726218143,-0.05685038848259651,0.018870548199586498,880.0,9.897177376848735,0.6446804044813821,10.710246784196094,-0.0637225855310043,0.131,0.9999999999986876,12188.445300138668,1.3709619541376312,276,2026-10-08 00:47:06.558244,69.5,0.016458505088550696,0.45189844038159227,0.14886777115609734
0237,cdot_cos,R,Q-R,277,55,50517,0.0528380279255082,0.14058289944051536,0.05569529566254849,0.9795842792660183,880.0,9.996073090207263,0.6457942000572866,10.748169168682608,-0.32462148031245774,0.043,0.9999999999986873,-234.24306975683226,1.3759290861309204,277,2026-10-08 00:47:06.601243,69.5,0.44766867614275974,1.7147527702025946,2.299900310663452
0237,cdot_cos,S,R-S,278,55,50575,0.04510780850396171,-0.07522129083109892,-0.007730219421546489,0.36882747576958724,880.0,10.044646115086158,0.6462131513207588,10.774538019942899,-0.16053518396796113,0.058,0.9999999999986726,391.65962881829864,1.3808962554872346,278,2026-10-08 00:47:06.659244,69.5,0.35983112254920524,0.5743540619792197,0.8374659461878396
0237,cdot_cos,T,S-T,279,55,50804,-0.10581322930930322,-0.01700456723258749,-0.15092103781326494,2.7839909636489107e-05,880.0,10.062698161396852,0.6462131829356597,10.79389982785383,-0.05986088809120168,0.229,0.9999999999986486,3184393.8555093235,1.385863836076318,279,2026-10-08 00:47:06.888243,69.5,0.18603801434881076,0.2602276293075164,0.07882989655325236
0237,cdot_cos,P,T-P,280,56,51223,0.04678633864668945,0.0033791064313059248,0.15259956795599267,0.9999752254774101,879.0,10.163830369309,0.6473479247361597,10.83221443991529,-0.33685210239073754,0.419,0.9999999999986495,-244.10065283352296,1.3908318800060058,280,2026-10-08 00:47:07.307244,69.5,0.4394227862925276,0.1443871429986931,0.24136565134164134
0237,cdot_cos,Q,P-Q,281,56,51353,-0.008657581149831534,-0.009959622600807086,-0.05544391979652098,0.02076805744274232,879.0,10.183694587229757,0.647371474145205,10.851935532024543,-0.0665577403199658,0.13,0.9999999999986227,11477.755622236058,1.3957992236723866,281,2026-10-08 00:47:07.437243,69.5,0.017230904013428562,0.46169662554835444,0.15280167631351615
0237,cdot_cos,R,Q-R,282,56,51397,0.050547133831289615,0.13456148687340583,0.05920471498112115,0.9839320097817168,879.0,10.283871491951572,0.6484863565753077,10.889949993265345,-0.33714835476121835,0.044,0.9999999999986229,-242.7077574595223,1.4007663582616636,282,2026-10-08 00:47:07.481244,69.5,0.44816841415563297,1.6403300910296466,2.2767478345867063
0237,cdot_cos,S,R-S,283,56,51453,0.03907549968829541,-0.07480629431124253,-0.011471634142994201,0.3106079592725041,879.0,10.328043635240366,0.648837967675677,10.915156333265674,-0.14964249041735805,0.056,0.9999999999986056,533.2762934586607,1.4057335240325863,283,2026-10-08 00:47:07.537244,69.5,0.2856392713499409,0.5571824687578156,0.7887882730141753
0237,cdot_cos,T,S-T,284,56,51701,-0.12526323664184916,-0.02108878304047883,-0.16433873633014456,1.0956768861970887e-05,879.0,10.346275928452448,0.6488379800759955,10.93442427398935,-0.061952789643414996,0.248,0.9999999999985809,7071568.460691048,1.4107011675945393,284,2026-10-08 00:47:07.785243,69.5,0.24282171199900882,0.2425142998707377,0.07351731133903842
0237,cdot_cos,P,T-P,285,57,52102,0.05510208051594506,-0.0006174542512655935,0.18036531715779422,0.9999964029379379,879.0,10.448330727976252,0.6499688871702631,10.972750184985436,-0.34827921442827625,0.401,0.9999999999985816,-253.18297695380218,1.4156691981299516,285,2026-10-08 00:47:08.186244,69.5,0.43950004268610243,0.1517840366175994,0.2545007469421555
0237,cdot_cos,Q,P-Q,286,57,52211,-0.003989980963303757,-0.003921959272433915,-0.05909206147924882,0.016192241978111244,879.0,10.468006725819762,0.649987185333532,10.992293549840758,-0.0675391606246725,0.109,0.9999999999985537,15342.526442643539,1.4206364962019127,286,2026-10-08 00:47:08.295244,69.5,0.015659142179759025,0.556096439218842,0.18051374168358142
0237,cdot_cos,R,Q-R,287,57,52265,0.06146493978883125,0.13314449246277218,0.065454920752135,0.989534153015454,879.0,10.56955975172596,0.6511045762592501,11.030423919509408,-0.3500890870263266,0.054,0.9999999999985539,-252.86577857257507,1.425603656508799,287,2026-10-08 00:47:08.349244,69.5,0.4461589169510691,1.1626634691831985,1.8806115908555037
0237,cdot_cos,S,R-S,288,57,52292,0.02348484118824239,-0.061474048514883826,-0.03798009860058886,0.06663186033445505,879.0,10.593574380491548,0.6511797580682456,11.05089985847477,-0.08327274351884786,0.027,0.9999999999985296,3548.948170741486,1.4305707489895478,288,2026-10-08 00:47:08.376243,69.5,0.04059437492079205,0.7850198745441367,0.8894306950217867
0237,cdot_cos,T,S-T,289,57,52560,-0.14220710867918776,-0.015665196618318545,-0.16569194986743016,9.973285505375285e-06,879.0,10.611950824951343,0.6511797693207022,11.070068995730429,-0.0638495186241262,0.268,0.9999999999985041,1726131.9486024266,1.4355384594300045,289,2026-10-08 00:47:08.644243,69.5,0.7377109828916081,0.22632203182150085,0.06856882261117589
0237,cdot_cos,P,T-P,290,58,52981,0.058963205770394295,-0.0010414657231359596,0.20117031444958205,0.9999991528073356,859.0,10.714882989547872,0.652307179200391,11.108404117688163,-0.3591447693157265,0.421,0.9999999999985045,-261.9235967429157,1.4405065688380536,290,2026-10-08 00:47:09.065243,69.5,0.43945591256896077,0.1455534654595258,0.24449445272334755
0237,cdot_cos,Q,P-Q,291,58,53091,-0.0025276874701215496,-0.0026018179791656108,-0.06149089324051584,0.01373988677351636,859.0,10.734506842868264,0.6523226578495203,11.127804463158165,-0.06886247058088321,0.11,0.9999999999984753,18753.723035628715,1.4454738741793034,291,2026-10-08 00:47:09.175244,69.5,0.014766534049983484,0.5533045273849588,0.17839866654901276
0237,cdot_cos,R,Q-R,292,58,53144,0.058497657754026,0.13922695637083254,0.06102534522414755,0.9858146902714097,859.0,10.836609985572563,0.6534323844512981,11.165871061132243,-0.3597862262995841,0.053,0.9999999999984754,-262.15804438013345,1.4504410323217187,292,2026-10-08 00:47:09.228243,69.5,0.4454805445098488,1.1510171757093481,1.9264743906471613
0237,cdot_cos,S,R-S,293,58,53189,-0.0007229695277994754,-0.007766023600300344,-0.05922062728182548,0.016050515426042692,859.0,10.856514663493455,0.6534504386757847,11.18528340526444,-0.07053420647684298,0.045,0.999999999998449,16021.292968775657,1.4554081706246957,293,2026-10-08 00:47:09.273243,69.5,0.016558167545209064,0.42683835486852695,0.44232617601980767
0237,cdot_cos,T,S-T,294,58,53439,-0.19900185095375264,-0.12105864750606349,-0.19827888142595315,1.0357515133697202e-06,859.0,10.87502543751073,0.6534504398408227,11.204354678986748,-0.06571093312106757,0.25,0.9999999999984223,4140013.5295602586,1.460375849861278,294,2026-10-08 00:47:09.523244,69.5,0.9292277791203774,0.24460871290104436,0.07404309606910431
0237,cdot_cos,P,T-P,295,59,53840,0.06989248626160095,0.005045961999297714,0.2688943372153536,0.9999999923469108,876.0,10.978819019943977,0.6545744047386735,11.24269843844538,-0.3699610757416997,0.401,0.9999999999984228,-270.6936339403746,1.4653439341010208,295,2026-10-08 00:47:09.924243,69.5,0.43938282897080494,0.15335510673490776,0.25883686392330696
0237,cdot_cos,Q,P-Q,296,59,53967,-0.0012783262331295005,-0.001656675360793818,-0.07117081249473045,0.007058974623844553,876.0,10.998016233112127,0.6545823326600704,11.261874484003528,-0.0688108138059088,0.127,0.9999999999983932,37986.03024151023,1.470311289632447,296,2026-10-08 00:47:10.051244,69.5,0.01256932253236684,0.4779598244606089,0.15115915880433015
0237,cdot_cos,R,Q-R,297,59,54017,0.05273037061524642,0.15389843172806483,0.05400869684837592,0.9771034084624406,876.0,11.100220815356971,0.6556788849078494,11.29977957682263,-0.3678129249213723,0.05,0.9999999999983923,-272.67475099436535,1.47527843998046,297,2026-10-08 00:47:10.101243,69.5,0.44356142372727336,1.2303571285921144,2.044091644896895
0237,cdot_cos,S,R-S,298,59,54069,0.00012653752133919878,-0.0018765086927291597,-0.052603833093907225,0.02518580356184283,876.0,11.121051945971338,0.65570712777232,11.319274337526462,-0.07538140024840015,0.052,0.9999999999983649,10354.173705637215,1.4802455969909758,298,2026-10-08 00:47:10.153243,69.5,0.020664063537491156,0.3795674395071353,0.4005986656608981
0237,cdot_cos,T,S-T,299,59,54319,-0.2321099976986488,-0.1718476115294711,-0.232236535219988,9.779041258105042e-08,876.0,11.139695829065714,0.655707127881978,11.338250508543585,-0.06758628876953726,0.25,0.9999999999983373,71085622.43147472,1.4852132913640699,299,2026-10-08 00:47:10.403244,69.5,0.8910669684030564,0.2465818118420522,0.07457553237750147
0237,cdot_cos,P,T-P,300,60,54716,0.04983002124476752,0.0023738981106883154,0.2819400189434163,0.999999996909186,900.0,11.244342851892364,0.6568276174446678,11.37660259698214,-0.3808668602487284,0.397,0.9999999999983377,-279.5925833768255,1.4901813912866422,300,2026-10-08 00:47:10.800243,69.5,0.4393116736572492,0.15732003796088614,0.2635945159361479
0237,cdot_cos,Q,P-Q,301,60,54828,-0.007832518569435577,-0.008652027319128763,-0.0576625398142031,0.01785340177128677,900.0,11.264607939206657,0.656847606174952,11.395894969498729,-0.07416515165568545,0.112,0.9999999999983074,15343.731404269562,1.4951487114912139,301,2026-10-08 00:47:10.912243,69.5,0.015996450739393247,0.5546221633626455,0.18093827959190076
0237,cdot_cos,R,Q-R,302,60,54884,0.05548713692886824,0.12687576233341358,0.06331965549830382,0.9878801413404027,900.0,11.368578216485597,0.6579527720102218,11.434015106827037,-0.3820144630382456,0.056,0.999999999998307,-278.554857160768,1.5001158787079993,302,2026-10-08 00:47:10.968243,69.5,0.44670460630425934,1.6396202989548136,1.8566120942667803
0237,cdot_cos,S,R-S,303,60,54943,0.06794637788571412,-0.12291152688474057,0.012459240956845877,0.7038954523580763,900.0,11.448245412689596,0.6587391933173129,11.46661909452305,-0.29476694076128673,0.059,0.9999999999982996,110.94247000972577,1.5050830564435271,303,2026-10-08 00:47:11.027244,69.5,0.7437962399350928,0.8352513970511558,1.350291461084736
0237,cdot_cos,T,S-T,304,60,55178,-0.055323916941315235,-0.002131446895152098,-0.12327029482702935,0.00019019214626005994,900.0,11.467137881337633,0.6587394056901484,11.485529039167513,-0.07020372644509938,0.235,0.999999999998271,1057400.8382265891,1.5100507305752309,304,2026-10-08 00:47:11.262244,69.5,0.04081374416646957,0.2647458896053072,0.0803934836086679
0237,cdot_cos,P,T-P,305,61,55616,0.050574596586695615,-0.0025844971723282045,0.10589851352801086,0.9993641721582014,879.0,11.57267598080409,0.6598544371608941,11.523877572263675,-0.3936817530501943,0.438,0.9999999999982716,-290.1066338412637,1.515018984090246,305,2026-10-08 00:47:11.700243,69.5,0.43969502681986045,0.14409665452960577,0.24095456499191192
0237,cdot_cos,Q,P-Q,306,61,55725,-0.0054668023070748376,-0.0055437353679158525,-0.05604139889377045,0.019940172103372872,879.0,11.593366550705568,0.6598766672657925,11.54314301002981,-0.07760112141629624,0.109,0.9999999999982397,14218.584801016694,1.519986303247525,306,2026-10-08 00:47:11.809243,69.5,0.017023761868661728,0.5776589651370042,0.18982174221538733
0237,cdot_cos,R,Q-R,307,61,55775,0.06339253207601123,0.12775862932038815,0.06885933438308606,0.9917210337453621,879.0,11.698605635203958,0.6609813879444465,11.581345283999633,-0.39622345331611636,0.05,0.9999999999982393,-288.41890810629224,1.524953454992769,307,2026-10-08 00:47:11.859244,69.5,0.4474689689834842,1.4670859998658514,2.104781689967794
0237,cdot_cos,S,R-S,308,61,55805,0.04814198877131901,-0.1088471639114995,-0.015250543304692214,0.25732612678953193,879.0,11.740075150692153,0.6612677488839708,11.605217686163027,-0.15705083674011905,0.03,0.9999999999982176,835.2138283011907,1.5299205503108784,308,2026-10-08 00:47:11.889244,69.5,0.21807868387674265,1.008594295858482,1.3823171829398482
0237,cdot_cos,T,S-T,309,61,56075,-0.09927833613283332,-0.0074075454827483185,-0.14742032490415233,3.5508157838074655e-05,879.0,11.759121292955466,0.6612677883904706,11.624042735310127,-0.07231667412038592,0.27,0.9999999999981883,2144815.7377385087,1.5348883427397217,309,2026-10-08 00:47:12.159244,69.5,0.3098366999305371,0.23243252359205663,0.07054126764190173
0237,cdot_cos,P,T-P,310,62,56495,0.05764283344174068,0.00208482560210075,0.156921169574574,0.9999816529109824,899.0,11.865588713431864,0.6623794786446319,11.662410228822672,-0.4057541719235637,0.42,0.9999999999981884,-299.9374120219768,1.5398565778093989,310,2026-10-08 00:47:12.579243,69.5,0.43965181352734717,0.15102717697433612,0.253493858277136
0237,cdot_cos,Q,P-Q,311,62,56624,-0.0030539015139545087,-0.0038548856093836284,-0.06069673495569519,0.014508253182790181,899.0,11.885984121613909,0.6623955944600086,11.681490052439681,-0.07814385327463694,0.129,0.9999999999981558,20328.497875545156,1.5448239613658112,311,2026-10-08 00:47:12.708243,69.5,0.015109971926797116,0.48742497899273646,0.15810393939569933
0237,cdot_cos,R,Q-R,312,62,56669,0.055525172302292244,0.13553854045247218,0.05857907381624675,0.9832299033040894,899.0,11.99134435801199,0.6634868890002442,11.719531683354269,-0.40517333749743656,0.045,0.9999999999981541,-299.6711448333623,1.549791098550717,312,2026-10-08 00:47:12.753243,69.5,0.44613451947390736,1.4090977093967498,2.3413385866240177
0237,cdot_cos,S,R-S,313,62,56725,0.0032104614672048095,-0.018731752385969958,-0.05231471083508744,0.02568387621424524,899.0,12.012802915459616,0.6635153724363355,11.738801880222217,-0.08295594278019357,0.056,0.9999999999981242,11312.448178107501,1.5547582697422768,313,2026-10-08 00:47:12.809243,69.5,0.020564292994145982,0.36279594643413254,0.3831885258504768
0237,cdot_cos,T,S-T,314,62,56974,-0.20155900258983933,-0.11538689584000962,-0.20476946405704413,6.597014771038122e-07,899.0,12.031977504012612,0.6635153731679296,11.757539030730792,-0.0742519099116862,0.249,0.9999999999980932,11897352.161516687,1.5597260164286622,314,2026-10-08 00:47:13.058244,69.5,0.8893868230147923,0.25397113958585904,0.0770063797309082
0237,cdot_cos,P,T-P,315,63,57394,0.055630107500735965,-6.863912343789454e-05,0.2571891100905753,0.9999999827360128,899.0,12.139280542973374,0.6646234484296282,11.795912936788518,-0.41702651829941073,0.42,0.9999999999980934,-309.34235266862186,1.5646942803661494,315,2026-10-08 00:47:13.478244,69.5,0.43957400622720055,0.15240309150413275,0.25548342609705155
0237,cdot_cos,Q,P-Q,316,63,57504,-0.0031537263225844586,-0.0029957294351371307,-0.058783833823320426,0.01653705319792622,899.0,12.159996100876084,0.6646417575356495,11.814947673555872,-0.0809340152183578,0.11,0.9999999999980589,18356.57637735634,1.5696616125607459,316,2026-10-08 00:47:13.588243,69.5,0.015722333825775987,0.5799014880934856,0.1883232536609986
0237,cdot_cos,R,Q-R,317,63,57559,0.06441417299261012,0.13480570273109815,0.06756789931519458,0.9909506248859471,899.0,12.266858870353941,0.6657379895311738,11.85314534538731,-0.419013836052457,0.055,0.9999999999980583,-308.40170895796024,1.5746287797568095,317,2026-10-08 00:47:13.643244,69.5,0.4462631683637191,1.1559612033319313,1.9429594450519454
0237,cdot_cos,S,R-S,318,63,57586,-0.0005355825764476061,-0.0023096702998819385,-0.06494975556905773,0.010835766398172852,899.0,12.287151833242596,0.6657499666581929,11.872040028970215,-0.07998250979568286,0.027,0.9999999999980267,28306.565148495083,1.579595862626709,318,2026-10-08 00:47:13.670244,69.5,0.014424627347943,0.7332891072355221,0.7515912180983501
0237,cdot_cos,T,S-T,319,63,57852,-0.17456588689499575,-0.010990399188320767,-0.17403030431854813,5.586756135992787e-06,899.0,12.30645648214466,0.665749972833362,11.890692193770713,-0.07620988589368398,0.266,0.9999999999979944,610934.5036609725,1.584563677140038,319,2026-10-08 00:47:13.936243,69.5,0.951702229089297,0.23953902005865269,0.07257386805286743
0237,cdot_cos,P,T-P,320,64,58293,0.059442022007595116,-0.0006959198504334775,0.23400790890259088,0.9999999135370429,878.0,12.4145865919138,0.6668543840390229,11.929071597229232,-0.42837346381997976,0.441,0.9999999999979943,-318.86997897270595,1.5895320349876219,320,2026-10-08 00:47:14.377243,69.5,0.43951002358560015,0.1458524056991087,0.245192992673788
0237,cdot_cos,Q,P-Q,321,64,58402,-0.0032385397765957286,-0.0031750860841646333,-0.06268056178419085,0.012663350333868461,878.0,12.435098303971273,0.6668683578772618,11.947947059066152,-0.0816814240713029,0.109,0.9999999999979585,24810.07965167455,1.5944993685914235,321,2026-10-08 00:47:14.486243,69.5,0.014343740027004696,0.5866525575659546,0.1881808445639759
0237,cdot_cos,R,Q-R,322,64,58455,0.05970924045704794,0.13016866419769688,0.06294778023364367,0.9875667619392398,878.0,12.542476849463178,0.6679572197178435,11.986082066963414,-0.42909600832721434,0.053,0.9999999999979574,-319.0621356244121,1.5994665297307724,322,2026-10-08 00:47:14.539244,69.5,0.445016903940903,1.2090715799159681,2.0260102923000893
0237,cdot_cos,S,R-S,323,64,58483,-0.0006855823110066001,-0.003316238589642411,-0.06039482276805454,0.014811338100923395,878.0,12.563259891442366,0.6679735366367017,12.004972824658141,-0.083475406493272,0.028,0.999999999997925,21181.731970238732,1.60443361373757,323,2026-10-08 00:47:14.567244,69.5,0.015916668822060227,0.7181431793937979,0.7422514992567106
0237,cdot_cos,T,S-T,324,64,58751,-0.18031817198918665,-0.024634288826213963,-0.17963258967818005,3.78498449458884e-06,878.0,12.58269286750923,0.6679735408063804,12.02354206460895,-0.07817788344200234,0.268,0.9999999999978916,1270487.1083288465,1.6094014514488164,324,2026-10-08 00:47:14.835244,69.5,0.9344824558266591,0.23952118704158826,0.0725111047271074
0237,cdot_cos,P,T-P,325,65,59171,0.04807641987080068,0.0012388188189169872,0.22839459185998734,0.9999998722798459,879.0,12.691643247696657,0.6690742569578035,12.061926295689515,-0.43980216260955585,0.42,0.9999999999978911,-328.53545275954855,1.6143697737865212,325,2026-10-08 00:47:15.255244,69.5,0.4394448438407162,0.15581670913133583,0.25940566711292035
0237,cdot_cos,Q,P-Q,326,65,59281,-0.0034903068801785957,-0.003462195670525884,-0.05156672675097927,0.027017336571397293,879.0,12.713578903179553,0.6691039697924684,12.08100577891506,-0.08900271249834446,0.11,0.9999999999978547,11806.327267910294,1.619337115268059,326,2026-10-08 00:47:15.365243,69.5,0.019420098778467607,0.589800225465967,0.19941504984450506
0237,cdot_cos,R,Q-R,327,65,59335,0.05528853229758812,0.12654357857228557,0.05877883917776672,0.9834573003130215,879.0,12.82139929729917,0.67018462645408,12.119062451554221,-0.4389810024227502,0.054,0.999999999997854,-323.8570605788056,1.624304279851101,327,2026-10-08 00:47:15.419244,69.5,0.45056561551217766,1.2172886733064183,1.9966739651780963
0237,cdot_cos,S,R-S,328,65,59380,0.011364400956562942,-0.04349346403959482,-0.04392413134102518,0.045099881493149904,879.0,12.845046079896646,0.6702341407642926,12.138475730536985,-0.09676414057914741,0.045,0.9999999999978204,6911.473882483291,1.629271416822645,328,2026-10-08 00:47:15.464243,69.5,0.029111898913800803,0.48014381548886736,0.5254840577216887
0237,cdot_cos,T,S-T,329,65,59629,-0.17498586008710598,-0.023346713310460676,-0.18635026104366892,2.373023884244074e-06,879.0,12.864612240693168,0.6702341433694915,12.156965466604099,-0.08020080032515721,0.249,0.9999999999977858,6357802.456067377,1.6342392110049506,329,2026-10-08 00:47:15.713243,69.5,0.8134072448672809,0.25971110346945014,0.07857895902217699
0237,cdot_cos,P,T-P,330,66,60050,0.058125887918961325,0.0014415373857530394,0.23311174800606732,0.9999999079806152,877.0,12.974382209424432,0.6713310527838884,12.195353644019827,-0.45143841074686536,0.421,0.9999999999977867,-338.4396245936372,1.6392075668603596,330,2026-10-08 00:47:16.134243,69.5,0.4394005481809972,0.1552051976285243,0.2607362677702235
0237,cdot_cos,Q,P-Q,331,66,60158,-0.0030651515625543017,-0.003038377534075007,-0.06119103948151563,0.01402517014354891,877.0,12.995295017096385,0.6713464238821636,12.214097586301875,-0.0864387416233587,0.108,0.9999999999977487,23745.84187729931,1.6441749067326585,331,2026-10-08 00:47:16.242244,69.5,0.014659894449494093,0.6024672454932096,0.19363710807364223
0237,cdot_cos,R,Q-R,332,66,60214,0.06311061870008335,0.14508490198021784,0.06617577026263764,0.9900404709258894,877.0,13.104515134450965,0.6724305451314642,12.252287639619812,-0.4529338183817538,0.056,0.9999999999977472,-338.0572763377171,1.6491420782613757,332,2026-10-08 00:47:16.298244,69.5,0.4452327412294876,1.161021499934007,1.9503592384746415
0237,cdot_cos,S,R-S,333,66,60260,-0.00027806588119435905,-0.0037842277348189074,-0.06338868458127771,0.01206255233447888,877.0,13.125329425088994,0.6724437426441835,12.270966847052831,-0.08674484839394324,0.046,0.9999999999977119,27746.81697797609,1.6541092181388806,333,2026-10-08 00:47:16.344243,69.5,0.01467735880375919,0.44032331673159597,0.45248457908758405
0237,cdot_cos,T,S-T,334,66,60510,-0.15113838407800648,-0.014080220792592676,-0.15086031819681212,2.7957639377862605e-05,877.0,13.145024879590272,0.6724437732320285,12.289378466837062,-0.08220880146713007,0.25,0.9999999999976765,148295.7338667876,1.659077031593311,334,2026-10-08 00:47:16.594244,69.5,0.9463174980601188,0.2605470913974308,0.07878181800511186
0237,cdot_cos,P,T-P,335,67,60927,0.04062580361769207,0.00275092064707938,0.19176418769569856,0.9999983711114938,901.0,13.25560297078771,0.6735369110892377,12.327769916005215,-0.463044518720286,0.417,0.9999999999976766,-348.3876390718287,1.6640454040340844,335,2026-10-08 00:47:17.011244,69.5,0.4393494080782343,0.1573381283331031,0.26517527865092916
0237,cdot_cos,Q,P-Q,336,67,61059,-0.026150871776046723,-0.022703880177452816,-0.0667766753937388,0.00955604881999353,901.0,13.27624487862008,0.673547348116152,12.346347636726765,-0.0868660701829042,0.132,0.9999999999976371,36042.68261709187,1.6690128287086317,336,2026-10-08 00:47:17.143244,69.5,0.013160218201345723,0.49660770998492515,0.1563780896391706
0237,cdot_cos,R,Q-R,337,67,61102,0.04975209225300128,0.11946779405206379,0.075902964029048,0.9949094001220098,901.0,13.38670740622373,0.6746330365367955,12.384637186709499,-0.4663459046538335,0.043,0.9999999999976364,-349.5292270373571,1.673979956758169,337,2026-10-08 00:47:17.186244,69.5,0.44320166395425514,2.28123194472513,2.568895990782552
