record_id,input,event,transition,event_index,k,peak,value_cos,value_sin,value_return,x_input,rr,knowledge,decision,decision_norm,entropy,delta_t,cosine_similarity,delta_h_over_delta_d,frobenius_norm,matrix_size,timestamp,scale,P,zdot,zdot_back
0936,cdot_cos,Q,P-Q,1,0,1353,-0.005661974889349484,-0.010532540864636893,-0.01336749865762395,0.4172220982634076,777.0,0.002072401211564778,0.5005181001174611,0.5005181001174611,,,1.0,,0.004967141530112327,1,2026-10-07 22:46:17.437243,25.0,,,
0936,cdot_cos,R,Q-R,2,0,1379,0.07063728827703825,0.26885710440568905,0.07629926316638773,0.8707359519248791,777.0,0.009047388725925636,0.5015993620251966,0.7093686206537251,-1.3986856717868935e-05,,1.0,,0.009934283060224654,2,2026-10-07 22:46:17.463244,25.0,,,
0936,cdot_cos,S,R-S,3,0,1407,0.001018329010244353,-0.022099596033853208,-0.06961895926679389,0.14925274005779893,777.0,0.012364815233873564,0.5017846997714915,0.8691165944649185,-1.28097808792952e-05,0.028,1.0,0.006350977402631679,0.014901424594730176,3,2026-10-07 22:46:17.491244,25.0,0.9122065495657596,0.09591733891043148,0.11847951814099744
0936,cdot_cos,T,S-T,4,0,1618,-0.16858033214773807,-0.00026959393618870603,-0.16959866115798242,0.014203430016429873,777.0,0.014418759704909799,0.5018023371563256,1.003604674313448,-9.920559153075822e-06,0.211,1.0,0.16381236523447457,0.019868566165882888,4,2026-10-07 22:46:17.702244,25.0,0.747339453823996,0.03507050784242318,0.00973433398595372
0936,cdot_cos,P,T-P,5,1,1995,0.038105025536665026,-0.0024471741305359404,0.2066853576844031,0.9943314313628386,706.0,0.027164569543376146,0.5030370538482609,1.1248250476156723,-9.557740173916563e-05,0.377,1.0000000000000002,-0.0693736815461935,0.024835707845989465,5,2026-10-07 22:46:18.079243,25.0,0.4081159617177624,0.02338470017583216,0.03380851416038819
0936,cdot_cos,Q,P-Q,6,1,2111,-0.020285222356153605,-0.02102738929287393,-0.05839024789281863,0.1885046170301706,706.0,0.03205082363748725,0.5032711268070826,1.23275746298216,-5.217670239296699e-05,0.116,0.9999999999999997,0.18541526353437002,0.029802849437430206,6,2026-10-07 22:46:18.195244,25.0,0.43526411674451243,0.08515536239355204,0.042122880121647444
0936,cdot_cos,R,Q-R,7,1,2138,0.08707606705310639,0.2954702930563279,0.10736128940925999,0.9360778216270736,706.0,0.04692061361868022,0.5044334650379014,1.3346055015127216,-0.0002117509083912556,0.027,1.0,-0.1372872385741616,0.03476999096529926,7,2026-10-07 22:46:18.222244,25.0,0.47067193235487087,0.36144915076199785,0.5507329622664062
0936,cdot_cos,S,R-S,8,1,2165,-0.0006893093242972638,-0.015652394539381637,-0.08776537637740366,0.10027845908364338,706.0,0.05156907777863513,0.5045579792946278,1.4271054746909608,-8.255601547902395e-05,0.027,1.0000000000000002,1.0375911667383797,0.039737132512756373,8,2026-10-07 22:46:18.249243,25.0,0.20910136414991232,0.14789811294522823,0.17216533925758945
0936,cdot_cos,T,S-T,9,1,2396,-0.17063577204825117,-0.03297505248763726,-0.16994646272395392,0.014082197603147046,706.0,0.05490711171772254,0.5045754649029957,1.5137263947629565,-6.409017114564394e-05,0.231,1.0,1.0560595859669608,0.04470427445381957,9,2026-10-07 22:46:18.480243,25.0,0.7496694713683438,0.04750870539294107,0.014450363372672767
0936,cdot_cos,P,T-P,10,2,2701,0.04774653617581212,0.0027867847195887875,0.2183823082240633,0.9957625945292733,714.0,0.0735180996701739,0.505811854290577,1.599517527215674,-0.0004309685587694722,0.305,0.9999999999999998,-0.2967336919168618,0.04967141668809426,10,2026-10-07 22:46:18.785243,25.0,0.42686475096648935,0.04042606240508077,0.06101963263098808
0936,cdot_cos,Q,P-Q,11,2,2831,-0.021838689813661518,-0.029742483977727493,-0.06958522598947364,0.1493598549544714,714.0,0.07956700978482181,0.505997301307733,1.6782031936418749,-0.00016696757722462548,0.13,0.9999999999999998,1.4235924933895348,0.05463855852933256,11,2026-10-07 22:46:18.915244,25.0,0.20573812047301573,0.09329471217949813,0.046530077804983895
0936,cdot_cos,R,Q-R,12,2,2859,0.048353527837416616,0.2932859911086352,0.07019221765107814,0.8525578840205303,714.0,0.09777472483684342,0.5070558144458691,1.7564928661360364,-0.0005821896212949323,0.028,1.0,-0.39226914538014945,0.05960570003485141,12,2026-10-07 22:46:18.943244,25.0,0.4900697415749528,0.4801337089776156,0.6502755375722002
0936,cdot_cos,S,R-S,13,2,2885,0.006872994208849836,-0.027723538918145066,-0.04148053362856678,0.2617266827999066,714.0,0.10645449748756829,0.5073807550668697,1.829387328935895,-0.00031960689607627335,0.026,1.0000000000000002,0.808094489417946,0.06457284157123928,13,2026-10-07 22:46:18.969243,25.0,0.4397361960020467,0.24921184918186665,0.3338374096432641
0936,cdot_cos,T,S-T,14,2,3100,-0.163234131861762,-0.04896570056398476,-0.17010712607061185,0.014026540502534086,714.0,0.11073374099430049,0.5073981692154613,1.8985101082576543,-0.00016756864738953507,0.215,1.0000000000000002,8.73073109989876,0.06953998415909908,14,2026-10-07 22:46:19.184243,25.0,0.40360476447438837,0.06353362799112353,0.019903458170847443
0936,cdot_cos,P,T-P,15,3,3415,0.05393774184933763,0.002575259142359777,0.21717187371109964,0.9956329756580289,701.0,0.1337739575237514,0.5086342132694506,1.9699318379533943,-0.0010156267258658034,0.315,1.0,-0.6861066769741886,0.07450712755754232,15,2026-10-07 22:46:19.499244,25.0,0.43387031097708667,0.04945893678482894,0.07314354453793942
0936,cdot_cos,Q,P-Q,16,3,3545,-0.004631693059946205,-0.010502678423391391,-0.05856943490928384,0.1878203142955989,701.0,0.14189287116874272,0.508867374345633,2.0354694984523296,-0.0004034877629084048,0.13,1.0,2.6253908799016092,0.07947426982043698,16,2026-10-07 22:46:19.629244,25.0,0.2193428981468201,0.11089339648404105,0.062453181884548584
0936,cdot_cos,R,Q-R,17,3,3571,0.05036238508531002,0.29867142367827787,0.054994078145256226,0.7981629286900226,701.0,0.16260624060960208,0.5098581735366767,2.102199104862244,-0.0011369790837947034,0.026,0.9999999999999997,-0.7403027046415204,0.08444141127195487,17,2026-10-07 22:46:19.655244,25.0,0.5245980294644043,0.5809211816482058,0.7966680554176676
0936,cdot_cos,S,R-S,18,3,3595,0.001312215768961198,-0.015386992872062891,-0.04905016931634882,0.22683769492108774,701.0,0.17210077261444942,0.5101397446129422,2.1643396379188284,-0.0005728544398891438,0.024,0.9999999999999999,2.003489319242735,0.089408552759596,18,2026-10-07 22:46:19.679244,25.0,0.37352853337909653,0.30137966196150445,0.3956055002019727
0936,cdot_cos,T,S-T,19,3,3817,-0.17576056768920456,-0.060260870373756076,-0.17707278345816577,0.011811269473654311,701.0,0.1770724643837543,0.5101544056340561,2.223711501100455,-0.00031293240368854774,0.222,0.9999999999999999,17.72878124797832,0.09437569640225803,19,2026-10-07 22:46:19.901243,25.0,0.43578720367451057,0.07145216107223457,0.022395007969841757
0936,cdot_cos,P,T-P,20,4,4116,0.06021919460290933,0.00737559867421372,0.2359797622921139,0.9972666604506925,702.0,0.20382553213052157,0.5113922212299031,2.2870155416344615,-0.0018367130656077703,0.299,0.9999999999999998,-1.2310239643381842,0.09934284120946521,20,2026-10-07 22:46:20.200243,25.0,0.43621340905397205,0.05953113390973928,0.08947514296577685
0936,cdot_cos,Q,P-Q,21,4,4249,-0.003914083365103575,-0.009911603407008664,-0.06413327796801291,0.16751644404544228,702.0,0.21267208246177838,0.5116001307293189,2.3444463274559384,-0.0006641056884142114,0.133,0.9999999999999998,5.639989420823943,0.10430998409205987,21,2026-10-07 22:46:20.333244,25.0,0.1710680375180862,0.11411823594777086,0.06651541602448728
0936,cdot_cos,R,Q-R,22,4,4278,0.03159004760578479,0.3052667387994686,0.035504130970888365,0.7083953250012635,702.0,0.23418098289262862,0.512479295409741,2.4037409670589835,-0.0017321954067533746,0.029,0.9999999999999996,-1.2148915238795714,0.10927712552471743,22,2026-10-07 22:46:20.362243,25.0,0.5397709429880247,0.5942922876085535,0.7416862217534566
0936,cdot_cos,S,R-S,23,4,4306,0.0020087371236849364,-0.01536449194280773,-0.029581310482099856,0.3231063242844615,702.0,0.24714103514307448,0.5128802660655456,2.459687351018738,-0.0011241874628232307,0.028,0.9999999999999992,1.5163402486651554,0.11424426701901813,23,2026-10-07 22:46:20.390244,25.0,0.5822577081228301,0.3283931722658219,0.46285900894449494
0936,cdot_cos,T,S-T,24,4,4533,-0.2121659749978405,-0.06992492430360506,-0.21417471212152545,0.0047052135412810215,702.0,0.25257100053951465,0.5128861050518301,2.5126185104912397,-0.0004890045120571092,0.227,0.9999999999999993,108.7830866214859,0.11921141208170646,24,2026-10-07 22:46:20.617243,25.0,0.27282337963066033,0.07800030611226212,0.023920552407225407
0936,cdot_cos,P,T-P,25,5,4818,0.027621358211740436,0.003066395269282984,0.23978733320958096,0.9975142284790685,696.0,0.2825531741180415,0.5141238993245693,2.5706195011983097,-0.002891049706184116,0.285,0.9999999999999997,-1.9405851578319206,0.12417855856953999,25,2026-10-07 22:46:20.902244,25.0,0.4356763084835406,0.07215254964466263,0.1052006090474626
0936,cdot_cos,Q,P-Q,26,5,4924,-0.02321676257128514,-0.03855090334467112,-0.050838120783025575,0.21909415450194392,696.0,0.29369795383697234,0.5143957459443753,2.6229139523554768,-0.0011571979926077675,0.106,0.9999999999999996,6.378051398296984,0.12914570163864808,26,2026-10-07 22:46:21.008243,25.0,0.2235055623076591,0.1720372757563702,0.10513943131066843
0936,cdot_cos,R,Q-R,27,5,4982,0.0238889122902133,0.3016834830924125,0.04710567486149844,0.7645235411159373,696.0,0.31902507657839196,0.5153442801244457,2.6778074363773,-0.0027959242797016286,0.058,0.9999999999999992,-1.7276407340137436,0.13411284374390775,27,2026-10-07 22:46:21.066243,25.0,0.5564864027380286,0.36285017536111047,0.4366745300244763
0936,cdot_cos,S,R-S,28,5,5007,0.010165770491213916,-0.03227704128862716,-0.013723141798999383,0.41506185604565343,696.0,0.33578857417886115,0.5158591959843427,2.729670295194631,-0.0019775604521159854,0.025,0.9999999999999992,1.5893156364406171,0.13907998513202238,28,2026-10-07 22:46:21.091244,25.0,0.6611166788484282,0.4580565880213361,0.6705399040187676
0936,cdot_cos,T,S-T,29,5,5232,-0.1862450717548874,-0.08702438356841223,-0.1964108422461013,0.007316563583345908,696.0,0.34192790597945877,0.5158682724401908,2.7780356729600757,-0.0007495766658500458,0.225,0.9999999999999994,135.29331347085528,0.14404713203575956,29,2026-10-07 22:46:21.316243,25.0,0.19432244534657528,0.0869475139810896,0.02728591911376717
0936,cdot_cos,P,T-P,30,6,5514,0.05546766074066812,-0.00013120054201985344,0.2417127324955555,0.9976307701945628,699.0,0.3749149554703515,0.5171057681339796,2.8323049473479633,-0.004259350505772613,0.282,0.999999999999999,-2.8361907500275962,0.1490142809777596,30,2026-10-07 22:46:21.598243,25.0,0.43866633796209537,0.07477210286512535,0.11697535280458407
0936,cdot_cos,Q,P-Q,31,6,5645,-0.0289825656395441,-0.03520902488988818,-0.08445022638021221,0.10800763447504233,699.0,0.38409937199538946,0.5172397322224024,2.879868959817837,-0.0012556525592805898,0.131,0.9999999999999988,22.421665252645138,0.15398142558776431,31,2026-10-07 22:46:21.729243,25.0,0.09143371620945538,0.15178274946958564,0.07011004980945028
0936,cdot_cos,R,Q-R,32,6,5669,0.046943565423250184,0.28475056004326826,0.07592613106279428,0.8696823701883948,699.0,0.4146820358313829,0.5183183251827701,2.93205123336714,-0.004399511830386322,0.024,0.9999999999999986,-2.9147782218362637,0.1589485667541896,32,2026-10-07 22:46:21.753243,25.0,0.4893913743464848,0.9474990607312751,1.2742776598330605
0936,cdot_cos,S,R-S,33,6,5696,0.012432336525734883,-0.04115166443891613,-0.0345112288975153,0.29675870063736953,699.0,0.42957932691049067,0.518686331164613,2.9796261363253054,-0.002264966379467369,0.027,0.9999999999999986,5.800300963123801,0.1639157081510511,33,2026-10-07 22:46:21.780244,25.0,0.3896843753931386,0.4051304466520584,0.5517515214484354
0936,cdot_cos,T,S-T,34,6,5911,-0.14767620944398,-0.05396281651848463,-0.16010854596971488,0.017938342213920752,699.0,0.43655907995059406,0.5187085755860654,3.0245647649039014,-0.0010886880307268807,0.215,0.9999999999999984,52.879700704230366,0.1688828568106807,34,2026-10-07 22:46:21.995244,25.0,0.3394410689910162,0.09884185819180318,0.0324639676283879
0936,cdot_cos,P,T-P,35,7,6213,0.04476888635252037,0.003371583930167841,0.19244509579650038,0.9919270243394163,701.0,0.47208132593296603,0.5199384956879417,3.0759976388283388,-0.005811468134371255,0.302,0.9999999999999987,-3.8399080529211846,0.17385000943988488,35,2026-10-07 22:46:22.297244,25.0,0.4436738418909138,0.07672004148313569,0.11762333106745686
0936,cdot_cos,Q,P-Q,36,7,6348,-0.02842857110372665,-0.04051769806723655,-0.07319745745624702,0.13824584557921765,701.0,0.482897985006408,0.5201098920168672,3.1206593722287614,-0.0018598099176737604,0.135,0.9999999999999978,23.055675938166754,0.17881715537112947,36,2026-10-07 22:46:22.432243,25.0,0.11946108989325317,0.15551978332253097,0.08012340054401466
0936,cdot_cos,R,Q-R,37,7,6375,0.02991171355494815,0.2845118941426477,0.0583402846586748,0.8113042359420538,701.0,0.5140716674300494,0.5211156451825532,3.169822742483886,-0.00559473279422924,0.027,0.9999999999999981,-3.71355816116981,0.18378429653547443,37,2026-10-07 22:46:22.459244,25.0,0.5129492228311224,0.9647951589593249,1.1545808305052363
0936,cdot_cos,S,R-S,38,7,6400,0.02318067389939992,-0.051582377879921384,-0.006731039655548228,0.45802999349940765,701.0,0.5349969235902116,0.521683378214524,3.2158723439592825,-0.003951315275718313,0.025,0.9999999999999971,2.894701252111056,0.18875143775192452,38,2026-10-07 22:46:22.484244,25.0,0.6597353062244338,0.5690086343719769,0.8370102464064866
0936,cdot_cos,T,S-T,39,7,6631,-0.1387985435206392,-0.0604981332906809,-0.16197921742003912,0.017132780196579128,701.0,0.5425220991486482,0.5217046133995202,3.258044288817943,-0.0014595097300433213,0.231,0.9999999999999972,117.34324641493231,0.193718589759135,39,2026-10-07 22:46:22.715244,25.0,0.18135670572111204,0.09860790319353818,0.03257651756898996
0936,cdot_cos,P,T-P,40,8,6914,0.04758900944394162,0.0042118695698643545,0.18638755296458082,0.9906194199504474,718.0,0.5805537748656262,0.5229322985012014,3.3073142774942736,-0.007686428355941671,0.283,0.999999999999997,-5.072081283198322,0.1986857451240463,40,2026-10-07 22:46:22.998244,25.0,0.4448053064544363,0.08751439059416985,0.13438754670310235
0936,cdot_cos,Q,P-Q,41,8,7050,-0.026756389673746404,-0.03663647913735511,-0.07434539911768803,0.13486223573422665,718.0,0.5920552442249484,0.5230994135974343,3.3494705662055773,-0.002426963192089408,0.136,0.9999999999999967,31.47211282768984,0.2036528925844713,41,2026-10-07 22:46:23.134243,25.0,0.11450953199145884,0.16707909321271625,0.08456962764207478
0936,cdot_cos,R,Q-R,42,8,7077,0.03710192016512236,0.2875104689452039,0.06385830983886875,0.8315227238532285,718.0,0.625999288219485,0.5241296827486023,3.396748601383427,-0.007438788799669872,0.027,0.9999999999999964,-4.864578932503861,0.20862003364438855,42,2026-10-07 22:46:23.161243,25.0,0.5097972626606206,0.9865959542308236,1.2571868146124687
0936,cdot_cos,S,R-S,43,8,7103,0.015137749480591765,-0.044147369283471585,-0.02196417068453059,0.3660722508234383,718.0,0.6453314257534128,0.5245831871868952,3.4399220362474314,-0.0044215227302324255,0.026,0.9999999999999958,6.653222801511765,0.21358717480790632,43,2026-10-07 22:46:23.187244,25.0,0.5054004024456269,0.5284988413355814,0.7435437513049161
0936,cdot_cos,T,S-T,44,8,7316,-0.1387105535988171,-0.0443142937152073,-0.15384830307940886,0.020913859024167564,718.0,0.6534812279689353,0.5246090948657492,3.4798630942433455,-0.001904253698549059,0.213,0.9999999999999956,97.16304752221168,0.21855432862613908,44,2026-10-07 22:46:23.400243,25.0,0.266623176734409,0.11396414631625415,0.03826198223249961
0936,cdot_cos,P,T-P,45,9,7632,0.04854770364960816,3.0297846763508067e-05,0.18725825724842526,0.9908195520493561,717.0,0.6938801520841371,0.5258363484642741,3.5274175018698912,-0.009789878439109265,0.316,0.9999999999999951,-6.425424011825131,0.2235214902551091,45,2026-10-07 22:46:23.716243,25.0,0.4468700228826802,0.08329227744168453,0.12784469656709446
0936,cdot_cos,Q,P-Q,46,9,7760,-0.025483127606479233,-0.030137899341268412,-0.07403083125608739,0.13578242384171593,717.0,0.7061219473120799,0.5260045079496752,3.567536195335406,-0.003082350474782872,0.128,0.9999999999999938,39.88789540075467,0.2284886387171181,46,2026-10-07 22:46:23.844243,25.0,0.11348232944532126,0.19774675005660142,0.09563902521830293
0936,cdot_cos,R,Q-R,47,9,7786,0.06372413457534228,0.29167298464159097,0.08920726218182151,0.9029272733631865,717.0,0.7445033200986271,0.5271225846749682,3.613770425847439,-0.010011069612081851,0.026,0.9999999999999942,-6.196997916653265,0.2334557795604578,47,2026-10-07 22:46:23.870244,25.0,0.5005209717631411,1.002543593987811,1.4762066456364302
0936,cdot_cos,S,R-S,48,9,7810,0.0004805088982016996,-0.013357211555325661,-0.06324362567714058,0.17064107598352513,717.0,0.758254214199446,0.5273338558765176,3.653476177245399,-0.0037153911757227508,0.024,0.9999999999999934,29.799037399268986,0.23842292041513202,48,2026-10-07 22:46:23.894243,25.0,0.18369361811844634,0.4606075554292599,0.5729539208674574
0936,cdot_cos,T,S-T,49,9,8031,-0.16857536553998592,-0.03706998247110655,-0.16905587443818762,0.014394686180932486,717.0,0.7666124827592316,0.5273516775317469,3.691461796545713,-0.002291559809863698,0.221,0.9999999999999928,79.89332907274778,0.24339007778382965,49,2026-10-07 22:46:24.115244,25.0,0.5372255766923253,0.11563671949597602,0.037820219727536186
0936,cdot_cos,P,T-P,50,10,8349,0.04871586459891243,-0.003130196818834842,0.21729123013889834,0.9956459303941116,719.0,0.8093656442166675,0.5285841870532265,3.737654692126767,-0.012111035470911065,0.318,0.9999999999999926,-7.967058663578932,0.24835724422689603,50,2026-10-07 22:46:24.433243,25.0,0.4445078971489689,0.08714456646551796,0.13444390395420097
0936,cdot_cos,Q,P-Q,51,10,8466,-0.027265383884936736,-0.028188748031200337,-0.07598124848384917,0.1301615411003216,719.0,0.822036427031301,0.5287452885177711,3.775996707032581,-0.003715448234806694,0.117,0.9999999999999915,52.11366178349647,0.25332439320942857,51,2026-10-07 22:46:24.550244,25.0,0.10438772653416041,0.2312110471531417,0.1082972890139617
0936,cdot_cos,R,Q-R,52,10,8496,0.07797264964133212,0.27791004982937156,0.10523803352626886,0.932827154079281,719.0,0.8634690292505026,0.5298996752137035,3.8211609757060496,-0.012548768866973538,0.03,0.999999999999991,-7.651959835722423,0.2582915342550301,52,2026-10-07 22:46:24.580243,25.0,0.4946428446361489,0.930500735569521,1.3810867406400549
0936,cdot_cos,S,R-S,53,10,8521,0.014445291716882098,-0.04644802344344508,-0.06352735792445002,0.1696395561402016,719.0,0.8778664711654722,0.5301095725365733,3.8592560179623,-0.0045047902700981616,0.025,0.9999999999999901,38.323397777993804,0.263258675007533,53,2026-10-07 22:46:24.605243,25.0,0.16768803389364206,0.46904462237392197,0.5758976765987844
0936,cdot_cos,T,S-T,54,10,8748,-0.13689198328700272,-0.02639250618766661,-0.15133727500388483,0.022238693067571556,719.0,0.8869212603691987,0.5301370879849978,3.895696154790541,-0.002871274524403632,0.227,0.9999999999999895,59.367222386976195,0.2682258363736566,54,2026-10-07 22:46:24.832243,25.0,0.5661384598690309,0.11826571313621129,0.0398889392234647
0936,cdot_cos,P,T-P,55,11,9068,0.04629372396826384,-0.001787508459887062,0.18318570725526656,0.9898456082330448,724.0,0.9315591049293122,0.5313616143145612,3.9406832865595645,-0.014580902636696546,0.32,0.9999999999999888,-9.56257765112174,0.2731930082733673,55,2026-10-07 22:46:25.152243,25.0,0.44794725758637777,0.0915556678602521,0.1394932642503545
0936,cdot_cos,Q,P-Q,56,11,9193,-0.023500653928658837,-0.025033082240863275,-0.06979437789692268,0.14869674569722272,724.0,0.9455168877997601,0.531545533042736,3.9777226403886314,-0.004705986677468961,0.125,0.9999999999999871,53.69173687326767,0.278160159662652,56,2026-10-07 22:46:25.277244,25.0,0.12265581199333032,0.22687313505203033,0.11166226296358328
0936,cdot_cos,R,Q-R,57,11,9218,0.07213279708259349,0.2766048846721198,0.09563345101125233,0.9161258492567389,724.0,0.9882773886923197,0.5326784718207364,4.02163437484574,-0.014848361408384142,0.025,0.9999999999999871,-8.952270791557257,0.2831272999793655,57,2026-10-07 22:46:25.302243,25.0,0.5050673114634824,1.1343360476721576,1.7104200357023869
0936,cdot_cos,S,R-S,58,11,9243,-0.00022566332726426053,-0.015651951881958594,-0.07235846040985774,0.14076368345830895,724.0,1.002233690183368,0.5328525194652859,4.058083992855756,-0.004988161649281397,0.025,0.9999999999999862,56.652302216571805,0.288094440508214,58,2026-10-07 22:46:25.327244,25.0,0.13852282393779922,0.4590074727631954,0.5582520596419283
0936,cdot_cos,T,S-T,59,11,9449,-0.1830347012905459,-0.03315369007298267,-0.18280903796328163,0.01024947989550282,724.0,1.0112277623304795,0.5328651921511802,4.093015311055934,-0.0032516501361280693,0.206,0.999999999999985,137.0278982397811,0.2930616030767663,59,2026-10-07 22:46:25.533243,25.0,0.5862317531452361,0.13564028563613392,0.0436605444034542
0936,cdot_cos,P,T-P,60,12,9792,0.04787130558467283,0.0026254730936850473,0.23090600687521873,0.9968981508388971,733.0,1.0581174878654551,0.5340975741557704,4.137102136501464,-0.01741689622320267,0.343,0.9999999999999843,-11.49420068965142,0.2980287835816999,60,2026-10-07 22:46:25.876243,25.0,0.4433903058642414,0.09304720183539983,0.1367047391690251
0936,cdot_cos,Q,P-Q,61,12,9923,-0.00504801638845813,-0.010179137793856836,-0.052919321973130956,0.21032241993566034,733.0,1.0750581427895638,0.5343575255626891,4.173465825550573,-0.006486133311091599,0.131,0.9999999999999826,42.04925467293052,0.30299593757561005,61,2026-10-07 22:46:26.007244,25.0,0.1853978837139655,0.22188954033073321,0.12931797651991356
0936,cdot_cos,R,Q-R,62,12,9949,0.05805799871109808,0.2759869653945314,0.06310601509955621,0.828871496692836,733.0,1.1162525474321072,0.5353817997228906,4.215600648076676,-0.01619744638663975,0.026,0.9999999999999819,-9.481165739491196,0.3079630777533436,62,2026-10-07 22:46:26.033243,25.0,0.5490541114110385,1.1120490873678264,1.5844001785593627
0936,cdot_cos,S,R-S,63,12,9978,0.0012029608439012998,-0.020102374304887063,-0.056855037867196784,0.1944459691812341,733.0,1.1328846953326908,0.5356220425479492,4.251368305870015,-0.006711797975560126,0.029,0.9999999999999807,39.48358669510541,0.31293021858730424,63,2026-10-07 22:46:26.062243,25.0,0.2433438569578035,0.4501503874470205,0.5735223413994324
0936,cdot_cos,T,S-T,64,12,10188,-0.17165430183639582,-0.035381213661280886,-0.17285726268029714,0.013106788104777892,733.0,1.1423612699040344,0.5356382357167813,4.285106028506841,-0.003868586428803106,0.21,0.9999999999999791,175.58092404547776,0.31789738539131673,64,2026-10-07 22:46:26.272243,25.0,0.47953018466112773,0.1386829844337848,0.04512654557782693
0936,cdot_cos,P,T-P,65,13,10525,0.04755138089000973,0.0015683022066207955,0.21920568272640556,0.9958485688155094,744.0,1.1911315487948804,0.5368683640548629,4.3283712837648425,-0.020411668678970707,0.337,0.9999999999999785,-13.448257176129921,0.32286457174603633,65,2026-10-07 22:46:26.609244,25.0,0.4446482230882405,0.09734199516336867,0.14471892845948353
0936,cdot_cos,Q,P-Q,66,13,10656,-0.010169794532042711,-0.017650200262277167,-0.05772117542205244,0.1910766691621219,744.0,1.207969774644145,0.5371043418988227,4.363456478605195,-0.0072448806099332085,0.131,0.999999999999976,55.79671314939688,0.3278317278178091,66,2026-10-07 22:46:26.740243,25.0,0.16244886542382744,0.23469234859119564,0.12853607518522542
0936,cdot_cos,R,Q-R,67,13,10681,0.06729622187730543,0.27144557674509495,0.07746601640934814,0.8739836943061312,744.0,1.2526209441257736,0.5381834898830866,4.405221906631789,-0.0196977484153924,0.025,0.9999999999999754,-11.5395367336515,0.33279886756609517,67,2026-10-07 22:46:26.765243,25.0,0.5314227019942046,1.2079230289455944,1.786046779265149
0936,cdot_cos,S,R-S,68,13,10705,7.442070833839504e-05,-0.018791253796168722,-0.06722180116896703,0.15702331152019725,744.0,1.2683659260914246,0.5383773361923255,4.439573433581166,-0.007115922106078317,0.024,0.9999999999999738,64.90619480305584,0.3377660073976668,68,2026-10-07 22:46:26.789243,25.0,0.17065298568336176,0.5371158391086808,0.6560409152354582
0936,cdot_cos,T,S-T,69,13,10925,-0.15980035068246112,-0.023807130288906353,-0.15987477139079953,0.01804159039192512,744.0,1.2784025044029903,0.5383996079119862,4.4722832179033185,-0.004582374530031277,0.22,0.9999999999999717,113.75626196148488,0.3427331799205161,69,2026-10-07 22:46:27.009243,25.0,0.5752850180155753,0.13787975652328224,0.04562081050711673
0936,cdot_cos,P,T-P,70,14,11269,0.06291266291861106,-0.005264241396276538,0.22271301360107218,0.9961957516236405,718.0,1.3290330189616688,0.5396291367665406,4.5148614824092865,-0.023657763178719003,0.344,0.9999999999999711,-15.514388766094335,0.3477003745889673,70,2026-10-07 22:46:27.353244,25.0,0.44650455709459036,0.0966957678437905,0.1471817283682515
0936,cdot_cos,Q,P-Q,71,14,11382,-0.0052950010667906925,-0.007873760208073684,-0.06820766398540175,0.15378842801858844,718.0,1.3449291926795182,0.5398189035711378,4.548595162314307,-0.007616742450377622,0.113,0.9999999999999682,84.53017250506615,0.3526675296521977,71,2026-10-07 22:46:27.466244,25.0,0.12172131452506446,0.28698376900568334,0.14067410369778185
0936,cdot_cos,R,Q-R,72,14,11408,0.10319815721116207,0.2947197031144236,0.10849315827795276,0.9377502395312978,718.0,1.3938913507569533,0.5409757860768155,4.590332000122972,-0.024020502625477898,0.026,0.9999999999999677,-14.1792793084818,0.35763466929077,72,2026-10-07 22:46:27.492243,25.0,0.5051465890302603,1.1832680889662597,1.8831599260551959
0936,cdot_cos,S,R-S,73,14,11436,-0.000989973875304969,-0.009411902615937539,-0.10418813108646705,0.06883633813946172,718.0,1.4064591333057637,0.54106069075638,4.622824807574206,-0.006304009083732779,0.028,0.9999999999999656,208.663334372463,0.3626018095758974,73,2026-10-07 22:46:27.520243,25.0,0.06018371799210699,0.3968650992105051,0.44884937674322906
0936,cdot_cos,T,S-T,74,14,11666,-0.26632131014608224,-0.15982307274616323,-0.26533133627077726,0.0013141064140538914,718.0,1.4161157963127415,0.5410623115890937,4.654394234348995,-0.004882228554263321,0.23,0.9999999999999633,877.1914075043321,0.3675689884341799,74,2026-10-07 22:46:27.750243,25.0,0.7473546210647134,0.13520398486028284,0.0419854913346864
0936,cdot_cos,P,T-P,75,15,11987,0.04990196100588308,0.002027448800346421,0.3162232711519653,0.9996314559779876,740.0,1.4686529663414938,0.5422950133769374,4.6964128397636244,-0.027135852919468528,0.321,0.9999999999999627,-18.052723363151454,0.37253618608555666,75,2026-10-07 22:46:28.071244,25.0,0.440395543328875,0.11098757868899901,0.1636671963512531
0936,cdot_cos,Q,P-Q,76,15,12118,-0.0038530502693737653,-0.0077559412424242835,-0.053755011275256843,0.20687349220448628,740.0,1.487369821831079,0.5425500565615957,4.729842026159213,-0.009905321980880547,0.131,0.9999999999999587,67.55926829283068,0.37750334673621444,76,2026-10-07 22:46:28.202244,25.0,0.17560422305679338,0.2496983582974219,0.14287675946248188
0936,cdot_cos,R,Q-R,77,15,12145,0.06483141348115816,0.288128054771116,0.06868446375053193,0.8477564171621281,740.0,1.5340739362154183,0.5435949754083417,4.770026851152776,-0.025254573919277386,0.027,0.999999999999958,-14.689420126928368,0.382470486260219,77,2026-10-07 22:46:28.229243,25.0,0.5445578656885768,1.1830759642841921,1.729782014234793
0936,cdot_cos,S,R-S,78,15,12173,6.644224644168586e-05,-0.008628319823497021,-0.06476497123471647,0.16532567797263242,740.0,1.5512559239024253,0.5437987064125368,4.802700436123464,-0.009486679519923385,0.028,0.9999999999999558,77.39565443977226,0.38743762629030615,78,2026-10-07 22:46:28.257244,25.0,0.18973841977019282,0.4849406099380655,0.6136424173931058
0936,cdot_cos,T,S-T,79,15,12390,-0.26234077581028387,-0.12496312267823155,-0.26240721805672557,0.0014136290587771858,740.0,1.56123061037195,0.5438004483659965,4.833404412150546,-0.005555788358848275,0.217,0.9999999999999528,2256.599416699069,0.3924048074587511,79,2026-10-07 22:46:28.474244,25.0,0.49285968492564447,0.14799572724322657,0.045966297094583906
0936,cdot_cos,P,T-P,80,16,12727,0.04166243747626544,0.0003183278319944255,0.30400321328654933,0.9994998390534469,735.0,1.6154860695259856,0.5450318177684199,4.874913102797318,-0.03082970343488205,0.337,0.999999999999952,-20.525047176170833,0.39737201635864,80,2026-10-07 22:46:28.811244,25.0,0.4405236905156431,0.10447269890110994,0.16099542775678224
0936,cdot_cos,Q,P-Q,81,16,12857,-0.03218936339419833,-0.03675388328302627,-0.07385180087046378,0.1363084910411298,735.0,1.631645209431298,0.545199705541651,4.906797710840717,-0.0093851016089836,0.13,0.999999999999948,127.73176636504513,0.40233917925569634,81,2026-10-07 22:46:28.941243,25.0,0.10177791567795294,0.25820046276818004,0.12430107619471138
0936,cdot_cos,R,Q-R,82,16,12884,0.060363770272821145,0.2677423856188322,0.09255313366701948,0.9100158392272426,735.0,1.6826181898457124,0.5463202842714344,4.947140956841698,-0.030204265160396895,0.027,0.9999999999999466,-18.57893871984949,0.40730631846083665,82,2026-10-07 22:46:28.968243,25.0,0.5019378712774712,1.3684098861999472,1.8878881634968274
0936,cdot_cos,S,R-S,83,16,12911,0.022679939322206213,-0.061560534237045286,-0.037683830950614935,0.2804772005037269,735.0,1.7055393432860952,0.5466655652797324,4.980360697439052,-0.013883054542202221,0.027,0.9999999999999439,47.26935518013842,0.41227345800659243,83,2026-10-07 22:46:28.995244,25.0,0.308627259207188,0.6360404366076783,0.8489316089030672
0936,cdot_cos,T,S-T,84,16,13124,-0.12232825665323023,-0.028362590801903023,-0.14500819597543643,0.02595217711242069,735.0,1.716964373422527,0.5466975114016726,5.01056583267024,-0.006990061964065048,0.213,0.9999999999999409,215.76930655481038,0.4172406436135807,84,2026-10-07 22:46:29.208243,25.0,0.3730237346662386,0.15652845487521164,0.05363863913817753
0936,cdot_cos,P,T-P,85,17,13462,0.04266370429822082,0.0007447191481864693,0.16499196095145105,0.9840904620253661,722.0,1.7722204650629354,0.5479086023854535,5.0514681198279066,-0.0344495092612109,0.338,0.9999999999999397,-22.673314940732165,0.4222078619055235,85,2026-10-07 22:46:29.546243,25.0,0.45063726511470126,0.10672149145525942,0.16347956106629688
0936,cdot_cos,Q,P-Q,86,17,13592,-0.029629594858382912,-0.03301820154720357,-0.07229329915660374,0.1409608289341715,722.0,1.7891081016462824,0.5480820325980587,5.082704118339535,-0.010745599046245858,0.13,0.9999999999999352,136.67693684333457,0.42717502767645105,86,2026-10-07 22:46:29.676243,25.0,0.11014936321831567,0.2653367597616021,0.12990489679497708
0936,cdot_cos,R,Q-R,87,17,13617,0.05855544195318942,0.2784773699746442,0.08818503681157233,0.9006641515884639,722.0,1.841208022600952,0.549189881296898,5.122502653970879,-0.03377864527684522,0.025,0.9999999999999337,-20.790786914069766,0.43214216606596206,87,2026-10-07 22:46:29.701244,25.0,0.5056644952245575,1.430460019691151,2.0839968381867813
0936,cdot_cos,S,R-S,88,17,13642,0.0006578146261408234,-0.017891910016226635,-0.0578976273270486,0.19039575989143187,722.0,1.86063110263084,0.5494240127465619,5.154054556294973,-0.012839729065591702,0.025,0.9999999999999304,89.43230924898297,0.43710930478943644,88,2026-10-07 22:46:29.726244,25.0,0.1957746305843503,0.6131896304031281,0.7769232011955207
0936,cdot_cos,T,S-T,89,17,13862,-0.16721372464634454,-0.037853670648635214,-0.16787153927248535,0.014820850698604698,722.0,1.8718675041211084,0.5494422371686787,5.183428159587339,-0.007489347194101659,0.22,0.9999999999999266,293.58307425150116,0.44207649767881585,89,2026-10-07 22:46:29.946244,25.0,0.48948622257067115,0.15610802309380187,0.05107455222849267
0936,cdot_cos,P,T-P,90,18,14184,0.060527560996551454,0.001068731913555564,0.227741285642896,0.9966436263543728,719.0,1.9293186327921128,0.5506674506710397,5.224090623456726,-0.038977997543507885,0.322,0.9999999999999255,-25.70054140664146,0.44704372063701436,90,2026-10-07 22:46:30.268243,25.0,0.4458123942587255,0.1169467830729151,0.17841965425777775
0936,cdot_cos,Q,P-Q,91,18,14312,-0.008420690527930501,-0.01520778988466815,-0.06894825152448196,0.15139438606447547,719.0,1.9471812324200657,0.5508535123881223,5.254808134050355,-0.012358139898004387,0.128,0.9999999999999205,143.07004182751615,0.45201088874867157,91,2026-10-07 22:46:30.396243,25.0,0.11601516843347254,0.27003493576050785,0.13955155959338195
0936,cdot_cos,R,Q-R,92,18,14339,0.06162596709609019,0.28932542419966656,0.0700466576240207,0.8520998638272013,719.0,1.9984475763468028,0.551900465053017,5.293643850125618,-0.03608513718983722,0.027,0.9999999999999181,-22.662913126276177,0.4569780273866622,92,2026-10-07 22:46:30.423244,25.0,0.5181304392958571,1.308201416897252,1.8987534787680416
0936,cdot_cos,S,R-S,93,18,14363,0.0005321624703833716,-0.013354823378780177,-0.061093804625706814,0.17838245918001866,719.0,2.0178241089325173,0.5521195809742323,5.324448972608871,-0.01388158033288089,0.024,0.9999999999999145,101.3324670056414,0.46194516545397674,93,2026-10-07 22:46:30.447244,25.0,0.20199794092486079,0.636418465327554,0.80735552440477
0936,cdot_cos,T,S-T,94,18,14584,-0.19591312413589707,-0.045992122700989096,-0.19644528660628044,0.007310311974195478,719.0,2.0289956626825254,0.5521285601577849,5.353085556029427,-0.008064279416881901,0.221,0.9999999999999104,647.8652409690568,0.46691236439668926,94,2026-10-07 22:46:30.668243,25.0,0.4860875694038838,0.1589405397620883,0.0505500169683625
0936,cdot_cos,P,T-P,95,19,14903,0.05225261147939017,0.0010492416003550352,0.24816573561528724,0.9979830370522096,719.0,2.0880758275073603,0.5533540512988749,5.393428728700804,-0.04336517801510653,0.319,0.9999999999999095,-28.80551104337249,0.47187959541831304,95,2026-10-07 22:46:30.987243,25.0,0.4430653940152871,0.11976453437512469,0.18520427844775836
0936,cdot_cos,Q,P-Q,96,19,15033,-0.02348507831910838,-0.02764743143457491,-0.07573768979849856,0.1308524848269751,719.0,2.105405435613855,0.5535146862058729,5.423314827654101,-0.012955205725725092,0.13,0.999999999999903,189.3111083867738,0.47684676707103335,96,2026-10-07 22:46:31.117243,25.0,0.09562539858122951,0.2755340129638944,0.13330467774226648
0936,cdot_cos,R,Q-R,97,19,15059,0.0587645289482933,0.28726339157025654,0.08224960726740169,0.8865766373974311,719.0,2.159714670877973,0.5546027543770377,5.462204326193848,-0.04127423523580766,0.026,0.9999999999999011,-26.02688899516874,0.4818139050554988,97,2026-10-07 22:46:31.143244,25.0,0.5035265595350586,1.4367589496983537,2.0888167409276117
0936,cdot_cos,S,R-S,98,19,15082,0.000528569811821066,-0.013318227290340937,-0.05823595913647223,0.18909536728020707,719.0,2.1801169009981693,0.5548347579472029,5.492584540081631,-0.01577538480822934,0.023,0.9999999999998964,109.90714672801099,0.4867810423926061,98,2026-10-07 22:46:31.166244,25.0,0.19861848147397967,0.7022527397789505,0.8870534834868037
0936,cdot_cos,T,S-T,99,19,15307,-0.16342693356215185,-0.04288639127828137,-0.1639555033739729,0.016320348480803912,719.0,2.1920182969078046,0.5548547804765732,5.520736024054431,-0.009270797051256397,0.225,0.9999999999998912,324.86343941282706,0.4917482488717741,99,2026-10-07 22:46:31.391244,25.0,0.49578089166655614,0.1608443183375504,0.052895092931712163
0936,cdot_cos,P,T-P,100,20,15622,0.05035691562032198,0.0011979989984229051,0.21378384918247384,0.9952488032680888,724.0,2.252496844250067,0.5560754570382838,5.5607552738965484,-0.04786445924802138,0.315,0.9999999999998904,-31.616616069602742,0.49671548802269583,100,2026-10-07 22:46:31.706244,25.0,0.4465019712745081,0.12370323847637521,0.1919953883881347
0936,cdot_cos,Q,P-Q,101,20,15753,-0.027626854148530316,-0.033153714887668675,-0.0779837697688523,0.1245976084646092,724.0,2.269951337147921,0.5562282291350198,5.590025280474332,-0.01405523371665671,0.131,0.9999999999998831,221.30497815829716,0.5016826632138776,101,2026-10-07 22:46:31.837244,25.0,0.0902244770870441,0.28104918737458673,0.1332404038004118
0936,cdot_cos,R,Q-R,102,20,15781,0.05870521456805667,0.27754134403712094,0.08633206871658698,0.8964419967715684,724.0,2.3261317313422087,0.5573270628826671,5.628728206706077,-0.04595262092889003,0.028,0.9999999999998814,-29.02840150343805,0.5066498015733332,102,2026-10-07 22:46:31.865243,25.0,0.499505631032629,1.423548647305238,2.006442649795992
0936,cdot_cos,S,R-S,103,20,15805,0.012879878442844545,-0.04199164755773876,-0.04582533612521213,0.24128756335508023,724.0,2.3496700613970143,0.5576227311298262,5.659253417105339,-0.01958436744257811,0.024,0.9999999999998771,89.18189132471599,0.5116169388464007,103,2026-10-07 22:46:31.889244,25.0,0.2601770519310508,0.7416717474169979,0.9807637522835644
0936,cdot_cos,T,S-T,104,20,16024,-0.15881075198854336,-0.04022524334179834,-0.1716906304313879,0.013489454797984768,724.0,2.3617319752182246,0.5576392595950033,5.686827718414303,-0.010112088157942055,0.219,0.999999999999871,573.0888611346518,0.5165841498625415,104,2026-10-07 22:46:32.108243,25.0,0.39190794014158165,0.16877242775950152,0.055077232060321266
0936,cdot_cos,P,T-P,105,21,16346,0.0383951176969667,0.0011536624073196116,0.19720586968551007,0.9928263895859866,736.0,2.423592384755676,0.558855404865465,5.726564647924109,-0.05264402893003941,0.322,0.9999999999998689,-34.97274692845546,0.5215514018333087,105,2026-10-07 22:46:32.430244,25.0,0.44578622301715476,0.12552752428241148,0.19211307309767486
0936,cdot_cos,Q,P-Q,106,21,16477,-0.032263646877343566,-0.037980624224447146,-0.07065876457431026,0.14598197881280817,736.0,2.4425717008560976,0.5590341637541826,5.755609881026787,-0.01642310000904263,0.131,0.9999999999998619,202.62449146363323,0.5265185805076767,106,2026-10-07 22:46:32.561243,25.0,0.11019687756235667,0.2943943746837592,0.14488027557573813
0936,cdot_cos,R,Q-R,107,21,16503,0.05935095635140175,0.26805150610621453,0.09161460322874532,0.9080759293704854,736.0,2.500723710922821,0.5601457819033132,5.7941939417944,-0.05108997085223163,0.026,0.9999999999998596,-31.18595254161785,0.5314857177738572,107,2026-10-07 22:46:32.587244,25.0,0.5073543927412729,1.6211686846891065,2.2366157717970467
0936,cdot_cos,S,R-S,108,21,16530,0.02171348343738151,-0.06008959885766033,-0.03763747291402024,0.2807111475808387,736.0,2.526872472459931,0.5604892920225503,5.824776506544928,-0.02336107510121769,0.027,0.9999999999998542,80.72220932705117,0.5364528558860054,108,2026-10-07 22:46:32.614244,25.0,0.3051444466980913,0.7179741319633866,0.9684726495226045
0936,cdot_cos,T,S-T,109,21,16745,-0.13752565610697504,-0.03007895339638259,-0.15923913954435653,0.01832527991331952,736.0,2.5394943140488437,0.5605117149101845,5.85191502901173,-0.011363075494754727,0.215,0.9999999999998477,535.0782558513015,0.5414200723846052,109,2026-10-07 22:46:32.829243,25.0,0.3478875165798778,0.1763434683056919,0.05870623994843048
0936,cdot_cos,P,T-P,110,22,17082,0.04693189538294333,0.00019297601789716265,0.18445755148991838,0.9901602723382624,703.0,2.6027001638313787,0.5617229094980825,5.891400548085168,-0.05771931996147937,0.337,0.999999999999846,-38.273160175835685,0.546387341970479,110,2026-10-07 22:46:33.166244,25.0,0.44792377740898187,0.12648561958295035,0.1875544503932788
0936,cdot_cos,Q,P-Q,111,22,17208,-0.009603294160513845,-0.0177831592362398,-0.056535189543457175,0.1957015300922588,703.0,2.6247456216477523,0.56196221108112,5.92064032725101,-0.020463121527232057,0.126,0.9999999999998377,155.68722095918616,0.5513545222618036,111,2026-10-07 22:46:33.292243,25.0,0.16192034002578673,0.31054902540865875,0.17496395092359976
0936,cdot_cos,R,Q-R,112,22,17234,0.05821445883618265,0.2920608832596654,0.0678177529966965,0.8449387350048682,703.0,2.6809585182343607,0.5629950602018735,5.958180750626217,-0.052931530214443655,0.026,0.9999999999998355,-31.43577124171253,0.5563216591416558,112,2026-10-07 22:46:33.318244,25.0,0.54150448467945,1.5143318078455823,2.162034484100325
0936,cdot_cos,S,R-S,113,22,17257,0.0029051092844468943,-0.020939514614135134,-0.055309349551735755,0.2005703081653035,703.0,2.7034908756557225,0.5632401565360476,5.987326069463788,-0.02152924381163354,0.023,0.9999999999998288,128.1222198145967,0.5612887950836077,113,2026-10-07 22:46:33.341243,25.0,0.23256453490678322,0.7590346665269075,0.9796677139722538
0936,cdot_cos,T,S-T,114,22,17481,-0.18777934324176263,-0.055349680362523655,-0.19068445252620952,0.00843318920070644,703.0,2.7158741128945985,0.5632504611930422,6.013870329024752,-0.011908612068770566,0.224,0.9999999999998213,933.6197942267498,0.5662560225978142,114,2026-10-07 22:46:33.565243,25.0,0.44580582597378277,0.1727010096231389,0.0552823091021246
0936,cdot_cos,P,T-P,115,23,17785,0.04299362570077441,0.003359913066381037,0.23077296894253704,0.9968878492338767,714.0,2.7808609279668888,0.5644681882702117,6.053248081138175,-0.06334814953614702,0.304,0.9999999999998196,-42.24225479730924,0.5712232886010085,115,2026-10-07 22:46:33.869244,25.0,0.44396335188736824,0.14218414730133183,0.213772418000955
0936,cdot_cos,Q,P-Q,116,23,17923,-0.0188533472476121,-0.025976046454418714,-0.06184697294838651,0.1756395016747999,714.0,2.802322074453808,0.564682656827812,6.081819554795293,-0.021246614268939173,0.138,0.9999999999998105,196.3063291807421,0.5761904781681152,116,2026-10-07 22:46:34.007244,25.0,0.13785340539544932,0.2788881114851621,0.15551555425303937
0936,cdot_cos,R,Q-R,117,23,17947,0.03885381013731927,0.297466204679729,0.057707157384931373,0.8088691570436507,714.0,2.8578340467367935,0.5656700310752766,6.118658152827498,-0.055685555670810544,0.024,0.9999999999998069,-34.87931905283806,0.5811576136727987,117,2026-10-07 22:46:34.031244,25.0,0.5387768710509826,1.730716576370056,2.3129988451243886
0936,cdot_cos,S,R-S,118,23,17972,0.0020537859786348266,-0.016259814394076266,-0.03680002415868444,0.28495777123656435,714.0,2.885396470119571,0.5660177509934502,6.148527831321272,-0.02804918154322851,0.025,0.9999999999998002,79.47883535904657,0.5861247501076076,118,2026-10-07 22:46:34.056243,25.0,0.37333365988868716,0.7999850003486664,1.1024969353110947
0936,cdot_cos,T,S-T,119,23,18185,-0.21516075990081693,-0.06654865158977265,-0.21721454587945174,0.004362388378615737,714.0,2.897833296754227,0.5660230736967544,6.174584011629278,-0.012744574643678204,0.213,0.9999999999997922,2875.3447308267705,0.5910919799135864,119,2026-10-07 22:46:34.269243,25.0,0.30093158921701085,0.18524676817801328,0.0583888574396993
0936,cdot_cos,P,T-P,120,24,18499,0.043465888654557444,-0.0016318222387010576,0.25862664855537437,0.998446462917242,686.0,2.9643115933634046,0.5672409102968438,6.213814151325729,-0.06900724593278909,0.314,0.9999999999997904,-46.198867142754224,0.5960592621028488,120,2026-10-07 22:46:34.583244,25.0,0.44249973472092974,0.1400010406813514,0.21171432041139396
0936,cdot_cos,Q,P-Q,121,24,18621,-0.020859408276740304,-0.027723106041947287,-0.06432529693129775,0.16684806351584008,686.0,2.9857539503021155,0.5674443413386258,6.241889154195243,-0.022589367382219647,0.122,0.9999999999997794,228.17500290989,0.6010264476812935,121,2026-10-07 22:46:34.705244,25.0,0.12811138748241868,0.3363636604277469,0.17575702408779503
0936,cdot_cos,R,Q-R,122,24,18647,0.05909817070210009,0.2977733957656455,0.0799575789788404,0.8806856846249711,686.0,3.046384326507775,0.5685177471287332,6.279485193197515,-0.06471620374895365,0.026,0.9999999999997772,-39.24595596090381,0.6059935838334172,122,2026-10-07 22:46:34.731244,25.0,0.5215514909000942,1.6724751533955338,2.3319375463715097
0936,cdot_cos,S,R-S,123,24,18673,0.015565350136023495,-0.041852888738709904,-0.043532820566076595,0.25193466843787443,686.0,3.0727226582786833,0.568824694656866,6.3085724756256365,-0.0285136726182387,0.026,0.9999999999997694,117.94371289103022,0.6109607204602684,123,2026-10-07 22:46:34.757244,25.0,0.28092848478519555,0.7582826253822024,1.0130127604195576
0936,cdot_cos,T,S-T,124,24,18882,-0.16317561171357603,-0.060062051898273836,-0.17874096184959953,0.01133428524879722,686.0,3.0858150230276493,0.5688385026738317,6.334318923464801,-0.014264915287961274,0.209,0.9999999999997595,1031.9191644724406,0.6159279558815115,124,2026-10-07 22:46:34.966244,25.0,0.36829637657551234,0.19327059502803087,0.0626428935357226
0936,cdot_cos,P,T-P,125,25,19185,0.051565505821365605,0.003832621473430166,0.21474111753494163,0.9953606364918928,715.0,3.1535097670004,0.5700506831464681,6.3733618910883845,-0.07467372108915002,0.303,0.999999999999758,-49.834828364958824,0.6208952442922127,125,2026-10-07 22:46:35.269243,25.0,0.4453164723832623,0.14588746918728934,0.2234149966097389
0936,cdot_cos,Q,P-Q,126,25,19315,-0.01918306578107691,-0.025400881259206674,-0.07074857160244252,0.14570229239373186,715.0,3.1742228293551467,0.570228053739111,6.400795625236632,-0.02316987030324376,0.13,0.9999999999997466,290.3742385841943,0.6258624382509863,126,2026-10-07 22:46:35.399244,25.0,0.10829672024418063,0.30780268356727947,0.15933124888266506
0936,cdot_cos,R,Q-R,127,25,19344,0.04569510680757591,0.2841169951782516,0.06487817258865282,0.8350644773740498,715.0,3.233538464727893,0.5712442698458348,6.437597615920612,-0.06715089723741544,0.029,0.999999999999743,-43.27920669941451,0.6308295757625906,127,2026-10-07 22:46:35.428244,25.0,0.5194638054927302,1.497329029223933,2.045366736991248
0936,cdot_cos,S,R-S,128,25,19371,0.004639899728312607,-0.027446164879062106,-0.0410552070792633,0.2637864839515303,715.0,3.2610679130501348,0.5715651554742026,6.466523196041632,-0.0315824193738557,0.027,0.9999999999997347,110.84472073266375,0.6357967126169125,128,2026-10-07 22:46:35.455244,25.0,0.3242594509917592,0.7610530794795312,1.019609197120071
0936,cdot_cos,T,S-T,129,25,19599,-0.16238883784264282,-0.0543902504171956,-0.16702873757095543,0.015131664327910533,715.0,3.2746353310197875,0.5715835607117297,6.491942948878396,-0.015663179573425928,0.228,0.9999999999997242,864.9298753700452,0.6407639667762213,129,2026-10-07 22:46:35.683244,25.0,0.36191427357380646,0.18116351852995363,0.05950621916514374
0936,cdot_cos,P,T-P,130,26,19900,0.05290508510992657,-0.00506240358707687,0.21529392295256938,0.9954240207293389,676.0,3.3436784774997936,0.5727938966732613,6.530856965782853,-0.08065815292206788,0.301,0.9999999999997223,-53.699943994387326,0.6457312658129393,130,2026-10-07 22:46:35.984244,25.0,0.44672688934028904,0.1503961239196461,0.22937922418606677
0936,cdot_cos,Q,P-Q,131,26,20013,-0.015757745922973472,-0.020600473858846204,-0.06866283103290005,0.1523133968903532,676.0,3.3651737976194145,0.5729790180327241,6.558046435825182,-0.025452157770453482,0.113,0.9999999999997098,298.21515632671793,0.6506984536934867,131,2026-10-07 22:46:36.097243,25.0,0.11429066190609387,0.3818261135157799,0.1902240718550518
0936,cdot_cos,R,Q-R,132,26,20041,0.0771788119468811,0.3019844170562671,0.09293655786985458,0.9107976968980075,676.0,3.42997117915436,0.5740855712059982,6.595742916751881,-0.0776604096489826,0.028,0.9999999999997063,-47.180969825474016,0.6556655903668427,132,2026-10-07 22:46:36.125243,25.0,0.5105516808007243,1.5182394019236536,2.3141921976766215
0936,cdot_cos,S,R-S,133,26,20068,-4.975761906476774e-05,-0.015972058911429252,-0.07722856956594587,0.12667154572751094,676.0,3.450195204127139,0.5742394094561152,6.6224537978653375,-0.024539715062849042,0.027,0.9999999999996956,345.30225445071295,0.6606327269088036,133,2026-10-07 22:46:36.152243,25.0,0.1147863602268358,0.620835690664775,0.7490379619547851
0936,cdot_cos,T,S-T,134,26,20282,-0.2033269006951502,-0.06250661777034304,-0.20327714307608544,0.006169624437040082,676.0,3.4634963064502577,0.5742469018867095,6.647390346025858,-0.01621805062320259,0.214,0.9999999999996843,1110.6762131369226,0.6655999808472581,134,2026-10-07 22:46:36.366244,25.0,0.5986301824741738,0.1958781688393032,0.0621546837528909
0936,cdot_cos,P,T-P,135,27,20576,0.060888161767845526,-0.0017432653678312025,0.2642150624629957,0.9986487547719947,667.0,3.534031060390361,0.5754592154590523,6.686233819612869,-0.08698136829416833,0.294,0.9999999999996821,-58.370473848784755,0.6705672873390963,135,2026-10-07 22:46:36.660243,25.0,0.44328352852172165,0.15804494081637496,0.23991412904796977
0936,cdot_cos,Q,P-Q,136,27,20694,-0.005122373985000384,-0.01050632118246706,-0.0660105357528459,0.16107335432692155,667.0,3.556426731650286,0.5756546664888237,6.713231394393405,-0.027981071663853767,0.118,0.999999999999669,301.86741251418306,0.6755344820525614,136,2026-10-07 22:46:36.778244,25.0,0.12141038313531274,0.35131417950670796,0.18979382423665564
0936,cdot_cos,R,Q-R,137,27,20723,0.05455692889610694,0.3222799271372185,0.05967930288110733,0.8163756593342577,667.0,3.616941206753944,0.5766449150804714,6.74945778430449,-0.07644342375337052,0.029,0.9999999999996647,-48.9395819375781,0.6805016190964511,137,2026-10-07 22:46:36.807244,25.0,0.5304849706108573,1.4815865988904853,2.0867060380571623
0936,cdot_cos,S,R-S,138,27,20748,0.0015078209545119187,-0.01415986304756321,-0.05304910794159502,0.20978403271142312,667.0,3.6423587543859344,0.5768992801595113,6.777034164201594,-0.03248752818260017,0.025,0.9999999999996536,172.80632914190838,0.6854687539731783,138,2026-10-07 22:46:36.832243,25.0,0.258461557706727,0.7748092211769642,1.0167019052796178
0936,cdot_cos,T,S-T,139,27,20978,-0.2371311114890034,-0.09485338939898129,-0.2386389324435153,0.002557987210767653,667.0,3.655681667812792,0.5769023814913691,6.801580873413101,-0.017119572898824653,0.23,0.9999999999996408,4955.275987404821,0.6904360269129433,139,2026-10-07 22:46:37.062243,25.0,0.4075126375348788,0.18517993304143981,0.05792571055155549
0936,cdot_cos,P,T-P,140,28,21243,0.05568440448648582,0.0035969297891850554,0.2928155159754892,0.9993385324202625,680.0,3.7275415235849967,0.5781135245275869,6.840333667464066,-0.09334382046375157,0.265,0.9999999999996384,-62.93579311900323,0.6954033254921866,140,2026-10-07 22:46:37.327244,25.0,0.44193316787157033,0.18138214809493794,0.27116926706492284
0936,cdot_cos,Q,P-Q,141,28,21373,-0.003307097381169685,-0.008784336907083214,-0.058991501867655505,0.18621602084773353,680.0,3.7518142063031092,0.5783391046880083,6.867398678026274,-0.031935400874134934,0.13,0.999999999999625,272.22438123503815,0.7003705325392183,141,2026-10-07 22:46:37.457243,25.0,0.14618316281314667,0.2978780219927035,0.18671294398548122
0936,cdot_cos,R,Q-R,142,28,21402,0.025747287920407383,0.32764324445520576,0.029054385301577067,0.6740059112057443,680.0,3.8049898093030996,0.5791553145386934,6.901434434444871,-0.07064996920601274,0.029,0.999999999999618,-47.432125818357285,0.7053376693243295,142,2026-10-07 22:46:37.486243,25.0,0.578118078128043,1.50852253649737,1.833641482758288
0936,cdot_cos,S,R-S,143,28,21430,0.0014435721757929368,-0.008907948640093248,-0.024303715744614447,0.3526084867691666,680.0,3.8393085134199567,0.5795821454586529,6.930796778400928,-0.046111491139912836,0.028,0.9999999999996088,57.48992614786629,0.7103048059235167,143,2026-10-07 22:46:37.514244,25.0,0.5873376688506802,0.8576440725551511,1.2256680041734682
0936,cdot_cos,T,S-T,144,28,21640,-0.2088861434086921,-0.2023193179103167,-0.21032971558448504,0.005177495495129844,680.0,3.853017877366188,0.5795884119078805,6.955063308960036,-0.018535910480291726,0.21,0.9999999999995944,4400.511303676467,0.7152720738467494,144,2026-10-07 22:46:37.724244,25.0,0.22589518435745914,0.20660029053888573,0.0652826854582445
0936,cdot_cos,P,T-P,145,29,21923,0.04473670785423526,0.002743860604712884,0.2536228512629274,0.9982398091237636,673.0,3.9260806354462887,0.58079612437691,6.99371391946136,-0.09982029014039848,0.283,0.9999999999995924,-67.30441371150623,0.7202393968088784,145,2026-10-07 22:46:38.007244,25.0,0.4429460999401871,0.17697498720525254,0.25817229003569137
0936,cdot_cos,Q,P-Q,146,29,22058,-0.004407548534524753,-0.012597534178611553,-0.049144256388760015,0.2264254296937502,673.0,3.953185720124361,0.581069929282949,7.021097253609836,-0.03750170373565149,0.135,0.999999999999578,227.60215405295983,0.7252066122953742,146,2026-10-07 22:46:38.142244,25.0,0.18980586877822114,0.2962182031169676,0.2007784050227575
0936,cdot_cos,R,Q-R,147,29,22082,0.020977987095127958,0.30970635462793916,0.025385535629652713,0.653540457951195,673.0,4.00605955028787,0.5818599423753616,7.054679522812953,-0.07385797392897636,0.024,0.9999999999995706,-46.019832509730115,0.730173745066698,147,2026-10-07 22:46:38.166244,25.0,0.6112521617636958,1.9029685528084057,2.203076256812875
0936,cdot_cos,S,R-S,148,29,22108,0.006666318656368518,-0.022618525500754508,-0.01431166843875944,0.4114942353576003,673.0,4.0445282106591645,0.5823571499249353,7.084683145178257,-0.054334242417781335,0.026,0.9999999999995607,39.26676400617418,0.7351408798956943,148,2026-10-07 22:46:38.192243,25.0,0.6981463905076225,1.0098704484558476,1.4795638604344032
0936,cdot_cos,T,S-T,149,29,22337,-0.19354478518424625,-0.11022781523170908,-0.20021110384061477,0.006657856355628654,673.0,4.058572813607574,0.5823651932243437,7.108675767967889,-0.019966289217438205,0.229,0.9999999999995456,4272.867570297164,0.7401081715397004,149,2026-10-07 22:46:38.421243,25.0,0.17883369614823044,0.19289791855171987,0.06133014387951786
0936,cdot_cos,P,T-P,150,30,22596,0.05255639213250134,0.005616523356971025,0.24610117731674758,0.9978764270684513,661.0,4.132875457355852,0.5835702215101347,7.147249116564732,-0.10669506893487413,0.259,0.9999999999995433,-71.97240159429273,0.7450754885058177,150,2026-10-07 22:46:38.680243,25.0,0.44358498726732976,0.19372455270483943,0.28688279439489617
0936,cdot_cos,Q,P-Q,151,30,22732,-0.0025466376646055148,-0.008220452951746539,-0.05510302979710685,0.20139862796124317,661.0,4.158922131908681,0.5838133084353376,7.1740209252679294,-0.037853641535218134,0.136,0.9999999999995274,283.1967508832091,0.7500427100710082,151,2026-10-07 22:46:38.816243,25.0,0.16224933867023508,0.2769031354642002,0.19151966582962293
0936,cdot_cos,R,Q-R,152,30,22756,0.010373876311679672,0.3316677398634196,0.012920513976285186,0.5800583306426037,661.0,4.208193110202115,0.5845132071870192,7.206365746488031,-0.07222091378222442,0.024,0.9999999999995183,-49.10320551999546,0.7550098423746124,152,2026-10-07 22:46:38.840243,25.0,0.6213485017893058,1.8854962220906102,2.0529574288930728
0936,cdot_cos,S,R-S,153,30,22785,0.0017277445167383219,-0.007434720836775561,-0.00864613179494135,0.44617109719959586,661.0,4.24942595056903,0.5850513257917599,7.236688188298447,-0.061069479290157255,0.029,0.9999999999995084,20.723004917177953,0.7599769792920625,153,2026-10-07 22:46:38.869244,25.0,0.8330993164525078,0.9547206441187993,1.4218220816177773
0936,cdot_cos,T,S-T,154,30,22996,-0.2143564443956704,-0.22648550573940587,-0.21608418891240871,0.004486862120558141,661.0,4.263566907561005,0.5850567362840762,7.260366118861195,-0.021081053722867758,0.211,0.9999999999994915,7390.903309657871,0.7649442661490217,154,2026-10-07 22:46:39.080243,25.0,0.15003460439241006,0.21260498865643884,0.06701875351646833
0936,cdot_cos,P,T-P,155,31,23257,0.05020890866581871,0.004996522037172947,0.2645653530614891,0.9986605205409694,658.0,4.339145255782047,0.5862604605858589,7.298886938322484,-0.11376139286399209,0.261,0.9999999999994895,-76.9946565038721,0.7699115964809036,155,2026-10-07 22:46:39.341243,25.0,0.44277629441708827,0.196218744146043,0.2895722154062926
0936,cdot_cos,Q,P-Q,156,31,23403,-0.0033960920386176562,-0.013996544209674822,-0.05360500070443636,0.20748950021102996,658.0,4.365993092005239,0.5865104269907739,7.325516090298303,-0.04088554322743251,0.146,0.9999999999994723,291.5425761367017,0.7748788319159625,156,2026-10-07 22:46:39.487243,25.0,0.16822790432038465,0.21976817074582536,0.18388928919994582
0936,cdot_cos,R,Q-R,157,31,23427,-0.023791566629998203,0.33062102765407725,-0.020395474591380545,0.3752200474415626,658.0,4.403317561639828,0.5869623482009287,7.354620422975623,-0.05724050798053122,0.024,0.9999999999994588,-36.18985873111902,0.7798459636838999,157,2026-10-07 22:46:39.511244,25.0,0.7514702838258782,1.9454298325473258,1.5551862347745378
0936,cdot_cos,S,R-S,158,31,23451,0.005183858976871778,-0.014562607438031554,0.02897542560686998,0.6735720328771264,658.0,4.459373723967511,0.5877732415198733,7.388198365126344,-0.08683193029500771,0.024,0.9999999999994522,-36.49237405604915,0.7848130960062201,158,2026-10-07 22:46:39.535244,25.0,0.711208501892918,1.477923588946754,2.335673430320114
0936,cdot_cos,T,S-T,159,31,23677,-0.1689984759173583,-0.13782253260606117,-0.1741823348942301,0.012685132405939232,658.0,4.4742578939092725,0.5877885082183255,7.411734361712296,-0.023240121011004568,0.226,0.9999999999994341,4165.393682407116,0.7897804055525685,159,2026-10-07 22:46:39.761244,25.0,0.0648100729424125,0.20258577104994313,0.0658591590343427
0936,cdot_cos,P,T-P,160,32,23915,0.06214135703232498,0.014159108887757616,0.2311398329496833,0.996916174520868,701.0,4.550942492482085,0.5889877775377147,7.450174977093086,-0.12085663388523576,0.238,0.9999999999994317,-81.39665652745084,0.7947477277045583,160,2026-10-07 22:46:39.999244,25.0,0.44588016799133373,0.21046233242765727,0.3222041956840876
0936,cdot_cos,Q,P-Q,161,32,24069,-0.00803710409511509,-0.023808327130341363,-0.07017846112744007,0.14748535210748462,701.0,4.574437964144837,0.5891651099463605,7.475670731400718,-0.037435530750928196,0.154,0.9999999999994126,470.4222074878855,0.7997149764378106,161,2026-10-07 22:46:40.153243,25.0,0.10770128536862728,0.2126073997853516,0.152567997810078
0936,cdot_cos,R,Q-R,162,32,24095,-0.01772070873224508,0.30668568732327867,-0.00968360463712999,0.43977133898402887,701.0,4.616425571615974,0.5896937414514423,7.505579616625357,-0.0673529447903938,0.026,0.9999999999993987,-56.5940806627458,0.8046821095484683,162,2026-10-07 22:46:40.179244,25.0,0.6413444157949608,1.998644323424593,1.6149079796590877
0936,cdot_cos,S,R-S,163,32,24122,0.026741672179880632,-0.03816549151150851,0.04446238091212571,0.752419740362227,701.0,4.678367468962916,0.5905977141431099,7.540250489301442,-0.10041780520188837,0.027,0.9999999999993933,-36.57727796013033,0.8096492442112452,163,2026-10-07 22:46:40.206244,25.0,0.719446663845546,1.4245996503893696,2.2941443461830575
0936,cdot_cos,T,S-T,164,32,24340,-0.15571857881171275,-0.09905657414388637,-0.18246025099159338,0.010338314807565713,701.0,4.693353952737,0.5906101305601602,7.563503728838981,-0.024496364816268563,0.218,0.9999999999993745,6114.6013441773,0.8146165573815476,164,2026-10-07 22:46:40.424243,25.0,0.04508101120364393,0.21303099168264772,0.06874533841322662
0936,cdot_cos,P,T-P,165,33,24616,0.07540697996680323,-0.002181000064776451,0.23112555877851598,0.9969150772436616,701.0,4.771248981336551,0.5918068903197753,7.6019009242576745,-0.12847016759557953,0.276,0.9999999999993714,-86.87942750744911,0.8195839273030487,165,2026-10-07 22:46:40.700243,25.0,0.4451595403974917,0.1765578752385192,0.28222836449112676
0936,cdot_cos,Q,P-Q,166,33,24737,-0.02221913564213657,-0.023362303464905587,-0.0976261156089398,0.08012477783742256,701.0,4.790813899868662,0.5919030301134981,7.626141026532677,-0.032597784869819874,0.121,0.9999999999993486,997.2185191304222,0.8245511511528143,166,2026-10-07 22:46:40.821243,25.0,0.05280916742296933,0.3845819547858913,0.16169354158769933
0936,cdot_cos,R,Q-R,167,33,24761,0.07582084186610556,0.28687915705225553,0.09803997750824213,0.9206345070491999,701.0,4.864317814394736,0.5930071709689759,7.663345540932889,-0.12355486006359628,0.024,0.9999999999993441,-82.37814472901972,0.8295182821053476,167,2026-10-07 22:46:40.845243,25.0,0.4789459523689088,2.056653312493162,3.0626631052530864
0936,cdot_cos,S,R-S,168,33,24787,0.01118840573657069,-0.04184849888389781,-0.06463243612953487,0.16578340837674224,701.0,4.889533258868334,0.5932058998631565,7.688831256999606,-0.0428121811788562,0.026,0.9999999999993262,406.2956180461769,0.8344854156097934,168,2026-10-07 22:46:40.871244,25.0,0.1516811850911955,0.772174743450115,0.9698247874460652
0936,cdot_cos,T,S-T,169,33,25016,-0.19122084327614197,-0.04732321819789628,-0.20240924901271265,0.006304098644037839,701.0,4.904470901054142,0.5932134561489361,7.711778957788487,-0.02546621779493129,0.229,0.9999999999993053,2295.567411030599,0.8394527496031509,169,2026-10-07 22:46:41.100243,25.0,0.5060416897625547,0.20542119203124767,0.06522987854064753
0936,cdot_cos,P,T-P,170,34,25317,0.06464871319839373,0.0005078860288697564,0.2558695564745357,0.998335789610519,657.0,4.9836161648186454,0.5944095332023108,7.750156291600248,-0.1360990743354744,0.301,0.9999999999993022,-92.4964292462507,0.8444201576200122,170,2026-10-07 22:46:41.401243,25.0,0.4435766289909307,0.16817095012916267,0.2629410756295786
0936,cdot_cos,Q,P-Q,171,34,25442,-0.017056396703661377,-0.024209288947717275,-0.08170510990205511,0.11479942856016342,657.0,5.005709813031898,0.5945469995437184,7.774715240490347,-0.038377336959367486,0.125,0.9999999999992785,710.8775601031901,0.8493873901220981,171,2026-10-07 22:46:41.526243,25.0,0.07836799060145704,0.3529850430829704,0.17674918570602216
0936,cdot_cos,R,Q-R,172,34,25468,0.03621421328127195,0.3301374915674562,0.053270609984933326,0.7911324778626002,657.0,5.071862425589388,0.5954939354247457,7.80983419695304,-0.11583765378903915,0.026,0.9999999999992699,-81.80101565655518,0.8543545223215396,172,2026-10-07 22:46:41.552243,25.0,0.5123756569402158,1.9387381298014983,2.5443312522111476
0936,cdot_cos,S,R-S,173,34,25498,0.0033076168098105253,-0.01980006980980046,-0.03290659647146143,0.3051982660817808,657.0,5.106524195781576,0.5958590490391895,7.837306612142939,-0.06128448712004438,0.03,0.9999999999992538,149.4142220692009,0.8593216592985179,173,2026-10-07 22:46:41.582243,25.0,0.41058893011809583,0.8262022349239118,1.1553923397396026
0936,cdot_cos,T,S-T,174,34,25718,-0.2340826428697183,-0.14964861085260725,-0.23739025967952884,0.0026388848277147823,657.0,5.121434559684823,0.5958622055176007,7.859966782357686,-0.02649092113912528,0.22,0.999999999999231,11022.90636850921,0.8642889947249658,174,2026-10-07 22:46:41.802243,25.0,0.26890026560979996,0.2165442863736948,0.06777438137839376
0936,cdot_cos,P,T-P,175,35,25974,0.06599610585474043,0.015506977933035921,0.3000787487244587,0.9994483079580527,644.0,5.201803681786002,0.5970571140330211,7.898327825831695,-0.14398226057779612,0.256,0.9999999999992273,-98.3266400083671,0.8692563702301483,175,2026-10-07 22:46:42.058244,25.0,0.44219133569694974,0.20638288078919653,0.31394188320773075
0936,cdot_cos,Q,P-Q,176,35,26120,-0.0007243713436630071,-0.004837643505447636,-0.06672047719840343,0.1586894202202623,644.0,5.227102594648891,0.5972467325003067,7.923378070929095,-0.04578022991114721,0.146,0.9999999999992034,517.8927562932881,0.8742236305813968,176,2026-10-07 22:46:42.204243,25.0,0.11705924706824633,0.201008563261402,0.17328022508828456
0936,cdot_cos,R,Q-R,177,35,26145,-0.03831341626480155,0.3656725938832564,-0.03758904492113854,0.2809556677751497,644.0,5.260498182258331,0.5975823759542849,7.950321314999386,-0.06075534353423142,0.025,0.9999999999991831,-44.61613490623151,0.8791907610540409,177,2026-10-07 22:46:42.229243,25.0,0.7815452357810863,1.9603664655946318,1.3358235043775935
0936,cdot_cos,S,R-S,178,35,26169,0.0058925257160435465,-0.014441672916972088,0.0442059419808451,0.751223545201197,644.0,5.325120917928623,0.5984793748079524,7.984715663757685,-0.11857771885603516,0.024,0.9999999999991757,-64.46203926056887,0.8841578910567462,178,2026-10-07 22:46:42.253243,25.0,0.6140783716562485,1.6633615068481304,2.6926139862621565
0936,cdot_cos,T,S-T,179,35,26397,-0.2125188724681713,-0.25406816608441757,-0.21841139818421484,0.004234337986110372,644.0,5.3403395345870415,0.5984844289588324,8.007180838723077,-0.02813549602549978,0.228,0.9999999999991509,17894.64243930433,0.8891252459650174,179,2026-10-07 22:46:42.481244,25.0,0.04017445858843266,0.21215576680806192,0.06674831867727414
0936,cdot_cos,P,T-P,180,36,26618,0.12674812311933092,-0.00031789235290575986,0.33926699558750223,0.999792811613641,577.0,5.421863947593099,0.5996772040067215,8.04551902233291,-0.15193616933166193,0.221,0.9999999999991476,-103.79213878195182,0.8940925952557409,180,2026-10-07 22:46:42.702244,25.0,0.4427188819518734,0.22280008721685376,0.3688887466337454
0936,cdot_cos,Q,P-Q,181,36,26740,-0.014232807385766214,-0.03209366979802274,-0.14098093050509714,0.02862246615662647,577.0,5.438817173136891,0.599711333928367,8.068296053578154,-0.03188375623047534,0.122,0.9999999999991196,3517.5121217219385,0.8990598349479267,181,2026-10-07 22:46:42.824243,25.0,0.02316029560334656,0.27653212605239585,0.13896086511304623
0936,cdot_cos,R,Q-R,182,36,26763,-0.00942430014371685,0.3764670160604545,0.004808507242049365,0.5300170307350666,577.0,5.489337786349884,0.6003431601829345,8.099077334826953,-0.09555352600172425,0.023,0.9999999999991047,-100.77100992712495,0.904026962919675,182,2026-10-07 22:46:42.847244,25.0,0.5135922087742206,2.6523160389896954,2.196548400564911
0936,cdot_cos,S,R-S,183,36,26787,0.05682896030191068,-0.07627431996294742,0.06625326044562753,0.8397449372055303,577.0,5.560823710930417,0.601343524939398,8.134829736405205,-0.13660136986059118,0.024,0.999999999999099,-41.032876851820106,0.9089940927631024,183,2026-10-07 22:46:42.871244,25.0,0.7404526079987767,1.859513046948887,2.9785801908555434
0936,cdot_cos,T,S-T,184,36,27011,-0.07182210972994216,-0.11903130929416803,-0.12865107003185283,0.03855777345147646,577.0,5.57859441260343,0.6013894374997911,8.157648545511421,-0.034230733297552024,0.224,0.9999999999990751,2229.6869459368972,0.9139614561223048,184,2026-10-07 22:46:43.095244,25.0,0.05025697150597525,0.22203737358158265,0.07933348961166756
0936,cdot_cos,P,T-P,185,37,27195,0.09619357745168007,0.00743818003943088,0.16801568718162224,0.9852316756917071,583.0,5.660296454294966,0.60256199243573,8.195734661255884,-0.15862510247721273,0.184,0.9999999999990711,-106.08830799049193,0.9189287745632797,185,2026-10-07 22:46:43.279244,25.0,0.45648312101791055,0.2732054539044513,0.44403283528008425
0936,cdot_cos,Q,P-Q,186,37,27322,-0.019490809012057436,-0.03978983945455346,-0.1156843864637375,0.05254499181122792,583.0,5.679134019640268,0.6026244949325884,8.218707992358118,-0.03689847369852271,0.127,0.9999999999990431,1947.5482564249583,0.9238960267799758,186,2026-10-07 22:46:43.406244,25.0,0.036921505837478066,0.2578546865774249,0.14832728618348476
0936,cdot_cos,R,Q-R,187,37,27346,-0.025511537079904494,0.37747433958095145,-0.006020728067847057,0.46244133273086213,583.0,5.725791544685632,0.6031744263066419,8.248291954757786,-0.09187580623309093,0.024,0.9999999999990266,-99.97126028533137,0.9288631559284305,187,2026-10-07 22:46:43.430244,25.0,0.5496973175204218,2.371826275148555,1.9440635435568066
0936,cdot_cos,S,R-S,188,37,27370,0.021049110675959746,-0.03957899626868438,0.04656064775586424,0.7620617120986174,583.0,5.792981680847399,0.6040800945786425,8.282734689422545,-0.13352359993066798,0.024,0.9999999999990197,-45.9857046836529,0.9338302857709014,188,2026-10-07 22:46:43.454243,25.0,0.7320449553163989,1.8687860702671735,2.799589006740303
0936,cdot_cos,T,S-T,189,37,27594,-0.06494623550526035,-0.10126261004120497,-0.0859953461812201,0.10434209566372121,583.0,5.815493276058456,0.6042040440034859,8.30643803705552,-0.04507968921104939,0.224,0.9999999999989958,713.5483753261783,0.9387976619476599,189,2026-10-07 22:46:43.678244,25.0,0.14058459321595226,0.23338341749891808,0.10049819290650472
0936,cdot_cos,P,T-P,190,38,27778,0.0797945121392975,-0.0030166703805588517,0.14474074764455785,0.9738782677037107,574.0,5.897537451886914,0.6053602799865424,8.344321533054613,-0.16560603712724398,0.184,0.9999999999989926,-104.24026728314303,0.943764990808447,190,2026-10-07 22:46:43.862243,25.0,0.482975390367265,0.27527559671316676,0.44589225993727305
0936,cdot_cos,Q,P-Q,191,38,27867,-0.034166390194197274,-0.0477563742990567,-0.11396090233349478,0.05473186441538778,574.0,5.9167946956489015,0.6054252254845105,8.367149160209063,-0.0392046556666992,0.089,0.9999999999989635,1946.268570034557,0.9487322019126013,191,2026-10-07 22:46:43.951244,25.0,0.039789902076761405,0.4753894748825979,0.21637352541558563
0936,cdot_cos,R,Q-R,192,38,27920,0.004591309899471227,0.40079270773785897,0.0387577000936685,0.724908665903492,574.0,5.982156778416017,0.6062850589739567,8.40093834692306,-0.13391762856966333,0.053,0.9999999999989546,-110.15269126580384,0.9536993681832899,192,2026-10-07 22:46:44.004243,25.0,0.49299907334788273,1.3230212498092255,1.2332468446625529
0936,cdot_cos,S,R-S,193,38,27943,0.07708200265773466,-0.07594806350596964,0.07249069275826343,0.8596356770573477,574.0,6.057034948128679,0.6073038427430941,8.436940787229284,-0.15508137295076885,0.023,0.9999999999989498,-20.773539019986423,0.9586664969736659,193,2026-10-07 22:46:44.027244,25.0,0.8724336775214572,2.0022037150991294,3.2555725962027213
0936,cdot_cos,T,S-T,194,38,28152,-0.07390719512568121,-0.10120014188831589,-0.15098919778341585,0.02242869774231287,574.0,6.074258149310577,0.6073304113070622,8.459139955141202,-0.035943287256111615,0.209,0.9999999999989236,4484.174825470685,0.963633868875824,194,2026-10-07 22:46:44.236243,25.0,0.036348114099507466,0.23871684091662562,0.0824076611574036
0936,cdot_cos,P,T-P,195,39,28352,0.05859091485552783,-0.006948727459192015,0.13249810998120903,0.964853551315412,488.0,6.156818587631829,0.6084727530872626,8.496865943950754,-0.17353385086222334,0.2,0.9999999999989208,-120.44605738046415,0.9686012310244142,195,2026-10-07 22:46:44.436243,25.0,0.4525420958751584,0.24863570761808118,0.41280219160626075
0936,cdot_cos,Q,P-Q,196,39,28469,-0.10566308901110999,-0.19445255579734583,-0.16425400386663783,0.016200976769608178,488.0,6.173712432357809,0.6084919241888694,8.518893481903918,-0.03579730671386616,0.117,0.9999999999988894,7184.592047593643,0.9735684843755751,196,2026-10-07 22:46:44.553244,25.0,0.02132918475431622,0.2953450254639586,0.14439183526478908
0936,cdot_cos,R,Q-R,197,39,28498,-0.10192245554516874,0.3582893359582725,0.003740633465941251,0.5233619362199601,488.0,6.225929323590395,0.6091110536885801,8.549287682354269,-0.11120246954007826,0.029,0.9999999999988736,-121.79223064229976,0.9785356203873012,197,2026-10-07 22:46:44.582243,25.0,0.5075861020791667,2.3774585881552324,1.8005824562960686
0936,cdot_cos,S,R-S,198,39,28529,0.620812972200557,0.33785954093894793,0.7227354277457257,0.999999985776719,488.0,6.311605030470813,0.6102930610886308,8.587591222284956,-0.1842853412018562,0.031,0.9999999999988738,-61.82945357080099,0.9835027600240632,198,2026-10-07 22:46:44.613244,25.0,0.6726201477796269,1.6386133185296474,2.7637324800134673
0936,cdot_cos,T,S-T,199,39,28701,-0.3390790355390912,0.233664821325508,-0.9598920077396482,3.78534044773331e-11,488.0,6.327523349339233,0.6102930610886754,8.60924974555123,-0.034517190489600204,0.172,0.9999999999988453,,0.9884700943993372,199,2026-10-07 22:46:44.785243,25.0,0.01305030426387979,0.2966084212238458,0.09254836551407358
0936,cdot_cos,P,T-P,200,40,28840,0.015138486412498637,-0.0001429506475149165,0.35421752195158984,0.9998574161974096,655.0,6.413638327371816,0.6114736058548071,8.647549485356988,-0.1880313861242673,0.139,0.9999999999988439,-130.03674239112993,0.9934373847401851,200,2026-10-07 22:46:44.924243,25.0,0.4420074376810085,0.4714795261625205,0.6195322160617429
0936,cdot_cos,Q,P-Q,201,40,29036,0.0007417858010630911,-0.11867311082021931,-0.014396700611435546,0.41097953331128184,655.0,6.458594657612414,0.6119584766250562,8.67601574306023,-0.09912639547349646,0.196,0.999999999998825,183.35811541104894,0.9984047578649383,201,2026-10-07 22:46:45.120243,25.0,0.40783804347551067,0.1578096827096674,0.22936903183978785
0936,cdot_cos,R,Q-R,202,40,29063,-0.17517040838621473,0.26365568453091753,-0.17591219418727783,0.012154763944406987,655.0,6.475499722994005,0.6119728133609059,8.697775038773601,-0.03745343868727058,0.027,0.999999999998793,4301.743258207427,1.003371891590398,202,2026-10-07 22:46:45.147244,25.0,0.19269305829247735,1.9200813168951392,0.6261135326515259
0936,cdot_cos,S,R-S,203,40,29088,0.33573006717193304,0.009886599330586346,0.5109004755581478,0.9999971622944198,655.0,6.5622790487247515,0.6131516597399146,8.7360735677364,-0.1935855329674408,0.025,0.9999999999987931,-132.4448181377686,1.0083390231387612,203,2026-10-07 22:46:45.172243,25.0,0.4464054326604454,2.05876564349337,3.4711730292298526
0936,cdot_cos,T,S-T,204,40,29308,-0.0011680523910793683,-0.004933140104621776,-0.3368981195630124,0.00021982630645729184,655.0,6.578438005168674,0.6131519187369482,8.757568247861371,-0.03633167798897722,0.22,0.9999999999987637,607164.6952637136,1.0133064376268879,204,2026-10-07 22:46:45.392244,25.0,0.013190149894189323,0.20969453721019315,0.07344980201782808
0936,cdot_cos,P,T-P,205,41,29495,0.06626862843485051,0.00017189950729096568,0.06743668082592988,0.8436864533952355,558.0,6.6545446450972365,0.6141454685045995,8.793232307889445,-0.17215495266693465,0.187,0.9999999999987564,-136.70505403975355,1.0182738057109881,205,2026-10-07 22:46:45.579243,25.0,0.45431729479149213,0.2712464029569941,0.40698737929712736
0936,cdot_cos,Q,P-Q,206,41,29605,-0.010468837506492572,-0.029740444763468505,-0.07673746594134309,0.12803600175762114,558.0,6.6798841598745895,0.6142961645843875,8.816816193374008,-0.05774959410454859,0.11,0.9999999999987268,759.1793942040198,1.02324106195626,206,2026-10-07 22:46:45.689243,25.0,0.1379230864491186,0.3874364573811093,0.23035922524866334
0936,cdot_cos,R,Q-R,207,41,29633,0.007680207632531859,0.3935537273774664,0.01814904513902443,0.6115247882804034,558.0,6.739780665721081,0.6150156156773529,8.848541506715533,-0.137283009975381,0.028,0.999999999998713,-110.54735568337516,1.028208197250406,207,2026-10-07 22:46:45.717243,25.0,0.5602685239612714,2.4638314085257487,2.1391609230889674
0936,cdot_cos,S,R-S,208,41,29660,0.08127478803875589,-0.10557379299382912,0.07359458040622403,0.8629326824916619,558.0,6.817858718752031,0.6160299894077592,8.884518537923489,-0.18061614858561226,0.027,0.9999999999987087,-42.71910570167461,1.0331753319239023,208,2026-10-07 22:46:45.744244,25.0,0.7866920471728875,1.8091626888749714,2.891779741887068
0936,cdot_cos,T,S-T,209,41,29872,-0.04072143318328167,-0.08350674701033071,-0.12199622122203756,0.045221552174209104,558.0,6.837475450920329,0.6160831194106507,8.906618031962616,-0.04570355877605646,0.212,0.9999999999986796,2539.2919719011866,1.0381427487820787,209,2026-10-07 22:46:45.956243,25.0,0.05224006384000837,0.25233273112266114,0.09253175551083785
0936,cdot_cos,P,T-P,210,42,30053,0.13196715328989445,0.004428048062361958,0.17268858647317611,0.9868385540843913,597.0,6.92484779674804,0.617241846720078,8.944692066235751,-0.20492262685098392,0.181,0.999999999998677,-137.40857471774848,1.0431101203641977,210,2026-10-07 22:46:46.137243,25.0,0.45979633697188405,0.2938618333708572,0.4827201426945342
0936,cdot_cos,Q,P-Q,211,42,30146,-0.0005172191740685907,-0.0007415761098339085,-0.13248437246396302,0.035158096928166085,597.0,6.943853434600579,0.6172831042110455,8.966563138513942,-0.044918451741890617,0.093,0.9999999999986433,3878.1848182457934,1.0480773570682353,211,2026-10-07 22:46:46.230243,25.0,0.028379065922246538,0.363844019413689,0.20436169733913565
0936,cdot_cos,R,Q-R,212,42,30204,-0.00924042888984303,0.4118825266592193,-0.008723209715774439,0.44569499315557204,597.0,6.992522784358986,0.6178059738085978,8.995398969897384,-0.11552760895469774,0.058,0.9999999999986239,-135.04161944650346,1.0530445396403658,212,2026-10-07 22:46:46.288243,25.0,0.5427054276116619,0.9163045085739894,0.8391267199725264
0936,cdot_cos,S,R-S,213,42,30226,0.0016475734774947831,-0.005983598480099479,0.010888002367337812,0.5676329363565579,597.0,7.050144757595162,0.6184715006913295,9.026302645892205,-0.13773007492767872,0.022,0.9999999999986098,-33.36073500419651,1.0580116663985981,213,2026-10-07 22:46:46.310244,25.0,0.8511194944692478,3.2384003799007424,2.619180601644375
0936,cdot_cos,T,S-T,214,42,30455,0.11204401858188066,-0.43205524034822934,0.11039644510438588,0.9404706586442692,597.0,7.1350124010746185,0.6195731855626635,9.06358257861994,-0.20468422467389638,0.229,0.9999999999986088,-60.77432075938823,1.0629791252594138,214,2026-10-07 22:46:46.539244,25.0,0.7210048050408054,0.33215920574150604,0.3706010632290673
0936,cdot_cos,P,T-P,215,43,30650,0.1449630951875381,-0.026032271864707666,0.032919076605657446,0.6948678909209063,560.0,7.202273673824772,0.6203863771595586,9.09665846972597,-0.16382509279814472,0.195,0.999999999998596,50.24539362157651,1.0679465333708869,215,2026-10-07 22:46:46.734244,25.0,0.7792627158064994,0.2200981403911069,0.3449296038469403
0936,cdot_cos,Q,P-Q,216,43,30755,-0.0011103972413788372,-0.0025819857650759325,-0.14607349242891696,0.025287377807690404,560.0,7.22085067582715,0.6204159578159111,9.118223912832823,-0.04551666132424856,0.105,0.9999999999985599,3999.520161556245,1.0729137952922667,216,2026-10-07 22:46:46.839243,25.0,0.07433052983526289,0.43514333256655763,0.17692382859407932
0936,cdot_cos,R,Q-R,217,43,30780,0.04650232843350804,0.4444436329188435,0.04761272567488688,0.7667979588207076,560.0,7.293653773663749,0.6213125165075342,9.15251376649043,-0.1793442514996239,0.025,0.9999999999985496,-149.26807516984832,1.077880926329168,217,2026-10-07 22:46:46.864243,25.0,0.47416255530223317,2.1493370134862033,2.912123913463951
0936,cdot_cos,S,R-S,218,43,30804,0.001216347348394592,-0.007166803366704981,-0.04528598108511345,0.24376463147215302,560.0,7.32831752650146,0.6215973587790902,9.177783903961302,-0.08599817396809968,0.024,0.9999999999985245,327.7114629847698,1.0828480563710186,218,2026-10-07 22:46:46.888243,25.0,0.33775227942724223,2.5880172906196743,1.4443230349046414
0936,cdot_cos,T,S-T,219,43,31030,0.18504101110450044,-0.4770420491114104,0.18382466375610584,0.9900049165664885,560.0,7.417878603613493,0.622753329196814,9.215916563936817,-0.22381289724311917,0.226,0.999999999998525,-119.21993950881594,1.087815527538976,219,2026-10-07 22:46:47.114244,25.0,0.5402309037367975,0.28205632509952994,0.3962879518231548
0936,cdot_cos,P,T-P,220,44,31210,0.14828509117844363,0.00588791790747406,-0.03675591992605681,0.2851824879722704,602.0,7.455806985446448,0.6230860617392421,9.241868996374764,-0.09556910801113666,0.18,0.999999999998497,385.4260490908076,1.0927829234464468,220,2026-10-07 22:46:47.294244,25.0,0.2613497192783352,0.1571739309991191,0.21071323240530307
0936,cdot_cos,Q,P-Q,221,44,31323,-0.0009776232669952351,-0.0024479725324068778,-0.14926271444543887,0.023394819183360848,602.0,7.474461218773176,0.6231133521611285,9.263255345012574,-0.047181021535450056,0.113,0.9999999999984586,1773.0794590519372,1.097750204769349,221,2026-10-07 22:46:47.407244,25.0,0.3585870982384323,0.333491058486455,0.16508171085600293
0936,cdot_cos,R,Q-R,222,44,31359,0.005127337605200742,0.4212190889231893,0.006104960872195977,0.5380821101203705,602.0,7.531175964664387,0.6237408175253196,9.293538418112476,-0.14407414196932772,0.036,0.9999999999984399,-154.4198707426433,1.1027173544457252,222,2026-10-07 22:46:47.443244,25.0,0.5104193547318677,1.518197157890206,1.5754096080891808
0936,cdot_cos,S,R-S,223,44,31385,0.002029863157882685,-0.008277050453943297,-0.003097474447318057,0.4806504528155823,602.0,7.583771414141271,0.6243009602169057,9.322811009644482,-0.13450339345357507,0.026,0.9999999999984208,17.086268658887604,1.1076844875623253,223,2026-10-07 22:46:47.469243,25.0,0.9313164219487615,2.75631092211062,2.0229019029570896
0936,cdot_cos,T,S-T,224,44,31609,0.1949192860555759,-0.49354705938347276,0.19288942289769323,0.9920154920996705,602.0,7.674504132614139,0.6254559875961834,9.360977641849788,-0.23394474312924757,0.224,0.999999999998421,-86.09436577846634,1.1126519698612611,224,2026-10-07 22:46:47.693243,25.0,0.6537283325519434,0.3630833294623306,0.4050567788967317
0936,cdot_cos,P,T-P,225,45,31812,0.23587145283258862,-0.0066544362502177394,0.040952166777012716,0.7357129428867877,576.0,7.746432745740395,0.6263116747217568,9.39468500228425,-0.1872650758908901,0.203,0.9999999999984076,54.552260801023934,1.1176194195489197,225,2026-10-07 22:46:47.896243,25.0,0.7793690916491559,0.2200172902442376,0.3543281434790946
0936,cdot_cos,Q,P-Q,226,45,31920,-0.000516662694697166,-0.0012161620495940422,-0.23638811552728578,0.0027056524142845977,576.0,7.7638311524532995,0.6263148201359203,9.415586491762879,-0.04555874668901098,0.108,0.9999999999983663,45051.72350366787,1.1225866995937792,226,2026-10-07 22:46:48.004243,25.0,0.044582723667959186,0.43830935476852617,0.1610963584528173
0936,cdot_cos,R,Q-R,227,45,31947,0.05576945445845953,0.44837367549083457,0.0562861171531567,0.8033164973737109,576.0,7.841107566370397,0.6272482299642367,9.450457793799265,-0.20338198314142486,0.027,0.9999999999983555,-169.08246695568715,1.127553834034485,227,2026-10-07 22:46:48.031244,25.0,0.46024598336107736,2.027250083291196,2.8620894043369405
0936,cdot_cos,S,R-S,228,45,31966,0.0001256835026101234,-0.0011126758503063484,-0.05564377095584941,0.1992331197156833,576.0,7.873302656951024,0.6274795815642726,9.47474423232388,-0.08530643846987702,0.019,0.9999999999983246,510.37271690879516,1.1325209545554757,228,2026-10-07 22:46:48.050244,25.0,0.2505406659703153,3.2639646443733317,1.6944784516119578
0936,cdot_cos,T,S-T,229,45,32194,0.19453344553652563,-0.5873373713684846,0.1944077620339155,0.9923106049199828,576.0,7.9651382228565835,0.6286309920232268,9.512923421129534,-0.24494527034166994,0.228,0.9999999999983239,-138.64632775421646,1.1374884620028918,229,2026-10-07 22:46:48.278244,25.0,0.5211420336296407,0.31504410638280234,0.4027875697612255
0936,cdot_cos,P,T-P,230,46,32388,0.18768984955399198,0.44488485451986876,-0.006843595982533646,0.45733155604892944,601.0,8.016962769461582,0.6291611582757173,9.541712054770175,-0.13939937274131392,0.194,0.9999999999982987,199.08075458321056,1.1424559097780738,230,2026-10-07 22:46:48.472243,25.0,0.46900231284504357,0.2478556816780618,0.2671368381700952
0936,cdot_cos,Q,P-Q,231,46,32506,0.16411111379740942,0.4588806871545355,-0.023578735756582564,0.3567568387207469,601.0,8.061306227347671,0.62957451637975,9.568715177599977,-0.11993920766018279,0.118,0.9999999999982689,47.07822319503619,1.1474232158438649,231,2026-10-07 22:46:48.590244,25.0,0.8502284178014006,0.31971185785415435,0.3757920159838094
0936,cdot_cos,R,Q-R,232,46,32537,0.10367077425297258,0.46807212569161155,-0.06044033954443684,0.18078938328239083,601.0,8.092414767915162,0.6297839164846064,9.592593950182245,-0.08451687874075048,0.031,0.9999999999982329,169.1609894069946,1.1523903577750831,232,2026-10-07 22:46:48.621243,25.0,0.6576282735107362,0.8702176913039632,1.003501308628739
0936,cdot_cos,S,R-S,233,46,32562,0.0011317725935025501,-0.004501775110960803,-0.10253900165947002,0.07152641949975637,601.0,8.115259724208517,0.6298667488070567,9.614509798041455,-0.06226762208427472,0.025,0.999999999998195,268.60597407273883,1.1573574886978317,233,2026-10-07 22:46:48.646244,25.0,0.6995509663680746,2.0689776788714553,0.9137982517341925
0936,cdot_cos,T,S-T,234,46,32790,0.06509001738286736,-0.45235046411954133,0.06395824478936481,0.8318724378994157,601.0,8.195863651858735,0.6308295496257609,9.649847706294068,-0.22086316994228358,0.228,0.9999999999981867,-164.72311279446768,1.1623250086773182,234,2026-10-07 22:46:48.874244,25.0,0.4876918631397129,0.33459914000223273,0.3535259984658682
0936,cdot_cos,P,T-P,235,47,32989,0.1019704910773823,0.003329561132882098,0.03688047369451494,0.7154518550412057,599.0,8.267836932049535,0.631656774490092,9.68312650204659,-0.19887347580695613,0.199,0.9999999999981699,26.582486919208375,1.1672924769163786,235,2026-10-07 22:46:49.073244,25.0,0.8953225122198744,0.23800693455084818,0.3616747748281416
0936,cdot_cos,Q,P-Q,236,47,33109,-0.002818062407463949,-0.007798993550220734,-0.10478855348484625,0.06788039762164523,599.0,8.290590411809973,0.6317352195275895,9.704912421175433,-0.06322759225902652,0.12,0.9999999999981252,1729.1837428514189,1.1722597923338665,236,2026-10-07 22:46:49.193243,25.0,0.11702601818593983,0.3489173381166907,0.18961233133697836
0936,cdot_cos,R,Q-R,237,47,33136,0.008142183242977089,0.3796852641403037,0.010960245650441038,0.5680761412116543,599.0,8.351577093197541,0.6323914353032282,9.735554407451911,-0.17020047174604402,0.027,0.9999999999981027,-163.0147940026331,1.1772269261272625,237,2026-10-07 22:46:49.220243,25.0,0.5333853870893254,2.121465926111107,2.2587659773173465
0936,cdot_cos,S,R-S,238,47,33160,0.0032439763370311404,-0.013561001929619643,-0.004898206905945949,0.4694244047328395,599.0,8.405149571819972,0.6329333233337923,9.76443176274198,-0.15044512863069887,0.024,0.9999999999980775,36.45650392901306,1.1821940547370202,238,2026-10-07 22:46:49.244244,25.0,0.8769435866276477,2.4266060266054934,2.2321866092679756
0936,cdot_cos,T,S-T,239,47,33390,0.01771451180781106,-0.2234467351836106,0.01447053547077992,0.5894672331465154,599.0,8.468054182474605,0.6336133090805921,9.795436080060522,-0.1777412675873894,0.23,0.9999999999980588,-40.14222222326296,1.1871615956278823,239,2026-10-07 22:46:49.474244,25.0,0.857638736878045,0.32457631151970334,0.2734983071940533
0936,cdot_cos,P,T-P,240,48,33588,0.10250268959178252,-0.011934383526746598,0.08478817778397146,0.8928036465803085,564.0,8.554454675119036,0.6346421980277417,9.831847066816783,-0.24599786647862976,0.198,0.9999999999980471,-66.34010315723293,1.1921290762285839,240,2026-10-07 22:46:49.672243,25.0,0.7576996169468019,0.2745192033652304,0.43636612446682466
0936,cdot_cos,Q,P-Q,241,48,33697,-0.008696441185410077,-0.018618846885585457,-0.1111991307771926,0.05841575078510277,564.0,8.576763787007236,0.6347094750652089,9.853353527339893,-0.06391876621812373,0.109,0.9999999999979996,2706.407819297926,1.1970963772472696,241,2026-10-07 22:46:49.781244,25.0,0.05792526646670513,0.44415615667149877,0.20467075126788944
0936,cdot_cos,R,Q-R,242,48,33721,0.03196762556393973,0.39550541714995974,0.0406640667493498,0.7343101173679729,564.0,8.651280717273423,0.6355547259217955,9.886924165166791,-0.21449661235197848,0.024,0.9999999999979815,-178.1457480468433,1.202063504952843,242,2026-10-07 22:46:49.805243,25.0,0.495590297049007,2.473086179346643,3.104872094424449
0936,cdot_cos,S,R-S,243,48,33745,0.005456333711513088,-0.022859878094871455,-0.02651129185242664,0.34011488450212907,564.0,8.695471923615875,0.6359459430858364,9.913429093405146,-0.12802194171728598,0.024,0.9999999999979494,221.04007334824882,1.2070306334032586,243,2026-10-07 22:46:49.829243,25.0,0.5089184069813935,1.3650989824874153,1.8413002642688376
0936,cdot_cos,T,S-T,244,48,33970,-0.11712499731147163,-0.16346015401915442,-0.12258133102298473,0.04459416124566518,564.0,8.716805468432819,0.6359972242093265,9.934607182188715,-0.06203302960368213,0.225,0.9999999999979058,1286.807067056311,1.211998179763001,244,2026-10-07 22:46:50.054244,25.0,0.34515192942067385,0.2588177631949209,0.09481575474197257
0936,cdot_cos,P,T-P,245,49,34152,0.08789828501110332,0.0018963528749939168,0.20502328232257494,0.994092350408079,597.0,8.81193991705359,0.6371395783439322,9.97282520294658,-0.2781038549357709,0.182,0.999999999997897,-189.14522107162813,1.2169656389122483,245,2026-10-07 22:46:50.236243,25.0,0.4598095324410039,0.32419394356807785,0.5227167506635747
0936,cdot_cos,Q,P-Q,246,49,34277,-0.020105380884779988,-0.03495985470388999,-0.10800366589588331,0.0629679483703339,597.0,8.834812063891599,0.6372118855583809,9.994291573587008,-0.06730589093432787,0.125,0.9999999999978478,2915.3102578845755,1.221932979668902,246,2026-10-07 22:46:50.361243,25.0,0.043633098091843,0.3517518726182445,0.18297717470407804
0936,cdot_cos,R,Q-R,247,49,34304,-0.003272180296351302,0.3629037776229953,0.016833200588428687,0.6036818480254617,597.0,8.89987788520815,0.6379047888040468,10.025474580049323,-0.1922646188764644,0.027,0.9999999999978223,-180.34080331382742,1.2269001131442365,247,2026-10-07 22:46:50.388243,25.0,0.5220818210728326,2.3461275320347275,2.409845233946347
0936,cdot_cos,S,R-S,248,49,34325,0.00600646344164156,-0.019554172639216594,0.009278643737992863,0.5577328797017455,597.0,8.961502950621474,0.638544443011886,10.055821834496019,-0.183257887889744,0.021,0.9999999999977977,14.080624931939537,1.2318672345856567,248,2026-10-07 22:46:50.409244,25.0,0.9520403611568782,2.04557477473826,2.9345269244439955
0936,cdot_cos,T,S-T,249,49,34549,-0.0919004051891861,-0.10667189493941827,-0.09790686863082766,0.07960897891248472,597.0,8.985792025747157,0.638635705189292,10.077515350121606,-0.07256928411279177,0.224,0.9999999999977522,1212.8639368798288,1.2368347942017686,249,2026-10-07 22:46:50.633244,25.0,0.21755975344010686,0.2663018611022892,0.10843337109679917
0936,cdot_cos,P,T-P,250,50,34749,0.06429818517343976,-0.00188343076901665,0.15619859036262584,0.9802560124785497,597.0,9.0808061843953,0.6397586297094602,10.115486420757785,-0.285376763781658,0.2,0.9999999999977427,-189.51182902035006,1.241802304628636,250,2026-10-07 22:46:50.833244,25.0,0.4743987327365158,0.2975226255313501,0.4750707932407128
0936,cdot_cos,Q,P-Q,251,50,34863,-0.0365779140669113,-0.053859507966610196,-0.10087609924035106,0.07433692758217197,597.0,9.104801075959697,0.6398437236165326,10.13704569061792,-0.07253638790199937,0.114,0.99999999999769,2501.2410782646944,1.2467696286999375,251,2026-10-07 22:46:50.947244,25.0,0.05317023068033542,0.4486081193879259,0.21048150495085519
0936,cdot_cos,R,Q-R,252,50,34893,0.01020323378129575,0.33687856995029464,0.04678114784820705,0.7630598147853345,597.0,9.183088835615747,0.6407166937133091,10.171077065956768,-0.23774133806554815,0.03,0.9999999999976702,-189.24468406602784,1.2517367686062861,252,2026-10-07 22:46:50.977243,25.0,0.4991275189787788,2.834098959337646,2.609591988534987
0936,cdot_cos,S,R-S,253,50,34918,0.11428987366369073,-0.1044366081460406,0.10408663988239497,0.9310008495161092,597.0,9.274847013519956,0.6417805339181353,10.208159191189047,-0.2808715666758005,0.025,0.9999999999976615,-40.542017884442316,1.2567038984968286,253,2026-10-07 22:46:51.002244,25.0,0.8576505531052987,2.252072370608964,3.670327116168366
0936,cdot_cos,T,S-T,254,50,35147,-0.02208047487292015,-0.027321917540166996,-0.13637034853661087,0.03200735672116882,597.0,9.295692454146195,0.6418170834885584,10.228896021022058,-0.06419426385793262,0.229,0.9999999999976116,5928.313255385256,1.2616714889085032,254,2026-10-07 22:46:51.231244,25.0,0.03420657338604362,0.24998176692396226,0.09102812500541071
0936,cdot_cos,P,T-P,255,51,35346,0.09581141477259751,0.0033185847452123366,0.11789188964551767,0.9501355929492572,600.0,9.38933866277113,0.6429013021590733,10.266325857984508,-0.2897748710412791,0.199,0.9999999999975986,-208.0582204660053,1.2666390139556492,255,2026-10-07 22:46:51.430244,25.0,0.4591086011706296,0.29250271474479284,0.4705839629393752
0936,cdot_cos,Q,P-Q,256,51,35470,-0.017896805691341663,-0.03251673224330419,-0.11370822046393918,0.05505960573542769,600.0,9.412108534614623,0.6429640870621818,10.28744113565931,-0.07089162391433067,0.124,0.999999999997542,3486.2401037497775,1.271606369343913,256,2026-10-07 22:46:51.554244,25.0,0.04561240389238594,0.36901888311380304,0.18362799873783778
0936,cdot_cos,R,Q-R,257,51,35493,0.003854421895683397,0.36196014975074625,0.02175122758702506,0.6326914633990148,600.0,9.480855345783354,0.6436851973486873,10.319074680733328,-0.21488405212743789,0.023,0.9999999999975144,-199.68156176343174,1.2765734932578192,257,2026-10-07 22:46:51.577244,25.0,0.5116606837707078,2.827378546350391,2.988991789944838
0936,cdot_cos,S,R-S,258,51,35518,0.009868455393802725,-0.03133688381719465,0.006014033498119327,0.5375170620398604,600.0,9.54216794774674,0.6442973212565078,10.348963351702453,-0.1928177055827612,0.025,0.9999999999974847,36.04882322476979,1.2815406226367496,258,2026-10-07 22:46:51.602243,25.0,0.8918641151460163,1.7530400397635049,2.452504078535469
0936,cdot_cos,T,S-T,259,51,35746,-0.07874361155151381,-0.09107162663027879,-0.08861206694531654,0.09838478467940916,600.0,9.56850734777153,0.6444093107558279,10.37080237714471,-0.08320290312036724,0.228,0.9999999999974345,978.7953614219745,1.2865082263764394,259,2026-10-07 22:46:51.830244,25.0,0.2678201417243056,0.27063906934873083,0.11552368431924788
0936,cdot_cos,P,T-P,260,52,35946,0.08024136878270591,0.0034736906347853907,0.1589849803342197,0.9815600648649871,623.0,9.665579363369762,0.6455257345273108,10.408806157828216,-0.3081825009861816,0.2,0.9999999999974223,-201.51810057482118,1.29147576742774,260,2026-10-07 22:46:52.030244,25.0,0.4818990259856866,0.30303927585892954,0.48536007799116376
0936,cdot_cos,Q,P-Q,261,52,36072,-0.023572509705109834,-0.038583026090468,-0.10381387848781574,0.0694384829711929,623.0,9.689723058115101,0.6456046538279787,10.430079244871115,-0.07712634762674078,0.126,0.9999999999973631,2927.7521646018354,1.296443135160324,261,2026-10-07 22:46:52.156243,25.0,0.04999593888570856,0.4034562436488308,0.19161662496300844
0936,cdot_cos,R,Q-R,262,52,36096,0.016945534119055902,0.3411442751513244,0.04051804382416574,0.7335972861044692,623.0,9.767250336769267,0.6464379282903824,10.463529064589824,-0.24869463713870157,0.024,0.9999999999973385,-205.89649299590246,1.3014102607300995,262,2026-10-07 22:46:52.180243,25.0,0.5016386152507807,3.155130747930205,3.2303032772569296
0936,cdot_cos,S,R-S,263,52,36121,0.04829095377784711,-0.0677808301527217,0.03134541965879121,0.6864631161665904,623.0,9.841169334015751,0.647216859354982,10.49611072498325,-0.23872637595183993,0.025,0.9999999999973144,12.797359920400508,1.3063773896666613,263,2026-10-07 22:46:52.205244,25.0,0.9591037627681377,1.915040462612474,2.9567598898593417
0936,cdot_cos,T,S-T,264,52,36346,-0.07996753385062336,-0.06765075902697873,-0.12825848762847047,0.038923262020665345,623.0,9.863002359899891,0.6472610022737857,10.516763605393365,-0.07085157175312855,0.225,0.9999999999972579,3802.9837796894144,1.3113450042915782,264,2026-10-07 22:46:52.430244,25.0,0.09353803280062521,0.2669773012468429,0.09703567059617847
0936,cdot_cos,P,T-P,265,53,36569,0.08728756644850835,-0.01281247553678844,0.1672551002991317,0.9849524400524822,601.0,9.96130911957683,0.6483771998329476,10.554833706424484,-0.32050167580453087,0.223,0.9999999999972446,-223.66121660295272,1.3163126170791295,265,2026-10-07 22:46:52.653243,25.0,0.45889428590284936,0.2715489111520423,0.44083748734053424
0936,cdot_cos,Q,P-Q,266,53,36678,-0.030758436944747836,-0.03784049223891764,-0.11804600339325619,0.04968218347887147,601.0,9.984113174273702,0.6484334593587738,10.575647753442464,-0.07479502202671481,0.109,0.9999999999971805,4367.378682443648,1.321279951446849,266,2026-10-07 22:46:52.762244,25.0,0.03743807908407709,0.5231955514576244,0.20921151098047472
0936,cdot_cos,R,Q-R,267,53,36706,0.05423054159829148,0.3559588403830768,0.08498897854303931,0.8932831424624011,601.0,10.075365749794592,0.649444298329828,10.612025552429925,-0.30061300008235137,0.028,0.9999999999971623,-223.39658889500996,1.3262470864150584,267,2026-10-07 22:46:52.790244,25.0,0.47180398844950544,2.563201925872211,3.2590205543175137
0936,cdot_cos,S,R-S,268,53,36729,0.039869595771935905,-0.0656012664745659,-0.014360945826355574,0.41119593432511387,601.0,10.127652482122546,0.6499091577085059,10.639489749541147,-0.17337453053051047,0.023,0.9999999999971212,273.71389152934,1.3312142098131197,268,2026-10-07 22:46:52.813244,25.0,0.48003624641973636,1.6030101708675992,2.2733361881718888
0936,cdot_cos,T,S-T,269,53,36948,-0.097027560833006,-0.08385617759100324,-0.1368971566049419,0.03160181132948314,601.0,10.149104217654502,0.6499448719719124,10.659906805608692,-0.07138687260932594,0.219,0.999999999997062,2855.65620548433,1.3361818260843563,269,2026-10-07 22:46:53.032243,25.0,0.2396295140754018,0.27725631990063027,0.09795313028290464
0936,cdot_cos,P,T-P,270,54,37170,0.10809623165867806,0.0007895203422395015,0.20512379249168405,0.9941070888775851,638.0,10.249090750239022,0.6510674857107838,10.698149239030066,-0.33422943920663084,0.222,0.9999999999970477,-234.1344645056289,1.341149453001572,270,2026-10-07 22:46:53.254244,25.0,0.45547539999655606,0.2787478813164704,0.45038978641675653
0936,cdot_cos,Q,P-Q,271,54,37297,-0.002778726487012621,-0.007997566787125893,-0.11087495814569068,0.05886311385647832,638.0,10.272868276959015,0.6511339055819828,10.71903619298676,-0.07995745719554782,0.127,0.9999999999969803,3828.2516575363684,1.3461168400489982,271,2026-10-07 22:46:53.381243,25.0,0.04158187515880624,0.38240839312988895,0.18722461984246372
0936,cdot_cos,R,Q-R,272,54,37324,0.024516180408604978,0.35180706663002065,0.027294906895617598,0.6642680473986743,638.0,10.346222482094014,0.6518830439871264,10.751150129507899,-0.24759018228782304,0.027,0.9999999999969473,-223.76736253449644,1.351083971841476,272,2026-10-07 22:46:53.408243,25.0,0.5081100411265258,2.266316638727208,2.716822412407367
0936,cdot_cos,S,R-S,273,54,37345,0.0025137550180678804,-0.012185779321767159,-0.022002425390537098,0.36585034137505923,638.0,10.395249375450284,0.6522953169841293,10.777706993413341,-0.1663691763864853,0.021,0.9999999999969013,197.00782367939644,1.3560510889583628,273,2026-10-07 22:46:53.429244,25.0,0.6137316862845652,1.649605974760773,2.334613969346205
0936,cdot_cos,T,S-T,274,54,37568,-0.1648101834316798,-0.14185246691355505,-0.1673239384497477,0.015022074742261101,638.0,10.415505933033966,0.652312240333424,10.797708451735424,-0.06896725114768142,0.223,0.9999999999968363,5755.475676985034,1.361018729719696,274,2026-10-07 22:46:53.652243,25.0,0.2435842480015496,0.2721935852862597,0.09083658109274514
0936,cdot_cos,P,T-P,275,55,37808,0.07206561690746793,0.0007728998158042518,0.23687580033914774,0.997327047306505,696.0,10.516647714487956,0.6534349322802275,10.836012549401824,-0.34584030879946215,0.24,0.9999999999968215,-246.61534131432234,1.3659864179545955,275,2026-10-07 22:46:53.892244,25.0,0.44906813901582393,0.26539733061767823,0.4214240893916236
0936,cdot_cos,Q,P-Q,276,55,37934,-0.02219068452131804,-0.02823959830327584,-0.09425630142878597,0.08655781313219907,696.0,10.542896651730452,0.6535322902005082,10.857314468220812,-0.09028900249541162,0.126,0.9999999999967502,2624.864064139656,1.3709538092168632,276,2026-10-07 22:46:54.018244,25.0,0.058991008375384624,0.4705225127568631,0.20832489874996735
0936,cdot_cos,R,Q-R,277,55,37963,0.059801862091571054,0.2995427709858358,0.0819925466128891,0.8859287892837877,696.0,10.635219387702685,0.6545280191735341,10.893538180776588,-0.31891945581521,0.029,0.9999999999967286,-229.61112864378697,1.375920945441165,277,2026-10-07 22:46:54.047244,25.0,0.4882679760896833,2.268580308681443,3.1835426197321937
0936,cdot_cos,S,R-S,278,55,37982,0.014218685011317027,-0.043029451600963935,-0.04558317708025403,0.24239758707223955,696.0,10.674474309633975,0.6548002235177697,10.91772243620367,-0.13639385722148772,0.019,0.9999999999966718,670.546236527927,1.380888055869808,278,2026-10-07 22:46:54.066243,25.0,0.26231099389531204,1.5651858390206903,2.066048522699479
0936,cdot_cos,T,S-T,279,55,38208,-0.16041497065774682,-0.06841227239741512,-0.17463365566906386,0.012544595607177756,696.0,10.694696449585471,0.6548143079172966,10.937576230091826,-0.0704579871951901,0.226,0.9999999999966023,4681.482508391862,1.3858557200608834,279,2026-10-07 22:46:54.292243,25.0,0.3922647649233558,0.27003605566604016,0.08947849536060234
0936,cdot_cos,P,T-P,280,56,38504,0.049643497502453234,0.00062691411089277,0.21005846816020005,0.9947874592671021,781.0,10.796530606795026,0.6559303351746126,10.975835271902605,-0.3562892387430731,0.296,0.9999999999965861,-256.1149377617137,1.390823575972204,280,2026-10-07 22:46:54.588243,25.0,0.4483213631179543,0.22045774333963883,0.344034314897142
0936,cdot_cos,Q,P-Q,281,56,38626,-0.03276252914946902,-0.03033845535701144,-0.08240602665192226,0.11303072417488509,781.0,10.825207433642538,0.6560570329867179,10.997542035615696,-0.10092389581126879,0.122,0.9999999999965098,2015.5465882836704,1.3957909632420828,281,2026-10-07 22:46:54.710243,25.0,0.07963701254718512,0.5246548326941509,0.23505595776649313
0936,cdot_cos,R,Q-R,282,56,38651,0.09457331984454372,0.24338931878610398,0.12733584899401273,0.9602046445478809,781.0,10.924546385972398,0.6571324438367822,11.035152662409978,-0.35115359073168234,0.025,0.9999999999964897,-232.68288106398222,1.4007580873526078,282,2026-10-07 22:46:54.735244,25.0,0.4903708698838886,2.5516181633798496,3.973558093194427
0936,cdot_cos,S,R-S,283,56,38680,0.009444083985137916,-0.06813067537160003,-0.0851292358594058,0.10638305566614756,781.0,10.95278834181153,0.6572514918708184,11.056703901415794,-0.1004015976342436,0.029,0.99999999999642,2106.3093996244643,1.4057252232996564,283,2026-10-07 22:46:54.764243,25.0,0.08229128500347697,0.9288174466791528,0.9738605461769587
0936,cdot_cos,T,S-T,284,56,38904,-0.09092959195220278,0.0011680230455457998,-0.1003736759373407,0.07520586761625118,781.0,10.97841779787979,0.6573356391151782,11.077639557159271,-0.09132766785419427,0.224,0.9999999999963486,107.83395046487621,1.410692897200837,284,2026-10-07 22:46:54.988243,25.0,0.9054205389891022,0.28277203480880125,0.11441721459044223
0936,cdot_cos,P,T-P,285,57,39285,0.05522875837043524,-0.00261294710526178,0.14615835032263802,0.9747648588441711,740.0,11.079470213405873,0.6584253993434912,11.11552305701027,-0.3616151695664551,0.381,0.9999999999963289,-248.024744058319,1.415661010644312,285,2026-10-07 22:46:55.369244,25.0,0.47357492523022016,0.1777329638413481,0.26522943707633573
0936,cdot_cos,Q,P-Q,286,57,39396,-0.005959927209984383,-0.007971286747434003,-0.06118868558041962,0.178035075421018,740.0,11.113850316326896,0.6586242574885799,11.13837082306769,-0.1237496567648156,0.111,0.9999999999962481,1196.1567513141374,1.4206283730531741,286,2026-10-07 22:46:55.480243,25.0,0.14629196566621447,0.6057615390394492,0.3097306569461562
0936,cdot_cos,R,Q-R,287,57,39420,0.11997026423034925,0.27250878089555963,0.12593019144033363,0.9588399004065769,740.0,11.21394927507263,0.6596942832060233,11.175954071957817,-0.36193558353193467,0.024,0.9999999999962244,-222.59831972656804,1.425595492085442,287,2026-10-07 22:46:55.504243,25.0,0.5178398379012031,2.570935071150101,4.170789947738933
0936,cdot_cos,S,R-S,288,57,39452,-0.002306653566996515,-0.013147043231050877,-0.12227691779734576,0.044919529442589215,740.0,11.237255199742101,0.6597443717286479,11.196257454298717,-0.08472886626535198,0.032,0.9999999999961438,5534.336066256186,1.4305626346337692,288,2026-10-07 22:46:55.536243,25.0,0.03794219099138589,0.6791562421921415,0.7283101459209518
0936,cdot_cos,T,S-T,289,57,39665,-0.19557962342158977,-0.06663305906235703,-0.19327296985459325,0.007908915565187562,740.0,11.257415274572928,0.6597531903716126,11.215828477707998,-0.07343309790701595,0.213,0.9999999999960609,1280.8964376352108,1.4355302915819657,289,2026-10-07 22:46:55.749243,25.0,0.8574229666397316,0.29120106334784124,0.09464823864237841
0936,cdot_cos,P,T-P,290,58,40025,0.055738594287422435,0.0022728789917939767,0.2513182177090122,0.9981356104014505,721.0,11.361306852728282,0.6608652470314199,11.254154372431302,-0.37990711384819137,0.36,0.9999999999960397,-275.5920871822162,1.4404983722992342,290,2026-10-07 22:46:56.109244,25.0,0.44632506029752667,0.18396893386210472,0.2885877170982049
0936,cdot_cos,Q,P-Q,291,58,40150,-0.029508686967639128,-0.03296753574831425,-0.08524728125506156,0.10610282967712502,721.0,11.389872906953643,0.6609833557298489,11.275557070933388,-0.10505336539870458,0.125,0.9999999999959484,2327.1253693032863,1.445465780016355,291,2026-10-07 22:46:56.234244,25.0,0.07307090402916623,0.5100100142412742,0.228528433802893
0936,cdot_cos,R,Q-R,292,58,40173,0.07729617447849726,0.2858487135138593,0.10680486144613639,0.9352403927170272,721.0,11.4888093562886,0.6620235534347189,11.312689390737317,-0.36533474694854073,0.023,0.9999999999959193,-250.22299158252324,1.4504328938082987,292,2026-10-07 22:46:56.257244,25.0,0.49044296778781277,3.0071783200761266,4.3015847536937795
0936,cdot_cos,S,R-S,293,58,40198,0.029447196334912197,-0.07942345039440411,-0.04784897814358507,0.23214754604550566,721.0,11.528203109677145,0.6622815116290388,11.336459376441402,-0.14629108022904425,0.025,0.9999999999958453,849.1440533492473,1.4554000143445958,293,2026-10-07 22:46:56.282243,25.0,0.22373031751378933,1.3224231612139192,1.5757501355417958
0936,cdot_cos,T,S-T,294,58,40424,-0.06662783821974115,-0.01837644605079866,-0.09607503455465335,0.08302976429878217,721.0,11.554930514349296,0.6623737493865952,11.357369918702997,-0.09952568228102983,0.226,0.9999999999957621,507.0092680800303,1.4603677242141397,294,2026-10-07 22:46:56.508243,25.0,0.6250755750582973,0.28192863680589625,0.11826285253164188
0936,cdot_cos,P,T-P,295,59,40746,0.051342873604298726,0.0004202675024960786,0.11797071182403987,0.9502288710066821,699.0,11.65563485351341,0.663428477584524,11.39478483987146,-0.3764862605888377,0.322,0.999999999995734,-262.58952671569864,1.4653357207842126,295,2026-10-07 22:46:56.830244,25.0,0.47919584092689393,0.20100729238641782,0.31274639491960876
0936,cdot_cos,Q,P-Q,296,59,40871,-0.03422752868067722,-0.038400149723374785,-0.08557040228497595,0.10533910343222971,699.0,11.68437921064615,0.6635453011572124,11.416092424224068,-0.10804262195302632,0.125,0.9999999999956374,2297.855068613616,1.4703031356722345,296,2026-10-07 22:46:56.955244,25.0,0.08335816605778129,0.5111725925101496,0.22995485706191232
0936,cdot_cos,R,Q-R,297,59,40894,0.06725238641002905,0.28983316560167466,0.10147991509070628,0.9266951496913469,699.0,11.783428001640948,0.6645721653712445,11.453056986332363,-0.37377190554386536,0.023,0.9999999999956054,-258.7774312899913,1.475270247555757,297,2026-10-07 22:46:56.978244,25.0,0.4911824200964623,3.134245375049592,4.306469173686885
0936,cdot_cos,S,R-S,298,59,40918,0.0324275963565372,-0.07017526459358667,-0.03482479005349185,0.2951253610056046,699.0,11.82855449789843,0.664898865625845,11.477961704965482,-0.17125352613675454,0.024,0.999999999995531,619.8904854077289,1.4802373633945907,298,2026-10-07 22:46:57.002244,25.0,0.3064916622312063,1.452767664034349,1.88027067739512
0936,cdot_cos,T,S-T,299,59,41143,-0.0808579484481967,-0.028654514262070014,-0.1132855448047339,0.05561197233413255,699.0,11.853160849514596,0.6649604097418556,11.498268072822837,-0.09364759819184815,0.225,0.9999999999954401,1260.9804636984586,1.4852050868809061,299,2026-10-07 22:46:57.227243,25.0,0.4366157575476662,0.28407278281196036,0.10936156273851497
0936,cdot_cos,P,T-P,300,60,41445,0.05765643213506496,-0.005172584878078538,0.13851438058326165,0.9696123334412892,660.0,11.956387250163813,0.6660325481206197,11.536050399547966,-0.3943530648815775,0.302,0.9999999999954114,-280.4726261514312,1.4901730480422797,300,2026-10-07 22:46:57.529243,25.0,0.4664854076400348,0.21811186740605523,0.34180927367290165
0936,cdot_cos,Q,P-Q,301,60,41553,-0.030329610164575565,-0.029388570637408393,-0.08798604229964052,0.09978182864849634,660.0,11.984900417427854,0.6661427837138565,11.55717445913853,-0.10951289927182686,0.108,0.9999999999953095,2583.921918921442,1.4951404185723713,301,2026-10-07 22:46:57.637243,25.0,0.07420129675693879,0.6041380263034563,0.2640108080003803
0936,cdot_cos,R,Q-R,302,60,41582,0.08827452454834311,0.3027627942605762,0.11860413471291868,0.950972480781575,660.0,12.08688106384536,0.6671924737491817,11.59459835025227,-0.3932003759462144,0.029,0.9999999999952789,-270.2583306761649,1.5001075474958003,302,2026-10-07 22:46:57.666244,25.0,0.4860308263094989,2.292549472668207,3.5165740143967406
0936,cdot_cos,S,R-S,303,60,41603,0.011213290976883535,-0.04535471652745884,-0.07706123357145958,0.12713506119107754,660.0,12.11786828684261,0.6673326809384672,11.616219395379238,-0.12011021116920165,0.021,0.9999999999951876,1947.7614961730578,1.5050746525254373,303,2026-10-07 22:46:57.687244,25.0,0.10293442120757597,1.3328698361908053,1.475582047488121
0936,cdot_cos,T,S-T,304,60,41824,-0.10037079423234399,-0.03947370026730342,-0.11158408520922752,0.05788865030407582,660.0,12.142861596965373,0.6673965119302101,11.636485179497067,-0.09709183165437187,0.221,0.9999999999950915,360.61447404021004,1.5100423794023752,304,2026-10-07 22:46:57.908243,25.0,0.7889294057915296,0.2935385489529466,0.11309190100797868
0936,cdot_cos,P,T-P,305,61,42105,0.05042915013328978,-0.007735721959593379,0.15079994436563376,0.9774673299099713,617.0,12.247612325479812,0.6684733882744945,11.674415779701388,-0.40843545515564944,0.281,0.9999999999950626,-289.1173393804641,1.5150102974800514,305,2026-10-07 22:46:58.189243,25.0,0.46659971170095604,0.2328658544435857,0.3727783932898189
0936,cdot_cos,Q,P-Q,306,61,42211,-0.0532325374974769,-0.054397020889134846,-0.10366168763076669,0.06968473816486685,617.0,12.273732207162668,0.6685500928720849,11.694881034354392,-0.10237917217661603,0.106,0.9999999999949544,3990.0643845831373,1.5199776676575358,306,2026-10-07 22:46:58.295244,25.0,0.05031565938633684,0.6097400797365488,0.24641397814015154
0936,cdot_cos,R,Q-R,307,61,42237,0.06886591376902347,0.31619316205092357,0.12209845126650037,0.9548886682064753,617.0,12.37687722238396,0.6696002717041951,11.732375523039662,-0.4057652042359711,0.026,0.9999999999949232,-288.8898754983777,1.5249447862094618,307,2026-10-07 22:46:58.321243,25.0,0.47345962658236224,3.1203892136851907,3.967115970049703
0936,cdot_cos,S,R-S,308,61,42260,0.060368056092605336,-0.10152790783444025,-0.008497857676418134,0.44708725140221667,617.0,12.435992446274298,0.6700913948517171,11.760087223045167,-0.23390945804320773,0.023,0.9999999999948547,349.9239387511727,1.529911896274755,308,2026-10-07 22:46:58.344243,25.0,0.47964427269048304,1.8030849586175026,2.5702271256668534
0936,cdot_cos,T,S-T,309,61,42463,-0.06485966568563063,-0.04852697061551592,-0.12522772177823596,0.041858802543922796,617.0,12.459819130480366,0.6701373575651114,11.779970722570127,-0.0945869500803498,0.203,0.9999999999947539,3031.2072041451784,1.5348795839147453,309,2026-10-07 22:46:58.547244,25.0,0.22924660524738574,0.3198064326421013,0.11737282860131765
0936,cdot_cos,P,T-P,310,62,42722,0.09474140831170187,-0.004324395560128823,0.1596010739973325,0.9818367878009444,599.0,12.565833857926991,0.6712145213222461,11.81798267341229,-0.42234674973121444,0.259,0.9999999999947258,-304.2803821423665,1.5398474555448294,310,2026-10-07 22:46:58.806243,25.0,0.4602229062006921,0.252236790482246,0.40932327199469365
0936,cdot_cos,Q,P-Q,311,62,42844,-0.022942628639553715,-0.03522056631310732,-0.1176840369512556,0.050111174549659764,599.0,12.590477787950169,0.6712694496754065,11.837997966524629,-0.0986820596903345,0.122,0.9999999999946128,5892.488513100968,1.5448148851159862,311,2026-10-07 22:46:58.928244,25.0,0.03763301039484904,0.435432253049652,0.20199942641948995
0936,cdot_cos,R,Q-R,312,62,42867,0.010859310553386696,0.3508386324551543,0.03380193919294041,0.699527417677387,599.0,12.672079327671106,0.6720357330722168,11.870550348659563,-0.32774657189728595,0.023,0.9999999999945596,-298.9292383998536,1.549781993137064,312,2026-10-07 22:46:58.951244,25.0,0.497128157602043,3.4721790617635007,3.5478930313451005
0936,cdot_cos,S,R-S,313,62,42895,0.037042638823322836,-0.05560489033526657,0.02618332826993614,0.6580425333433888,599.0,12.75019802479129,0.6727557370011039,11.902296549411517,-0.3153860714875422,0.028,0.999999999994507,17.16726800206241,1.5547491186809899,313,2026-10-07 22:46:58.979244,25.0,0.9615664076466693,1.8268293946484628,2.7899534685779894
0936,cdot_cos,T,S-T,314,62,43122,-0.08653946328744885,-0.0940545587371877,-0.1235821021107717,0.04354026487072252,599.0,12.77438177377142,0.6728033483872207,11.92213830017569,-0.0980220016517517,0.227,0.9999999999944026,4565.379997607512,1.559716902070148,314,2026-10-07 22:46:59.206244,25.0,0.10888065896230223,0.28981738382027156,0.10653633911951632
0936,cdot_cos,P,T-P,315,63,43321,0.08857943057493704,0.006683954300548425,0.17511889386238588,0.98760478812236,605.0,12.881775117045693,0.6738823394584786,11.96025827107045,-0.436788160637495,0.199,0.9999999999943737,-313.9656740539872,1.5646845959468105,315,2026-10-07 22:46:59.405244,25.0,0.46043454478713175,0.33462677588966466,0.5396650415792617
0936,cdot_cos,Q,P-Q,316,63,43451,-0.02102856550046887,-0.04096818786315172,-0.10960799607540592,0.0606425149045187,605.0,12.907563230575507,0.6739485335737153,11.980404992146008,-0.10541852501375445,0.13,0.9999999999942608,5006.028624129939,1.5696520613596665,316,2026-10-07 22:46:59.535244,25.0,0.04313709581492669,0.36178664408206274,0.19837010407548825
0936,cdot_cos,R,Q-R,317,63,43475,-0.014411748802493081,0.3500723351988401,0.006616816697975789,0.5412610585717081,605.0,12.97583964450703,0.674539037636157,12.009860266935345,-0.27986054909837044,0.024,0.9999999999941921,-295.41206433588576,1.5746191719895655,317,2026-10-07 22:46:59.559244,25.0,0.5361626752593889,3.326353892677473,2.8448505804801183
0936,cdot_cos,S,R-S,318,63,43499,0.041256968111118224,-0.054991169496907015,0.055668716913611305,0.8008663581275688,605.0,13.067228217424026,0.6754117488805499,12.044350942641694,-0.3763820951254222,0.024,0.9999999999941527,-110.59963607343515,1.5795862837328432,318,2026-10-07 22:46:59.583244,25.0,0.7737970595774811,2.418456385298066,3.8078572048748276
0936,cdot_cos,T,S-T,319,63,43727,-0.07914207582465595,-0.09386391823027959,-0.12039904393577416,0.04697721575011324,605.0,13.091925551001337,0.6754629026259076,12.064187341409077,-0.10216071567864084,0.228,0.9999999999940455,5360.729259007325,1.5845540898357822,319,2026-10-07 22:46:59.811244,25.0,0.0682747325626713,0.28979279566843874,0.10832163849697937
0936,cdot_cos,P,T-P,320,64,43926,0.07350064233560918,-0.004848138660096709,0.15264271816026515,0.9784599940698493,575.0,13.199373732248834,0.676527399536809,12.102124824304715,-0.4459410453831892,0.199,0.9999999999940166,-322.9509885692827,1.5895218002795728,320,2026-10-07 22:47:00.010243,25.0,0.4625920027098351,0.333886036151012,0.5399406092839034
0936,cdot_cos,Q,P-Q,321,64,44038,-0.04083369325788453,-0.056052963717653004,-0.11433433559349371,0.05425086613202431,575.0,13.22481219338944,0.6765863674067032,12.122076693901857,-0.10610071185012535,0.112,0.9999999999938993,5763.14413497747,1.594489213504733,321,2026-10-07 22:47:00.122243,25.0,0.040640195039629436,0.5157289593426936,0.22712911732683924
0936,cdot_cos,R,Q-R,322,64,44066,0.009733190941100447,0.3644302186544395,0.050566884198984974,0.7797434762694478,575.0,13.314897019141597,0.6774332873880096,12.15614140479949,-0.37685765798590265,0.028,0.999999999993853,-319.69601864645546,1.5994563376989301,322,2026-10-07 22:47:00.150244,25.0,0.48750269946445945,3.4330457839869384,3.2173152054341916
0936,cdot_cos,S,R-S,323,64,44091,0.10378096498669664,-0.09113109293571328,0.0940477740455962,0.9130291141384614,575.0,13.417062757292708,0.6784234970697759,12.192798941689361,-0.42979829019493504,0.025,0.9999999999938242,-53.46406239393381,1.6044234527870127,323,2026-10-07 22:47:00.175244,25.0,0.8841084613381989,2.520930377198134,4.086629526044447
0936,cdot_cos,T,S-T,324,64,44323,-0.028914156667408777,-0.042159931298479725,-0.1326951216541054,0.03497980811460746,575.0,13.440943538001504,0.6784614019983165,12.212340920038189,-0.10093107753900657,0.232,0.9999999999937135,8676.10691584829,1.609391295643853,324,2026-10-07 22:47:00.407244,25.0,0.03845238694245279,0.2773133923404181,0.10293439960687721
0936,cdot_cos,P,T-P,325,65,44501,0.0802811009704726,0.003930748488815531,0.10919525763788138,0.9387670223452731,585.0,13.545736171338662,0.6794777924556661,12.249496481082042,-0.4442802265732085,0.178,0.9999999999936813,-337.8122517300546,1.6143589510876115,325,2026-10-07 22:47:00.585243,25.0,0.4617086866433318,0.36928416433968325,0.5887226591975196
0936,cdot_cos,Q,P-Q,326,65,44627,-0.026239617731462002,-0.04178397082246555,-0.10652071870193461,0.06519117308540481,585.0,13.572408700506431,0.6795483110229019,12.269601135307097,-0.11361908809603705,0.126,0.9999999999935638,4688.993997443973,1.6193264237545912,326,2026-10-07 22:47:00.711244,25.0,0.05446154350028099,0.3846194104474517,0.21168673942673605
0936,cdot_cos,R,Q-R,327,65,44651,-0.018127174894985106,0.3700205984266796,0.008112442836476896,0.5505296860352523,585.0,13.64266026277142,0.6801435025344458,12.299168356938733,-0.3000299815068015,0.024,0.9999999999934942,-313.19481174594745,1.624293533795778,327,2026-10-07 22:47:00.735244,25.0,0.5372415067959495,3.4517418102845143,2.9271484277078783
0936,cdot_cos,S,R-S,328,65,44675,0.04505260296600808,-0.04969183758673613,0.06317977786099319,0.8291329073607818,585.0,13.738092307400088,0.6810387925016033,12.334174374906915,-0.4094422970950375,0.024,0.999999999993458,-122.20880340658364,1.6292606449873466,328,2026-10-07 22:47:00.759244,25.0,0.7655025012744983,2.517298039126814,3.9763351928611503
0936,cdot_cos,T,S-T,329,65,44905,-0.07303142558795693,-0.10549136904913883,-0.11808402855396502,0.049637319818443715,585.0,13.763490568649507,0.6810923481384982,12.353933541007592,-0.1094402052200231,0.23,0.9999999999933457,5601.690303183282,1.6342285007958959,329,2026-10-07 22:47:00.989243,25.0,0.06449019745318875,0.2923782870007554,0.11042722282356288
0936,cdot_cos,P,T-P,330,66,45086,0.07760297734795944,0.002641756374684088,0.15063440293591637,0.9773759985299656,593.0,13.872586319420435,0.6821459017648079,12.391833667952728,-0.47155529551462744,0.181,0.9999999999933176,-343.7082662445651,1.6391961822229122,330,2026-10-07 22:47:01.170244,25.0,0.46397876346544425,0.37663646102503173,0.6027389545355141
0936,cdot_cos,Q,P-Q,331,66,45210,-0.026445027369212327,-0.04725216729645734,-0.10404800471717177,0.06906122272158223,593.0,13.899832967540569,0.6822202753553,12.411948610460717,-0.1183373368550972,0.124,0.9999999999931973,4749.239028563138,1.6441636574884138,331,2026-10-07 22:47:01.294244,25.0,0.05054761523958063,0.41233650907005015,0.21973103322688262
0936,cdot_cos,R,Q-R,332,66,45239,-0.010728521049042764,0.3537454087481383,0.015716506320169563,0.5969836653414045,593.0,13.974845773669808,0.6828627927192662,12.442391151817738,-0.3266399829933523,0.029,0.9999999999931324,-324.1976914871846,1.6491307854998531,332,2026-10-07 22:47:01.323244,25.0,0.5284995880868846,2.8412161700243193,2.586648487215138
0936,cdot_cos,S,R-S,333,66,45260,0.03503916363332762,-0.05361320271624573,0.045767684682370385,0.7584484850902441,593.0,14.064623505401979,0.6836780856435484,12.475993237684099,-0.392701622216619,0.021,0.9999999999930884,-81.02810321999395,1.6540978851592383,333,2026-10-07 22:47:01.344243,25.0,0.8451649237809591,4.227373437433687,4.275130082484358
0936,cdot_cos,T,S-T,334,66,45481,0.07572771083417515,-0.18057799143934428,0.04068854720084753,0.7344295028930425,593.0,14.152395458042022,0.6844664848919614,12.509120348124899,-0.38584059352243627,0.221,0.999999999993044,8.702480003619325,1.6590657314944424,334,2026-10-07 22:47:01.565243,25.0,0.9823751381340471,0.3937714217989206,0.39715815674227756
0936,cdot_cos,P,T-P,335,67,45679,0.11273149339688815,0.001517745662247857,0.037003782562713,0.7160790200156675,583.0,14.238670473837102,0.685234164232339,12.54188407905521,-0.38109799740957967,0.198,0.99999999999299,6.177834759137807,1.664033496258887,335,2026-10-07 22:47:01.763244,25.0,0.9876325553509107,0.28280035951093674,0.43573240300545235
0936,cdot_cos,Q,P-Q,336,67,45796,-0.005767714015649744,-0.015008221240117447,-0.11849920741253789,0.04914996679491683,583.0,14.264384400408353,0.6852868188808819,12.561555168527205,-0.11402271480308866,0.117,0.9999999999928644,5072.207107953162,1.6690009567426034,336,2026-10-07 22:47:01.880243,25.0,0.09610644231744433,0.3820109925650938,0.21977715018163568
0936,cdot_cos,R,Q-R,337,67,45826,-0.011265293206700132,0.38090975379238207,-0.005497579191050388,0.46569411512948855,583.0,14.328061046097334,0.6857854832107846,12.589388625091084,-0.2830019638171637,0.03,0.999999999992784,-338.86371829937355,1.6739680889170707,337,2026-10-07 22:47:01.910244,25.0,0.5504078795505021,2.3328826768761544,2.1225548562993524
0936,cdot_cos,S,R-S,338,67,45853,0.00543199666822035,-0.017190239974285777,0.01669728987492048,0.60286864611955,583.0,14.404357361020923,0.6864303973413748,12.619909958572784,-0.3403686477911757,0.027,0.9999999999927226,-88.9524376237688,1.6789352107433262,338,2026-10-07 22:47:01.937243,25.0,0.8448951035101137,3.0502065141885946,2.8257894416143956
0936,cdot_cos,T,S-T,339,67,46061,0.04602045596226486,-0.20858205997876644,0.04058845929404451,0.733941181043444,583.0,14.492772197863518,0.6872145537675342,12.653002456806124,-0.3961521481807245,0.208,0.9999999999926773,-71.13823024159183,1.6839030277131504,339,2026-10-07 22:47:02.145243,25.0,0.8686514538310787,0.42713179962619374,0.42507133097401656
