record_id,input,event,transition,event_index,k,peak,value_cos,value_sin,value_return,x_input,rr,knowledge,decision,decision_norm,entropy,delta_t,cosine_similarity,delta_h_over_delta_d,frobenius_norm,matrix_size,timestamp,scale,P,zdot,zdot_back
0276,cdot_cos,Q,P-Q,1,0,1643,-0.005545136056359986,-0.003975348223781419,-0.01712212757450448,0.39459130766439404,1118.0,0.0019599908717211423,0.5004899975610672,0.5004899975610672,,,1.0,,0.004967141530112327,1,2026-10-08 01:16:17.727243,25.0,,,
0276,cdot_cos,R,Q-R,2,0,1695,0.02806870375273623,0.03599845399434573,0.03361383980909622,0.6985380815921935,1118.0,0.007678795525127711,0.5013574287618218,0.7090264753514712,-9.940516922116961e-06,,0.9999999999999999,,0.009934283060224654,2,2026-10-08 01:16:17.779244,25.0,,,
0276,cdot_cos,S,R-S,3,0,1714,-0.021680658849071454,-0.03610365293145073,-0.049749362601807685,0.22378668652921532,1118.0,0.011329878724902402,0.5016353213018228,0.8688578633658953,-1.25156515722205e-05,0.019,1.0,-0.009266656276898842,0.014901424592624874,3,2026-10-08 01:16:17.798244,25.0,0.8140340013156989,0.29897405349628803,0.19216227367235217
0276,cdot_cos,T,S-T,4,0,1992,-0.005518707923401802,0.0034135310404569594,0.016161950925669653,0.5996600315139646,1118.0,0.019039809557986655,0.5023799582202203,1.0047599164408425,-4.222459846917867e-05,0.278,0.9999999999999998,-0.039897225295908854,0.019868566197032308,4,2026-10-08 01:16:18.076244,25.0,0.4948040987158699,0.029905412683637132,0.02773356414778508
0276,cdot_cos,P,T-P,5,1,2651,0.010790164783906743,6.299533278796594e-05,0.016308872707308547,0.6005414878700011,1079.0,0.02795728817700465,0.5031256791181933,1.1250232197468402,-7.557544197007745e-05,0.659,1.0000000000000002,-0.04472295679463074,0.0248357080960355,5,2026-10-08 01:16:18.735244,25.0,0.6432048159833635,0.01236790909954552,0.013531834019754167
0276,cdot_cos,Q,P-Q,6,1,2761,-0.007518438506487831,-0.005686002000430334,-0.018308603290394576,0.3875280096318891,1079.0,0.03534071375118765,0.5036068838859702,1.2335798965709388,-8.427715261158735e-05,0.11,1.0,-0.01808317627797087,0.029802849655655543,6,2026-10-08 01:16:18.845243,25.0,0.901900457187501,0.0872530063884532,0.06712205067439089
0276,cdot_cos,R,Q-R,7,1,2812,0.023252108987483967,0.03142317708053281,0.030770547493971796,0.6833615930047474,1079.0,0.047152949582464354,0.5044554169605897,1.3346635809143128,-0.00017571254349284476,0.051,0.9999999999999998,-0.10775701456570455,0.03476999119055247,7,2026-10-08 01:16:18.896243,25.0,0.594301107753331,0.17855137458592768,0.2316124672799354
0276,cdot_cos,S,R-S,8,1,2826,-0.02649222110308428,-0.046621998756620146,-0.04974433009056825,0.2238085417494645,1079.0,0.05355295395895227,0.5047333156633129,1.4276014009148592,-0.00011621998935031113,0.014,1.0000000000000002,0.21407999950898834,0.03973713268760005,8,2026-10-08 01:16:18.910244,25.0,0.5993580844611689,0.6846277174029481,0.457143169749137
0276,cdot_cos,T,S-T,9,1,3090,-0.003662447814352205,0.0023699694645110438,0.022829773288732074,0.6389349081781813,1079.0,0.0663225256697469,0.5055266520052545,1.5165799561462838,-0.00027601849130574245,0.264,1.0000000000000002,-0.20142591925683123,0.044704274818029674,9,2026-10-08 01:16:19.174243,25.0,0.5604914493751469,0.048413756732912025,0.048369589813616026
0276,cdot_cos,P,T-P,10,2,3730,0.010243605514954198,5.815595368139173e-05,0.013906053329306403,0.5860479177168411,1118.0,0.07911541751392982,0.5062542966100491,1.6009166528540746,-0.0003354772289268111,0.64,1.0000000000000002,-0.08171398128878414,0.04967141837524918,10,2026-10-08 01:16:19.814244,25.0,0.8375818534512247,0.018034648692804266,0.01998889350653581
0276,cdot_cos,Q,P-Q,11,2,3860,-0.0075977895654693135,-0.006855543876900522,-0.01784139508042351,0.39030392209378345,1118.0,0.08940687599653636,0.5067388884532842,1.6806627607110545,-0.000312708684381889,0.13,0.9999999999999998,0.046984993376940974,0.05463856016248622,11,2026-10-08 01:16:19.944243,25.0,0.9297768012721102,0.10011722247171988,0.07916506525081955
0276,cdot_cos,R,Q-R,12,2,3903,0.023227265382252442,0.032542762247466,0.030825054947721756,0.68365637536628,1118.0,0.105145895356577,0.5075876684947401,1.758335263439082,-0.0005520769531373773,0.043,0.9999999999999994,-0.2820144879289235,0.059605701634020056,12,2026-10-08 01:16:19.987243,25.0,0.6481859111248555,0.2809926027426453,0.36602370604745654
0276,cdot_cos,S,R-S,13,2,3919,-0.024931512980097638,-0.048203894514948976,-0.04815877836235008,0.23076982460417697,1118.0,0.11357223983240386,0.5078741665728129,1.831166350280399,-0.0003322774226106139,0.016,0.9999999999999993,0.767193734789788,0.0645728430085203,13,2026-10-08 01:16:20.003244,25.0,0.5160797209390715,0.7599760582679576,0.5266465297391791
0276,cdot_cos,T,S-T,14,2,4189,-0.004592056398761683,0.002844235752058482,0.020339456581335954,0.624451587729802,1118.0,0.12946512922115164,0.5086493895556894,1.9031917469218633,-0.0006963546609774673,0.27,0.9999999999999997,-0.4696419564548304,0.06953998618728627,14,2026-10-08 01:16:20.273243,25.0,0.5928386191095693,0.05938926058467531,0.05886255329165843
0276,cdot_cos,P,T-P,15,3,4848,0.012413938638820121,0.0001149653316092846,0.017005995037581805,0.6047149108395591,1119.0,0.14564244054812853,0.5094000709123413,1.9728979931158286,-0.0008023057585175219,0.659,0.9999999999999997,-0.1411399078999436,0.07450713290629384,15,2026-10-08 01:16:20.932243,25.0,0.8762899463114585,0.02185778388513506,0.024548272119843534
0276,cdot_cos,Q,P-Q,16,3,4978,-0.0045830805923806886,-0.004147126369931432,-0.01699701923120081,0.3953387286698726,1119.0,0.15827368838175965,0.5098908140349979,2.0395632603455254,-0.0006920135191574587,0.13,0.9999999999999988,0.22474535916672578,0.07947427506535641,16,2026-10-08 01:16:21.062243,25.0,0.8526733604713848,0.12270152799293842,0.09716344487408554
0276,cdot_cos,R,Q-R,17,3,5027,0.02990603082166992,0.043872101996429436,0.03448911141405061,0.7031258923109964,1119.0,0.17754483782629252,0.5107635727869728,2.1059321649603677,-0.0011665289360005557,0.049,0.9999999999999988,-0.5436959707013556,0.08444141651729109,17,2026-10-08 01:16:21.111244,25.0,0.6657936295655571,0.2965513811135212,0.3932887641741402
0276,cdot_cos,S,R-S,18,3,5041,-0.020639287088489677,-0.04071142302769249,-0.05054531791015959,0.2203491344916831,1119.0,0.18733572373088472,0.5110370690685653,2.1681466666168308,-0.0006439402917685389,0.014,0.9999999999999984,1.910770564006206,0.08940855763813661,18,2026-10-08 01:16:21.125243,25.0,0.44416982876642264,1.299300258084789,0.6993489931851575
0276,cdot_cos,T,S-T,19,3,5647,0.16735396124995983,-0.7272677633074838,0.1879932483384495,0.9909851935661995,1119.0,0.2139252450526666,0.5122669910660207,2.2329200508847538,-0.0019229168305656638,0.606,0.9999999999999986,-1.039884270257134,0.09437570730564379,19,2026-10-08 01:16:21.731244,25.0,0.5142101883217975,0.027063678520431126,0.04387709789072918
0276,cdot_cos,P,T-P,20,4,5967,0.027548593911748867,-0.001417207149080217,-0.13980536733821097,0.029450995482047028,1098.0,0.22013690209764725,0.5123035408028862,2.2910910933300896,-0.00048593802848353237,0.32,0.9999999999999978,39.315708547224446,0.09934285304133336,20,2026-10-08 01:16:22.051244,25.0,0.051968184756677756,0.029645794981066932,0.0194114282655645
0276,cdot_cos,Q,P-Q,21,4,6076,-0.002268366137754219,-0.0016497809456544152,-0.029816960049503086,0.32181920450776785,1098.0,0.23289855384054944,0.5127029212674312,2.3494999566128274,-0.0010419412321183558,0.109,0.999999999999997,-1.3921642468622812,0.10430999531482907,21,2026-10-08 01:16:22.160243,25.0,0.5864766513773095,0.1645930071806634,0.11707937378809355
0276,cdot_cos,R,Q-R,22,4,6125,0.04320565833444658,0.05189432184188989,0.0454740244722008,0.7571009383839215,1098.0,0.25601817766303187,0.513642425326895,2.40919653816073,-0.0020369331608369717,0.049,0.9999999999999964,-1.0590608084083641,0.10927713669891988,22,2026-10-08 01:16:22.209243,25.0,0.6135610600520376,0.34293661820422566,0.47182905760168203
0276,cdot_cos,S,R-S,23,4,6141,-0.012562606576092481,-0.019200388895043163,-0.055768264910539066,0.19873704258071986,1098.0,0.26650634242456356,0.5138890270151665,2.4645252069205608,-0.0009875418026154333,0.016,0.9999999999999961,4.255410275480998,0.11424427755239132,23,2026-10-08 01:16:22.225244,25.0,0.34554589430354693,1.2166460916796205,0.6555102975957308
0276,cdot_cos,T,S-T,24,4,6765,0.0930227748861786,-0.7575102972407731,0.10558538146227109,0.933369239449974,1098.0,0.2949508525967797,0.5150471003061822,2.523205190091894,-0.0028774392356002336,0.624,0.9999999999999961,-1.6319324930870804,0.11921143219475802,24,2026-10-08 01:16:22.849244,25.0,0.5185087470395205,0.029960640377688592,0.04558415091701308
0276,cdot_cos,P,T-P,25,5,7065,0.011525151591223857,6.985552104311725e-05,-0.08149762329495475,0.11532760514640979,1118.0,0.3038972216159189,0.515190181501592,2.5759509257252815,-0.000965265963750787,0.3,0.9999999999999943,13.364252838202697,0.12417857970497,25,2026-10-08 01:16:23.149244,25.0,0.13793389528377265,0.04124788590689275,0.029821230063797333
0276,cdot_cos,Q,P-Q,26,5,7174,-0.0069907509827811035,-0.005025238657263125,-0.018515902574004962,0.3862986665574638,1118.0,0.31969958414091537,0.5156694246764664,2.6294084805889266,-0.0017753488949912495,0.109,0.9999999999999931,-1.6903379614176968,0.12914572244761838,26,2026-10-08 01:16:23.258244,25.0,0.6336268513325914,0.1834612064664932,0.1449758029816188
0276,cdot_cos,R,Q-R,27,5,7230,0.027160519759981478,0.036919662893379855,0.034151270742762585,0.7013598525222776,1118.0,0.34389176462561444,0.5165394593464089,2.6840177857147913,-0.0028919102427609976,0.056,0.9999999999999929,-1.2833527057531262,0.13411286397269337,27,2026-10-08 01:16:23.314244,25.0,0.6797037734995112,0.32825694826892815,0.43200322294105475
0276,cdot_cos,S,R-S,28,5,7253,-0.019330950972881643,-0.03448281105254458,-0.046491470732863124,0.2382520157830772,1118.0,0.3564643623470353,0.5168349876659268,2.734833715449809,-0.0015861194084771863,0.023,0.999999999999992,4.41849646224672,0.13908000467558437,28,2026-10-08 01:16:23.337244,25.0,0.4389975845187387,0.7527132532010317,0.5466346835400385
0276,cdot_cos,T,S-T,29,5,7524,-0.005014635733578572,0.0030956140012846647,0.01431631523930307,0.5885338968653923,1118.0,0.3785165742728619,0.51756495549032,2.787172606686178,-0.0029192849319246462,0.271,0.9999999999999918,-1.8263346395517468,0.144047153498651,29,2026-10-08 01:16:23.608243,25.0,0.6333859234093039,0.0820747662260524,0.08137347574105745
0276,cdot_cos,P,T-P,30,6,8183,0.008996580367486193,6.984870695359283e-05,0.014011216101064764,0.5866855741476937,1099.0,0.40094888564155573,0.5182925562059111,2.8388052714188396,-0.003149008056859582,0.659,0.9999999999999916,-0.3157269090208572,0.14901431652582184,30,2026-10-08 01:16:24.267244,25.0,0.9296464293550789,0.030121788958509137,0.03403992620439125
0276,cdot_cos,Q,P-Q,31,6,8313,-0.009781680840916818,-0.009123587080655419,-0.01877826120840301,0.384744883683032,1099.0,0.41821709212017694,0.5187696704722292,2.888387323237352,-0.0025473654304788915,0.13,0.9999999999999885,1.26100322051473,0.15398146066314178,31,2026-10-08 01:16:24.397243,25.0,0.7896367100170479,0.1653228799682489,0.13283235752785544
0276,cdot_cos,R,Q-R,32,6,8348,0.01982704596367671,0.026960874058055865,0.029608726804593526,0.6770435621933684,1099.0,0.44393283443330045,0.5196091747122894,2.9393534096434304,-0.00399206789498457,0.035,0.9999999999999875,-1.7208995447147553,0.1589486013178669,32,2026-10-08 01:16:24.432243,25.0,0.6963566930148256,0.5513435021936732,0.7347354946606718
0276,cdot_cos,S,R-S,33,6,8370,-0.03314409382213308,-0.06464924206292583,-0.05297113978580979,0.2101073441790742,1099.0,0.45681113727373407,0.5198696762888514,2.986423965245533,-0.0020886138932475515,0.022,0.999999999999986,7.306880928930091,0.16391574159684272,33,2026-10-08 01:16:24.454243,25.0,0.40198200476059864,0.9019379072222535,0.5853774018378919
0276,cdot_cos,T,S-T,34,6,8643,-0.00144453979647505,0.0008052706699158225,0.031699554025658036,0.6883654850930039,1099.0,0.4836181023510796,0.5207230697588964,3.0363112119965243,-0.00453849288416685,0.273,0.9999999999999859,-2.870749632980158,0.16888289340586024,34,2026-10-08 01:16:24.727243,25.0,0.5828647453511595,0.09277012784116476,0.09819401127232796
0276,cdot_cos,P,T-P,35,7,9282,0.010023870202343346,4.3744900024798857e-05,0.011468409998818397,0.5711905575829963,1078.0,0.50746362707501,0.5214311053235305,3.0848280687860625,-0.004254047147795346,0.639,0.9999999999999848,0.4017393342641947,0.17385006389088276,35,2026-10-08 01:16:25.366244,25.0,0.9353217088172158,0.03300896397524817,0.03731694010004761
0276,cdot_cos,Q,P-Q,36,7,9412,-0.010607603848220046,-0.010108855049387695,-0.02063147405056339,0.37383793534708887,1078.0,0.5258035583114468,0.5218944603719187,3.131366828795054,-0.003410839987170328,0.13,0.9999999999999806,1.819786281725612,0.17881720908798343,36,2026-10-08 01:16:25.496243,25.0,0.7809736013363163,0.17557799747646663,0.1410763941264364
0276,cdot_cos,R,Q-R,37,7,9444,0.01661239032019013,0.022973841987455747,0.027219994168410176,0.6638502505526348,1078.0,0.5531139064188914,0.5227171790827538,3.1795645406845154,-0.005302767402988911,0.032,0.999999999999979,-2.2996042157568364,0.18378434929624138,37,2026-10-08 01:16:25.528243,25.0,0.6999256645097108,0.6832904467634418,0.8534483783576435
0276,cdot_cos,S,R-S,38,7,9465,-0.01847041466601206,-0.1869322532302351,-0.035082804986202185,0.2937852887557164,1078.0,0.569534146904307,0.5230812321393609,3.2244893420778555,-0.003317273161918868,0.021,0.999999999999977,5.453859554359569,0.1887514890794019,38,2026-10-08 01:16:25.549243,25.0,0.5496178664955482,1.0158190483158538,0.7819162135912229
0276,cdot_cos,T,S-T,39,7,9761,-0.001244040804753943,0.00044731961123359423,0.017226373861258117,0.6060311032994571,1078.0,0.5957783064481572,0.5238321362785431,3.2713307124108386,-0.005502649106004849,0.296,0.9999999999999767,-2.910326138920999,0.1937186458058778,39,2026-10-08 01:16:25.845243,25.0,0.6722333233825046,0.08760480738242682,0.088662701161656
0276,cdot_cos,P,T-P,40,8,10360,0.010661799642123942,9.050058368816447e-05,0.011905840446877885,0.5738669640847398,1098.0,0.6213961928747037,0.5245430881193026,3.317501859261789,-0.0056096145057685535,0.599,0.9999999999999744,-0.15045379114488242,0.19868582305062335,40,2026-10-08 01:16:26.444243,25.0,0.9811124221293445,0.03826977596204344,0.04276775697253172
0276,cdot_cos,Q,P-Q,41,8,10490,-0.00667291611111135,-0.006217418777573332,-0.017334715753235294,0.3933223970392948,1098.0,0.6416254980506853,0.5250303097758278,3.3618344070869837,-0.004596069526588688,0.13,0.9999999999999685,2.0802543680189385,0.2036529695013403,41,2026-10-08 01:16:26.574244,25.0,0.8020981539089467,0.19278194638955518,0.1556100398152426
0276,cdot_cos,R,Q-R,42,8,10537,0.02478027307955969,0.03670367524365381,0.03145318919067104,0.6870427096091326,1098.0,0.6715194989359881,0.525881257782541,3.408100179698691,-0.007060185065379195,0.047,0.9999999999999662,-2.895729844068877,0.2086201104459897,42,2026-10-08 01:16:26.621243,25.0,0.7053820450875424,0.4804163530577746,0.6360425720277193
0276,cdot_cos,S,R-S,43,8,10550,-0.024766005608098683,-0.050847002817429945,-0.049546278687658374,0.22466984654511388,1098.0,0.6867846352381161,0.5261594939300764,3.4502586462880336,-0.0037289953872324654,0.013,0.9999999999999633,11.972526602506656,0.21358724909064972,43,2026-10-08 01:16:26.634243,25.0,0.4092942501305937,1.6875474871388791,1.1742412540098464
0276,cdot_cos,T,S-T,44,8,10839,-0.003926079615371047,0.0016185130642631643,0.020839925992727635,0.6273811374872303,1098.0,0.7153957336015989,0.5269363701583099,3.4953005666694237,-0.007213743406608252,0.289,0.9999999999999621,-4.485589715236836,0.2185544095910197,44,2026-10-08 01:16:26.923244,25.0,0.6168862129089454,0.09748884051096943,0.09900034035807218
0276,cdot_cos,P,T-P,45,9,11458,0.010604852725800378,8.077386102610773e-05,0.014530932341171424,0.5898325781668285,1059.0,0.7431331850534564,0.5276666317230042,3.5396954986220273,-0.007273348557591654,0.619,0.9999999999999594,-0.0816216460856036,0.22352159849931183,45,2026-10-08 01:16:27.542243,25.0,0.9918384793523075,0.03928043768544784,0.04481009927602175
0276,cdot_cos,Q,P-Q,46,9,11568,-0.009592106570512663,-0.007464533770586519,-0.02019695929631304,0.37638421431777097,1059.0,0.7640249154561833,0.5281325648669533,3.5819694893813114,-0.005660316561580312,0.11,0.9999999999999515,3.461938728676773,0.2284887445890581,46,2026-10-08 01:16:27.652243,25.0,0.7520352758284257,0.23809956236307045,0.18992482184297235
0276,cdot_cos,R,Q-R,47,9,11620,0.02095974355611469,0.02981456628271475,0.030551850126627353,0.6821773734031101,1059.0,0.7955150887733319,0.5289769196843268,3.6264832176905726,-0.008826632062784376,0.052,0.9999999999999482,-3.7499821592221227,0.23345588587006533,47,2026-10-08 01:16:27.704243,25.0,0.6985678620521273,0.4599910546355657,0.6055802560990104
0276,cdot_cos,S,R-S,48,9,11634,-0.027271446135117634,-0.051415215679989586,-0.04823118969123232,0.2304486286072171,1059.0,0.8118639851382822,0.529262116795342,3.666835673687597,-0.004722818464837754,0.014,0.9999999999999435,14.389393999606577,0.23842302385250458,48,2026-10-08 01:16:27.718244,25.0,0.41939873978075926,1.6873838120551916,1.1677783117821638
0276,cdot_cos,T,S-T,49,9,11918,-0.0030949693490177834,0.0013306853953849876,0.02417647678609985,0.6466650340435801,1059.0,0.8427618355108772,0.5300623096724459,3.7104363333888735,-0.00918628271685366,0.284,0.999999999999942,-5.577985482912414,0.24339018862017264,49,2026-10-08 01:16:28.002244,25.0,0.6151533979672031,0.10585380335658788,0.10879524779082772
0276,cdot_cos,P,T-P,50,10,12517,0.011220363015187742,4.7168974707766315e-05,0.014315332364205525,0.5885279464836285,1078.0,0.8719889454448241,0.5307904286553149,3.7532552994223796,-0.009003707324691582,0.599,0.9999999999999379,0.25074939186819406,0.248357387130372,50,2026-10-08 01:16:28.601243,25.0,0.9799264102174493,0.04329605146289389,0.048793171842983034
0276,cdot_cos,Q,P-Q,51,10,12626,-0.006055086303190726,-0.004546156613492501,-0.017275449318378468,0.39367600661885854,1078.0,0.8946305051634241,0.5312774064301062,3.794079803019524,-0.00718507200931051,0.109,0.9999999999999282,3.7345345301647783,0.25332453432473856,51,2026-10-08 01:16:28.710243,25.0,0.7763801260402686,0.2559607149253366,0.20772073136330318
0276,cdot_cos,R,Q-R,52,10,12679,0.024470667468854554,0.033526794164150026,0.03052575377204528,0.6820359069119406,1078.0,0.9277883812985475,0.5321209442875935,3.8371789347591374,-0.010852340479642066,0.053,0.9999999999999236,-4.347485341387862,0.2582916757397977,52,2026-10-08 01:16:28.763244,25.0,0.7132493504378468,0.4812918170651818,0.6256203044362894
0276,cdot_cos,S,R-S,53,10,12698,-0.01982762021150794,-0.03625619725192784,-0.044298287680362494,0.24834525043645053,1078.0,0.9456474377723334,0.5324280508439135,3.876134956616343,-0.006008295007539828,0.019,0.9999999999999176,15.773175050857855,0.2632588135232224,53,2026-10-08 01:16:28.782243,25.0,0.44653999726361704,1.240951652832854,0.9399503407255758
0276,cdot_cos,T,S-T,54,10,12976,-0.01028293791156751,0.005068284764312764,0.00954468229994043,0.5593728167356162,1078.0,0.9749445441061959,0.5331196872752276,3.917613854778352,-0.010102634968044324,0.278,0.9999999999999143,-5.919786429881027,0.2682259827653212,54,2026-10-08 01:16:29.060243,25.0,0.6667937755910102,0.11137688893362929,0.10538527458223923
0276,cdot_cos,P,T-P,55,11,13595,0.013045975789466566,7.706394352978024e-05,0.023328913701034078,0.6418086447209496,1118.0,1.0075729880194313,0.5339130945147377,3.9596057455182105,-0.011611689476185877,0.619,0.9999999999999098,-1.9019923602832765,0.27319319616361204,55,2026-10-08 01:16:29.679244,25.0,0.8781306050639717,0.04544071875835913,0.052711541055307565
0276,cdot_cos,Q,P-Q,56,11,13705,-0.004792801398287692,-0.0034464979444880843,-0.017838777187754257,0.39031949649219133,1118.0,1.0312001539290445,0.5343955259111636,3.9990502552581546,-0.008645796977025659,0.11,0.9999999999998971,6.147801575795214,0.2781603447474899,56,2026-10-08 01:16:29.789243,25.0,0.7096066827656136,0.2673886276026857,0.21479241736012022
0276,cdot_cos,R,Q-R,57,11,13760,0.027993535484710938,0.03724182938951548,0.03278633688299863,0.6941638277850618,1118.0,1.0663984860920221,0.5352533466457104,4.0410744780981,-0.01324843806818946,0.055,0.9999999999998908,-5.365504592978899,0.283127486420908,57,2026-10-08 01:16:29.844243,25.0,0.7065155323106012,0.4876528642046301,0.6399696756905023
0276,cdot_cos,S,R-S,58,11,13782,-0.017819068153307086,-0.03129735832279961,-0.04581260363801802,0.24134584088821198,1118.0,1.0848419689915538,0.535551543879557,4.07863937787508,-0.0071189383765506275,0.022,0.9999999999998828,20.5551862858463,0.2880946238231424,58,2026-10-08 01:16:29.866244,25.0,0.4227335647233172,1.153681975805762,0.8383401317968947
0276,cdot_cos,T,S-T,59,11,14414,-0.00110002939955173,-0.010510259409366845,0.016719038753755355,0.6029988156851722,1118.0,1.1171604930274757,0.536296473469759,4.119371709624624,-0.012766128105352124,0.632,0.999999999999879,-7.580836904693422,0.29306185005604035,59,2026-10-08 01:16:30.498244,25.0,0.6425200336768282,0.0509966519092666,0.051136905120129486
0276,cdot_cos,P,T-P,60,12,14713,0.013513805453758944,8.156972645987175e-05,0.014613834853310675,0.5903338999921188,1080.0,1.1493017370048668,0.537025600278523,4.159782818078434,-0.013064947607910687,0.299,0.9999999999998661,-0.4098320058552027,0.2980290284793327,60,2026-10-08 01:16:30.797244,25.0,0.9773877294357962,0.09470888855248133,0.10749579925548881
0276,cdot_cos,Q,P-Q,61,12,14823,-0.005131311692191481,-0.0038710567740628627,-0.018645117145950425,0.38553311945924457,1080.0,1.1737964083818595,0.537501690507846,4.198022843800477,-0.010204076322861962,0.11,0.9999999999998528,6.009094723738841,0.3029961784072066,61,2026-10-08 01:16:30.907244,25.0,0.7555075289302238,0.28404286116146993,0.22267883069993347
0276,cdot_cos,R,Q-R,62,12,14875,0.03393684709817779,0.04471924757642199,0.039068158790369276,0.7264537225640766,1080.0,1.2117911664603902,0.5383985930108088,4.239355211296541,-0.016249298824995977,0.052,0.9999999999998455,-6.740111084721372,0.30796331958101547,62,2026-10-08 01:16:30.959244,25.0,0.6893337378242487,0.5349891253479186,0.7306684245871289
0276,cdot_cos,S,R-S,63,12,14889,-0.02135279516468448,-0.03812684416232167,-0.055289642262862274,0.20064931740310396,1080.0,1.229435277418043,0.538646277382991,4.27537273787655,-0.0077212937962156435,0.014,0.9999999999998336,34.43093705770398,0.31293045480563536,63,2026-10-08 01:16:30.973243,25.0,0.33138356626710247,1.7956172778871848,1.2602936398323454
0276,cdot_cos,T,S-T,64,12,15173,-0.008992298206117542,0.004470257243269639,0.012360496958566936,0.5766441867389555,1080.0,1.2620684502412314,0.5393579885449218,4.31486436082932,-0.014571559685682807,0.284,0.9999999999998282,-9.625064570974315,0.31789763661797327,64,2026-10-08 01:16:31.257244,25.0,0.6249322366733724,0.11952214419247159,0.1149055381098181
0276,cdot_cos,P,T-P,65,13,15793,0.013174582116369267,-8.122045499632995e-06,0.022166880322486808,0.6351029859971192,1117.0,1.297323855319367,0.5401416654886512,4.354761818432258,-0.01616735026452181,0.62,0.99999999999982,-2.036286242191728,0.3228648797111984,65,2026-10-08 01:16:31.877243,25.0,0.9060103746678397,0.04925915954366616,0.056863556577637926
0276,cdot_cos,Q,P-Q,66,13,15921,-0.00410848548695033,-0.0036535845049405114,-0.0172830676033196,0.39363054633677613,1117.0,1.3231498080753774,0.5406272813305749,4.392077379166599,-0.012123941874401528,0.128,0.9999999999997998,8.326351904218122,0.3278320344821949,66,2026-10-08 01:16:32.005243,25.0,0.7164075392383075,0.2509731296479987,0.20176525590633215
0276,cdot_cos,R,Q-R,67,13,15968,0.02967329289417534,0.04144777989356187,0.03378177838112567,0.6994214675987731,1117.0,1.3615729765092546,0.5414899557480433,4.432286909503552,-0.01847465842900074,0.047,0.99999999999979,-7.361660930245728,0.33279917460275116,67,2026-10-08 01:16:32.052243,25.0,0.7091041589216447,0.6203814006117585,0.8175142219973864
0276,cdot_cos,S,R-S,68,13,15982,-0.016761686291356104,-0.03029569322313897,-0.04643497918553144,0.23850842396358557,1117.0,1.3814656597328827,0.541784078160207,4.467666563791559,-0.009771612656089671,0.014,0.9999999999997762,29.589876231756076,0.3377663086947073,68,2026-10-08 01:16:32.066243,25.0,0.41039063681775495,1.863384736195152,1.420905944544867
0276,cdot_cos,T,S-T,69,13,16271,-0.010812762379407112,0.005196142130200044,0.005948923911948992,0.5371123935956525,1117.0,1.4137477491227188,0.5424463243274877,4.505898182676891,-0.01615548356678238,0.289,0.9999999999997682,-9.639724963461545,0.342733498181831,69,2026-10-08 01:16:32.355244,25.0,0.6735776781714682,0.11980246201375375,0.11170273145272015
0276,cdot_cos,P,T-P,70,14,16910,0.012866278143809558,7.396472553011592e-05,0.02367904052321667,0.6438184062988996,1118.0,1.4507114827768324,0.5432399385185518,4.545072061855199,-0.01895146670041592,0.639,0.9999999999997573,-3.523101231197465,0.34770076172928,70,2026-10-08 01:16:32.994244,25.0,0.862833217802008,0.049963814391511305,0.0578462185510384
0276,cdot_cos,Q,P-Q,71,14,17039,-0.004060246187719926,-0.0036495008128132837,-0.016926524331529483,0.39576009440951865,1118.0,1.4776015039150703,0.5437276705696815,4.58153155161463,-0.01409154911699587,0.129,0.9999999999997322,9.964318670801026,0.35266791878097914,71,2026-10-08 01:16:33.123244,25.0,0.7083041324311794,0.2605491024862065,0.20844977626541014
0276,cdot_cos,R,Q-R,72,14,17086,0.031928288013942895,0.04509493497142802,0.03598853420166282,0.7108905934362539,1118.0,1.5179331512182737,0.5446035561270599,4.621115194465838,-0.021613990153367728,0.047,0.9999999999997198,-8.588383462889011,0.35763505858739464,72,2026-10-08 01:16:33.170244,25.0,0.7060736413777937,0.6441748887983574,0.8581201553873059
0276,cdot_cos,S,R-S,73,14,17100,-0.016644514277024076,-0.03028572043629855,-0.04857280229096697,0.22893755931570753,1118.0,1.5381539434621159,0.5448855707427261,4.655505144608365,-0.011054378804235977,0.014,0.9999999999997022,37.44348967228348,0.3626021913898218,73,2026-10-08 01:16:33.184243,25.0,0.38471887705723634,1.9305384521585225,1.4443423031315865
0276,cdot_cos,T,S-T,74,14,17389,-0.00924538923913306,0.004401046023595713,0.007399125037891016,0.5461131190514855,1118.0,1.5719882278787123,0.5455581785665876,4.6930696889621295,-0.018819198953827065,0.289,0.9999999999996919,-11.54435002705279,0.3675693881324057,74,2026-10-08 01:16:33.473243,25.0,0.6619263443101581,0.12352396398170824,0.11707364850033362
0276,cdot_cos,P,T-P,75,15,18028,0.011549151237365978,3.908306203225978e-05,0.02079454047649904,0.6271158502795908,1098.0,1.6095507946435432,0.5463303463827588,4.731360429893444,-0.02136643676650734,0.639,0.9999999999996783,-3.2988137543867735,0.37253667003101726,75,2026-10-08 01:16:34.112243,25.0,0.8876153617610145,0.050760495618885855,0.05878335956937549
0276,cdot_cos,Q,P-Q,76,15,18137,-0.007410367117736647,-0.00543603921518958,-0.018959518355102626,0.3836727826058536,1098.0,1.6368601412796484,0.546802653081571,4.766915993305785,-0.015848103782052203,0.109,0.9999999999996475,11.683791481959496,0.3775038244157871,76,2026-10-08 01:16:34.221244,25.0,0.7059566349933621,0.3105951476912727,0.25054446455142365
0276,cdot_cos,R,Q-R,77,15,18192,0.02285826416407656,0.03118318858874567,0.03026863128181321,0.6806402702238736,1098.0,1.6772605368402407,0.5476403231926587,4.80552533149793,-0.023926422549824994,0.055,0.999999999999632,-9.643794926960252,0.382470965953033,77,2026-10-08 01:16:34.276243,25.0,0.7134580046872705,0.5686991108297028,0.7345526465562231
0276,cdot_cos,S,R-S,78,15,18215,-0.019481975398123488,-0.035541095517924746,-0.04234023956220005,0.25759506563430745,1098.0,1.6994170434709157,0.5479572776371483,4.839428646161558,-0.01336785099538379,0.023,0.9999999999996099,33.31258399434139,0.3874380997366173,78,2026-10-08 01:16:34.299244,25.0,0.4539137448178068,1.3080391780662983,0.9633263752467406
0276,cdot_cos,T,S-T,79,15,18826,-0.0007363592194550992,-0.005359587679403379,0.01874561617866839,0.6150619079218352,1098.0,1.7374303390312904,0.5487139146522226,4.877076957085839,-0.023336634023798087,0.611,0.9999999999995985,-13.175119416322664,0.3924053894555742,79,2026-10-08 01:16:34.910244,25.0,0.652350600185825,0.06070290109638122,0.06221488635085875
0276,cdot_cos,P,T-P,80,16,19126,0.01009575622116051,3.86821290044415e-05,0.010832115440615608,0.5672900016839227,1098.0,1.7735959886106936,0.5494115840650342,4.914087751904206,-0.022675283110121035,0.3,0.9999999999995701,0.947943111067231,0.397372597652082,80,2026-10-08 01:16:35.210243,25.0,0.9712550682395155,0.10853540260717018,0.1205521652646772
0276,cdot_cos,Q,P-Q,81,16,19235,-0.006036862078437666,-0.004429679335966337,-0.016132618299598174,0.4005160268774068,1098.0,1.8025515805955925,0.549904033264667,4.949137525369085,-0.018487765961225484,0.109,0.9999999999995406,8.503450004626572,0.40233975387959725,81,2026-10-08 01:16:35.319244,25.0,0.7973176966506235,0.3326404432093431,0.26564763288898113
0276,cdot_cos,R,Q-R,82,16,19287,0.03210440290833513,0.04044299488664096,0.038141264986772797,0.7218248613461383,1098.0,1.8461116052303304,0.5507912959805041,4.987628563864938,-0.028366231812039722,0.052,0.9999999999995233,-11.133642465178443,0.40730689461133873,82,2026-10-08 01:16:35.371244,25.0,0.7059242245265243,0.6136135507639003,0.8376927814372663
0276,cdot_cos,S,R-S,83,16,19303,-0.02344380451316283,-0.03948883126347088,-0.055548207421497964,0.19961454705769027,1098.0,1.8663673898750381,0.5510366041701142,5.020183637100091,-0.01341989110244163,0.016,0.9999999999994963,60.92882888807723,0.41227402530852164,83,2026-10-08 01:16:35.387244,25.0,0.32832697076459244,1.8251745275188538,1.2659865402942365
0276,cdot_cos,T,S-T,84,16,19605,-0.008591466581739867,0.0035763963871668684,0.014852337931422963,0.5917751077921696,1098.0,1.9045171901109337,0.5517636958099915,5.056999055505507,-0.02566493591215207,0.302,0.9999999999994821,-16.84112997335145,0.41724124203807067,84,2026-10-08 01:16:35.689243,25.0,0.6205731201956466,0.12876201583880717,0.1263238418407137
0276,cdot_cos,P,T-P,85,17,20224,0.010718250760498732,7.310152532273729e-05,0.0193097173422386,0.6183953690556889,1098.0,1.9441396474416777,0.5525232583270211,5.094014078031952,-0.027196696272425817,0.619,0.9999999999994612,-2.016635004928899,0.4222085584039974,85,2026-10-08 01:16:36.308243,25.0,0.9452351372274731,0.05597050144534886,0.06401043187519223
0276,cdot_cos,Q,P-Q,86,17,20353,-0.006079087403032105,-0.0056351933569319754,-0.016797338163530837,0.3965326740971303,1098.0,1.9738086709002756,0.5530101826602652,5.128406976258253,-0.02072703769554713,0.129,0.9999999999994209,13.286784280782006,0.4271757228776978,86,2026-10-08 01:16:36.437243,25.0,0.7318818464306324,0.2853142649708152,0.22999242991161162
0276,cdot_cos,R,Q-R,87,17,20402,0.0280936394105114,0.042450847018317056,0.034172726813543504,0.7014721919945889,1098.0,2.017750727804148,0.553871309457129,5.166169200126166,-0.03126342261646083,0.049,0.9999999999993993,-12.235578963849557,0.43214286244357586,87,2026-10-08 01:16:36.486243,25.0,0.7138948762879087,0.6747454105302281,0.8967766715076005
0276,cdot_cos,S,R-S,88,17,20416,-0.020711456703227493,-0.042497986869770216,-0.04880509611373889,0.22791403081640013,1098.0,2.039933721132238,0.5541510272467842,5.1983989803894,-0.01604201286284626,0.014,0.9999999999993668,54.4170242885812,0.43710999099854464,88,2026-10-08 01:16:36.500243,25.0,0.38718733844647546,2.154773794600019,1.5844995234349948
0276,cdot_cos,T,S-T,89,17,20703,-0.009845363464697244,0.00409229949907434,0.01086609323853025,0.5674985047510611,1098.0,2.0780843940529485,0.5548473660465192,5.234421135315375,-0.027990938023117848,0.287,0.9999999999993487,-17.15964292786718,0.4420772119423847,89,2026-10-08 01:16:36.787244,25.0,0.6525382732144007,0.139141201319541,0.13292917393975826
0276,cdot_cos,P,T-P,90,18,21322,0.01285881251691558,7.136179297366587e-05,0.022704175981612826,0.6382102192951153,898.0,2.1198007706896544,0.555630213055662,5.2711726731849256,-0.031189759711004364,0.619,0.9999999999993253,-4.086138990796253,0.4470445497609606,90,2026-10-08 01:16:37.406244,25.0,0.9025239986583778,0.05714782857375976,0.06739317711907256
0276,cdot_cos,Q,P-Q,91,18,21431,-0.009316924796299276,-0.009143728761869052,-0.022175737313214858,0.3648457009718116,898.0,2.148833405827263,0.5560776195089475,5.30464425864081,-0.02206796928490762,0.109,0.999999999999277,20.388151219344877,0.4520117099516681,91,2026-10-08 01:16:37.515244,25.0,0.6614308817566041,0.3319859311515763,0.2663544508037493
0276,cdot_cos,R,Q-R,92,18,21486,0.017669212399034448,0.038727900712235405,0.026986137195333722,0.6625443556202961,898.0,2.192173703680698,0.5568898577209279,5.3415017547413255,-0.033489441304899725,0.055,0.9999999999992509,-14.061727029739567,0.4569788514917606,92,2026-10-08 01:16:37.570244,25.0,0.7110255204059615,0.6375964049920579,0.7880054155169993
0276,cdot_cos,S,R-S,93,18,21508,-0.014085653089725215,-0.05129432698743518,-0.031754865488759665,0.3113379589729222,898.0,2.2189690103763895,0.5572714339524382,5.374132983906046,-0.021035783306479656,0.022,0.9999999999992163,32.63740497967976,0.4619459814697769,93,2026-10-08 01:16:37.592243,25.0,0.5532072651132582,1.4694521563764849,1.2179684861677915
0276,cdot_cos,T,S-T,94,18,21781,-0.00781520064839829,-0.0006219438143030411,0.006270452441326926,0.5391102688757864,898.0,2.2568295985612634,0.5579320081498513,5.409353409135053,-0.030148989294643817,0.273,0.9999999999991938,-13.795885494546749,0.4669132064395381,94,2026-10-08 01:16:37.865243,25.0,0.7391367300560616,0.1542840218012985,0.13868347320466637
0276,cdot_cos,P,T-P,95,19,22220,0.028127610901555262,-0.0011438098841282795,0.03594281154995355,0.710655607935821,1278.0,2.3032080862798985,0.5588024641374237,5.446534689169849,-0.037611522825910036,0.439,0.9999999999991694,-8.573131367707987,0.47188049768644175,95,2026-10-08 01:16:38.304243,25.0,0.820032888291005,0.08304669864705068,0.10564575790121883
0276,cdot_cos,Q,P-Q,96,19,22310,-0.006372431032788151,-0.0030597891472092056,-0.03450004193434341,0.29681706997020374,1278.0,2.329744599973374,0.5591659178179308,5.478686883299734,-0.021860601378523404,0.09,0.9999999999991199,43.33680546421367,0.47684765337701573,96,2026-10-08 01:16:38.394243,25.0,0.4865009699897421,0.411728650577999,0.294850152149727
0276,cdot_cos,R,Q-R,97,19,22361,0.03242180969044357,0.025919844543950268,0.038794240723231725,0.7250907982090278,1278.0,2.3773192433839383,0.56005352698664,5.515889737346948,-0.03980150696749839,0.051,0.9999999999990973,-20.212618595484916,0.48181479417567163,97,2026-10-08 01:16:38.445244,25.0,0.6371440855683129,0.675072553418531,0.9328361453051841
0276,cdot_cos,S,R-S,98,19,22375,-0.027090874230660752,-0.027175974221823957,-0.05951268392110433,0.18424959514349473,1278.0,2.398602000422064,0.5602790124531997,5.546481446265527,-0.018063883182181287,0.014,0.9999999999990559,96.40365792518459,0.48678192037967316,98,2026-10-08 01:16:38.459244,25.0,0.3001794221509751,2.318910102161263,1.5201969312946975
0276,cdot_cos,T,S-T,99,19,22679,-0.00474314988843698,0.005709529758114242,0.022347724342223773,0.6361500969275101,1278.0,2.4422487262444537,0.5610573439526625,5.582452280957359,-0.037534696538466784,0.304,0.9999999999990373,-25.016093232412548,0.491749168240771,99,2026-10-08 01:16:38.763244,25.0,0.5952690871419662,0.14103477041434312,0.14357475599470262
0276,cdot_cos,P,T-P,100,20,23498,0.011460350907558038,8.050984963276955e-05,0.01620350079599502,0.5999093754092097,1078.0,2.4843511408339847,0.5617910597883294,5.617912917241499,-0.036834506786871446,0.819,0.9999999999990075,0.9543064461173384,0.4967166390733386,100,2026-10-08 01:16:39.582243,25.0,0.9811704620895193,0.04530846516395156,0.05140709962091699
0276,cdot_cos,Q,P-Q,101,20,23627,-0.0055850916627764825,-0.005325151853756722,-0.01704544257033452,0.3950493802057113,1078.0,2.5164639921830063,0.5622740754158397,5.650787213751717,-0.028511134899741906,0.129,0.9999999999989393,17.232096464522982,0.5016838123555912,101,2026-10-08 01:16:39.711244,25.0,0.7468177658765646,0.3074404390956534,0.24893683216295848
0276,cdot_cos,R,Q-R,102,20,23676,0.027037567028540592,0.04189350444662268,0.03262265869131707,0.6932944145692533,1078.0,2.5636707741206632,0.5631214608803151,5.6872507135905055,-0.042558559333856126,0.049,0.9999999999989035,-16.57737242732978,0.5066509510769684,102,2026-10-08 01:16:39.760243,25.0,0.7188713708180472,0.730169306925456,0.9634037130134067
0276,cdot_cos,S,R-S,103,20,23689,-0.02032037980387483,-0.04385985638998109,-0.047357946832415426,0.2343429576370502,1078.0,2.588020584261701,0.5634078056628622,5.717967475569937,-0.022258134159240557,0.013,0.9999999999988518,70.89504126473152,0.5116180740984247,103,2026-10-08 01:16:39.773243,25.0,0.4017018091620702,2.5438199125802363,1.8730623185413666
0276,cdot_cos,T,S-T,104,20,23977,-0.007808596312135829,0.0027833693415188127,0.012511783491739002,0.5775672412144847,1078.0,2.6298100918477494,0.5641133570036431,5.7528527717760465,-0.03867601144573837,0.288,0.9999999999988214,-23.269571379918577,0.5165853246095966,104,2026-10-08 01:16:40.061243,25.0,0.654098266622999,0.1495822878074584,0.14510245689600132
0276,cdot_cos,P,T-P,105,21,24576,0.012440250400617891,6.423275095175539e-05,0.020248846712753718,0.623920211065032,1078.0,2.674179982038797,0.5648752410898588,5.788251659305912,-0.041725532615923364,0.599,0.9999999999987839,-4.002605153931069,0.521552724339122,105,2026-10-08 01:16:40.660243,25.0,0.9295215807544628,0.06415517208801383,0.07407327243914465
0276,cdot_cos,Q,P-Q,106,21,24685,-0.005984763505687685,-0.0045110173407231675,-0.018425013906305576,0.3868374845025581,1078.0,2.70666798800919,0.5653474641081906,5.820611569405734,-0.030986743986574604,0.109,0.9999999999987129,22.740925817814837,0.5265198913428353,106,2026-10-08 01:16:40.769243,25.0,0.7071158745386629,0.3687243189101503,0.2980551006458066
0276,cdot_cos,R,Q-R,107,21,24739,0.024947723167067105,0.03495419888781615,0.03093248667275479,0.6842369460244206,1078.0,2.75456188356121,0.5661824398512584,5.856639918209322,-0.04634241185317582,0.054,0.9999999999986736,-18.390555646781863,0.5314870324039364,107,2026-10-08 01:16:40.823244,25.0,0.7179521417199408,0.6858245916643713,0.8869239917040711
0276,cdot_cos,S,R-S,108,21,24763,-0.017245803759405518,-0.03251022553915151,-0.04219352692647262,0.2582971215960236,1078.0,2.780737043908942,0.5664975429611553,5.88721839592798,-0.025666374692912775,0.024,0.999999999998617,65.61673468417243,0.5364541591853581,108,2026-10-08 01:16:40.847244,25.0,0.44683358212187724,1.4027834725788835,1.090631681155511
0276,cdot_cos,T,S-T,109,21,25035,-0.009865982567157185,0.004872464147021954,0.0073798211922483335,0.545993493558358,1078.0,2.821895490244996,0.5671634368279114,5.9213633540618815,-0.04083454957015134,0.272,0.9999999999985808,-22.778667343987777,0.5414214123676653,109,2026-10-08 01:16:41.119244,25.0,0.6897304269681817,0.1604471382335731,0.15131781741196376
0276,cdot_cos,P,T-P,110,22,25654,0.012709461520791103,5.8148184078259715e-05,0.022575444087948288,0.6374667910474194,1078.0,2.868020287108006,0.5679405845042128,5.956614476755867,-0.04645486151883757,0.619,0.9999999999985397,-7.231974205255479,0.5463888476878032,110,2026-10-08 01:16:41.738244,25.0,0.8860478123335086,0.06404384086798544,0.07451501916479747
0276,cdot_cos,Q,P-Q,111,22,25763,-0.006008627082997753,-0.004532203746557034,-0.018718088603788856,0.38510104121166916,1078.0,2.901181765239562,0.568409906636963,5.988573692346026,-0.03385534367539475,0.109,0.9999999999984602,26.846204268293402,0.551356017232177,111,2026-10-08 01:16:41.847244,25.0,0.6892457229855167,0.378537211075361,0.304233744326205
0276,cdot_cos,R,Q-R,112,22,25816,0.02617055772571332,0.036299456866970704,0.03217918480871107,0.6909318989523627,1078.0,2.9505413991224345,0.5692516360561758,6.0243968241102115,-0.05108908266443066,0.053,0.999999999998417,-20.474202986933054,0.5563231577635441,112,2026-10-08 01:16:41.900243,25.0,0.7136752622306366,0.707301283789167,0.9313138468466481
0276,cdot_cos,S,R-S,113,22,25836,-0.020775298095475347,-0.03832223367533341,-0.04694585582118867,0.23619651369294847,1078.0,2.976155701321214,0.5695392915070625,6.054289504937107,-0.02684707452199295,0.02,0.9999999999983511,84.27446122682643,0.5612902809763605,113,2026-10-08 01:16:41.920243,25.0,0.4053653696942294,1.7431268584219284,1.280715109938968
0276,cdot_cos,T,S-T,114,22,26113,-0.007210240071808291,0.0035528230641505695,0.013565058023667056,0.5839783117466133,1078.0,3.0202664734593117,0.5702502963539414,6.088610822121192,-0.046758702144348484,0.277,0.9999999999983127,-28.00491123198559,0.5662575474320163,114,2026-10-08 01:16:42.197243,25.0,0.653222219541072,0.1635187313020705,0.1592446647584757
0276,cdot_cos,P,T-P,115,23,26732,0.013121849961672547,0.00010811950092838463,0.020332090033480837,0.6244083981796847,1078.0,3.066745078462561,0.5710102050468516,6.123406205959917,-0.049991079925575006,0.619,0.9999999999982659,-4.253639695642327,0.5712250101810666,115,2026-10-08 01:16:42.816243,25.0,0.9373869726592694,0.06503423204462995,0.07508659935904571
0276,cdot_cos,Q,P-Q,116,23,26861,-0.005200799517963948,-0.004971846311135723,-0.018322649479636494,0.38744466633093766,1078.0,3.1007788527305635,0.5714815594542543,6.155049103270593,-0.03707978225991077,0.129,0.9999999999981772,27.391910339421045,0.5761921939227944,116,2026-10-08 01:16:42.945244,25.0,0.7059554338230268,0.327919031688316,0.26382770750389595
0276,cdot_cos,R,Q-R,117,23,26910,0.027362934374052062,0.04220958053147457,0.03256373389201601,0.6929810851962424,1078.0,3.1513481886381465,0.5723242970696568,6.190638204487278,-0.05582339843792708,0.049,0.9999999999981282,-22.24134278029488,0.5811593319644701,117,2026-10-08 01:16:42.994244,25.0,0.7147901297932631,0.7935561340577016,1.03202726342006
0276,cdot_cos,S,R-S,118,23,26923,-0.015516014937593912,-0.03157443298853448,-0.04287894931164597,0.25502791601312375,1078.0,3.1785473538682183,0.5726343323898606,6.22040547570677,-0.030393003600077205,0.013,0.9999999999980549,82.02418621573123,0.5861264492803592,118,2026-10-08 01:16:43.007244,25.0,0.43312941644668507,2.7001606845777735,2.092243479236294
0276,cdot_cos,T,S-T,119,23,27211,-0.008194561116296309,0.002907626441180877,0.007321453821297603,0.5456317600376129,1078.0,3.2215523664371686,0.5732974605005595,6.2539413627744525,-0.048568594528858866,0.288,0.9999999999980086,-27.40886811392357,0.5910937335527997,119,2026-10-08 01:16:43.295244,25.0,0.6878220120611096,0.15621934835181103,0.14932296030885517
0276,cdot_cos,P,T-P,120,24,27810,0.010557509587894554,7.661087707574016e-05,0.01875207070419086,0.6151001116712079,1098.0,3.2685296985188614,0.5740447003102227,6.288349224878933,-0.05377652556388221,0.599,0.999999999997955,-6.969557788109318,0.596061212103601,120,2026-10-08 01:16:43.894243,25.0,0.907697643288176,0.06873270615879572,0.07842626390933699
0276,cdot_cos,Q,P-Q,121,24,27920,-0.005915190892395426,-0.004369392506457927,-0.01647270048028998,0.39847639604249185,1098.0,3.303894148415406,0.5745285997149475,6.319819616776441,-0.04098443604596424,0.11,0.999999999997858,26.435431399615997,0.6010283876666064,121,2026-10-08 01:16:44.004243,25.0,0.7318932074950336,0.4007108940907157,0.3214949990594947
0276,cdot_cos,R,Q-R,122,24,27972,0.030661204085816,0.03911361521930312,0.03657639497821143,0.7139017111771396,1098.0,3.356686095218819,0.575395185910513,6.355452635777686,-0.06196912044217475,0.052,0.9999999999978062,-24.215345805869685,0.6059955274653398,122,2026-10-08 01:16:44.056243,25.0,0.7127451831187709,0.752230500444151,1.0152297462194815
0276,cdot_cos,S,R-S,123,24,27988,-0.021714221567155436,-0.037107575850262774,-0.05237542565297144,0.21258966671863483,1098.0,3.3821261204615976,0.5756531535373521,6.38430741284266,-0.030208366787328002,0.016,0.9999999999977214,123.11914500283021,0.6109626447246466,123,2026-10-08 01:16:44.072243,25.0,0.3494519176459163,2.2482908229472938,1.5900015776736665
0276,cdot_cos,T,S-T,124,24,28270,-0.0067042634820379775,0.003700743750092189,0.015009958085117459,0.592726698822784,1098.0,3.4286314015531323,0.5763721816264172,6.41821407341976,-0.0557865662622994,0.282,0.9999999999976737,-35.57329659850828,0.6159299372523845,124,2026-10-08 01:16:44.354244,25.0,0.6322306146468941,0.16740602591080067,0.16491234429622248
0276,cdot_cos,P,T-P,125,25,28908,0.011909209546894665,8.531910200939594e-05,0.018613473028932643,0.6142794534046789,1079.0,3.476543119075289,0.5771170138870958,6.452369660483341,-0.05824316136772547,0.638,0.9999999999976148,-3.2981856924242825,0.6208974706964708,125,2026-10-08 01:16:44.992243,25.0,0.9586988692918305,0.06537525427952538,0.07509673592814552
0276,cdot_cos,Q,P-Q,126,25,29018,-0.006340019269688495,-0.004801644193076384,-0.01824922881658316,0.3878803817556586,1079.0,3.5120502260138067,0.577587150185092,6.483405470969661,-0.04367210832258771,0.11,0.9999999999975042,30.993252610449893,0.6258646490809264,126,2026-10-08 01:16:45.102243,25.0,0.7163068378976724,0.4080699103798935,0.32279188125925046
0276,cdot_cos,R,Q-R,127,25,29070,0.03163571177455352,0.041819257015411414,0.03797573104424202,0.7209931445788867,1079.0,3.5663184993588657,0.5784606668462021,6.518926500627497,-0.0675671435309263,0.052,0.9999999999974469,-27.354985053142556,0.6308317886615686,127,2026-10-08 01:16:45.154243,25.0,0.7021215509161425,0.7682561045763191,1.0436206412511349
0276,cdot_cos,S,R-S,128,25,29084,-0.02215553999267968,-0.03936611153458262,-0.053791251767233206,0.20672487603903628,1079.0,3.591948860889744,0.5787110333281346,6.547373812609616,-0.032266285504633965,0.014,0.9999999999973507,140.99674107262504,0.6357989024031598,128,2026-10-08 01:16:45.168243,25.0,0.33485831395722404,2.598196442821015,1.8307401093484403
0276,cdot_cos,T,S-T,129,25,29368,-0.008094203354347783,0.003985125254774541,0.014061336638331897,0.5869893788370956,1079.0,3.639067999757854,0.5794217208022944,6.580971555049055,-0.05989392449386995,0.284,0.9999999999972964,-38.87452641809674,0.6407662085729648,129,2026-10-08 01:16:45.452243,25.0,0.6304785457547055,0.16942177128192626,0.16591246080320513
0276,cdot_cos,P,T-P,130,26,29987,0.011250298948590145,6.252569198279394e-05,0.019344502302937928,0.6186005639975197,1098.0,3.688180426977878,0.580170324804968,6.6149655543955435,-0.06322741013284208,0.619,0.9999999999972304,-4.452935900778847,0.645733759875388,130,2026-10-08 01:16:46.071244,25.0,0.9486435469100227,0.06937973952337344,0.07934156255254256
0276,cdot_cos,Q,P-Q,131,26,30117,-0.005323808312829011,-0.004922311278827226,-0.016574107261419155,0.3978688904445358,1098.0,3.7249601172877904,0.580651614116399,6.645868106857334,-0.047890057237415545,0.13,0.9999999999971114,31.867221089587314,0.6507009559844538,131,2026-10-08 01:16:46.201244,25.0,0.7259590021839947,0.3469741002873962,0.2829206946916343
0276,cdot_cos,R,Q-R,132,26,30166,0.026242510111678625,0.04078477411472646,0.03156631842450763,0.6876504998084275,1098.0,3.778393693052601,0.5814830808281004,6.680738682184936,-0.07038241820779192,0.049,0.9999999999970434,-27.051426898799665,0.6556680930778382,132,2026-10-08 01:16:46.250243,25.0,0.7264587515521361,0.8341221926395455,1.0904811380573582
0276,cdot_cos,S,R-S,133,26,30181,-0.018810696387679383,-0.03985954641005,-0.04505320649935801,0.2448389921217372,1098.0,3.806704092166466,0.5817790143291302,6.7094096291015894,-0.037689077493929045,0.015,0.999999999996939,110.47529461889796,0.6606352052782672,133,2026-10-08 01:16:46.265243,25.0,0.4200217912690558,2.595907254075591,1.887359940924327
0276,cdot_cos,T,S-T,134,26,30805,-0.00030727620146592266,-0.013037474443738921,0.01850342018621346,0.613627350200016,1098.0,3.8562709106748687,0.5825204381596916,6.743168300579396,-0.0666314494851089,0.624,0.9999999999968812,-39.03620412263294,0.6656027850959478,134,2026-10-08 01:16:46.889244,25.0,0.6476757869913983,0.07794825844829842,0.07943400401987634
0276,cdot_cos,P,T-P,135,27,31085,0.012246797092411346,7.283430894284867e-05,0.012554073293877269,0.5778251701997901,1118.0,3.9039835187099423,0.5832182626878497,6.776391146911576,-0.06492221443986279,0.28,0.9999999999967747,2.4493765642740013,0.6705701019668587,135,2026-10-08 01:16:47.169244,25.0,0.9740161154570844,0.15204184396200382,0.17040217155383428
0276,cdot_cos,Q,P-Q,136,27,31214,-0.004470614932463479,-0.004026864682100114,-0.016717412024874825,0.39701091997186455,1118.0,3.941414343293591,0.5836975295225563,6.807031970733558,-0.05147372936901039,0.129,0.9999999999966588,28.06053767331197,0.6755373014809607,136,2026-10-08 01:16:47.298244,25.0,0.7700738126426001,0.35887737280857374,0.2901614308809965
0276,cdot_cos,R,Q-R,137,27,31262,0.029414890443518433,0.041993228124974136,0.03388550537598191,0.6999663514643902,1118.0,3.9965738808945543,0.5845421347043775,6.841897909262521,-0.07670404570862031,0.048,0.9999999999965857,-29.872320088309323,0.6805044374123228,137,2026-10-08 01:16:47.346244,25.0,0.719692881368313,0.8651287043606459,1.1491570333534058
0276,cdot_cos,S,R-S,138,27,31276,-0.01925637941192798,-0.037037063190232936,-0.04867126985544641,0.22850329925660107,1118.0,4.024466698912213,0.5848177479582769,6.870060653606918,-0.03918563417932047,0.014,0.9999999999964683,136.12702218958054,0.6854715465202998,138,2026-10-08 01:16:47.360243,25.0,0.3838692736279012,2.711695873294895,1.9923441441184662
0276,cdot_cos,T,S-T,139,27,31564,-0.007704734200903275,0.0036618046283608922,0.011551645211024704,0.5717001558839178,1118.0,4.072501365346811,0.585507081303201,6.90303432296496,-0.06808804705283218,0.288,0.9999999999963992,-41.92806439197604,0.6904388820391544,139,2026-10-08 01:16:47.648243,25.0,0.6541060039731174,0.17210488968845572,0.1667870362312449
0276,cdot_cos,P,T-P,140,28,32203,0.011978451929046079,7.30161092614751e-05,0.019683186129949355,0.6205962229864628,1098.0,4.123599115372763,0.5862549926611357,6.9366705336590275,-0.07327785825768417,0.639,0.9999999999963187,-6.939072591681268,0.6954065145437169,140,2026-10-08 01:16:48.287244,25.0,0.9316260959383168,0.06933508163629758,0.07996518000931449
0276,cdot_cos,Q,P-Q,141,28,32332,-0.006467541993379248,-0.005996055611941106,-0.018445993922425328,0.38671308341195004,1098.0,4.161111599678,0.5867208389473407,6.96693252547012,-0.05435914316568553,0.129,0.9999999999961721,40.61149708011449,0.7003737181412341,141,2026-10-08 01:16:48.416243,25.0,0.706076362233175,0.36244979843140135,0.29079445197857634
0276,cdot_cos,R,Q-R,142,28,32380,0.02689913831257633,0.03995189295004765,0.033366680305955576,0.6972353000752919,1098.0,4.217111163368065,0.5875603570647715,7.001598399998391,-0.08201509823718073,0.048,0.9999999999960901,-32.942654240902414,0.7053408534464515,142,2026-10-08 01:16:48.464243,25.0,0.7137620347661396,0.8770929644618027,1.1666575768763583
0276,cdot_cos,S,R-S,143,28,32394,-0.022517998963528067,-0.045897573628169076,-0.049417137276104396,0.22523273565312313,1098.0,4.245312524266333,0.5878314438505754,7.029450381233238,-0.04170968752680606,0.014,0.9999999999959595,148.68083883487887,0.7103079599565509,143,2026-10-08 01:16:48.478244,25.0,0.3804760228499462,2.838475049429277,2.014382921304847
0276,cdot_cos,T,S-T,144,28,32662,-0.004346712484582678,0.002421625329882265,0.01817128647894539,0.6116568726393227,1098.0,4.296588464752085,0.5885673558010297,7.06281695333465,-0.07650810850305947,0.268,0.9999999999958865,-47.286120241383664,0.7152752915684903,144,2026-10-08 01:16:48.746243,25.0,0.6345538594273832,0.1897295907622277,0.1913281361408653
0276,cdot_cos,P,T-P,145,29,33301,0.010865140762185279,6.501644580158022e-05,0.015211853246767958,0.5939445724203009,1098.0,4.347007584914887,0.5892815784078829,7.095898817892164,-0.0760853683076809,0.639,0.9999999999957948,0.5918885671249677,0.720242959207673,145,2026-10-08 01:16:49.385243,25.0,0.9944592767697472,0.06985470568960434,0.07890316144413481
0276,cdot_cos,Q,P-Q,146,29,33430,-0.0056838299368023575,-0.005271298270702291,-0.016548970698987635,0.39801944877923356,1098.0,4.385862778623399,0.5897599893267393,7.126106741323197,-0.05921937185765802,0.129,0.9999999999956363,35.25420467061437,0.7252101671710903,146,2026-10-08 01:16:49.514244,25.0,0.752160616117331,0.3690632815922678,0.3012030520039706
0276,cdot_cos,R,Q-R,147,29,33466,0.025745509250341605,0.03648614055337411,0.03142933918714396,0.6869144925861405,1098.0,4.442225911565692,0.5905852461541892,7.160475360484168,-0.08678651423539765,0.036,0.9999999999955452,-33.404319068678795,0.7301772908914985,147,2026-10-08 01:16:49.550244,25.0,0.7278624746151758,1.2084134694646038,1.5656425817303583
0276,cdot_cos,S,R-S,148,29,33489,-0.01661964692598123,-0.03123427019795527,-0.04236515617632283,0.2574759573859267,1098.0,4.4728685484248505,0.5908944457580633,7.188550989237962,-0.04763671186252446,0.023,0.9999999999954063,126.61659938223683,0.7351444033378872,148,2026-10-08 01:16:49.573244,25.0,0.43962157073765507,1.690532359319553,1.3322885590938514
0276,cdot_cos,T,S-T,149,29,33760,-0.012074406517024053,0.006734171162842763,0.004545240408957178,0.5283772252151977,1098.0,4.519990400094391,0.5915287418974983,7.220538278385148,-0.07385873201421246,0.271,0.999999999995314,-41.34034328987938,0.7401117507689136,149,2026-10-08 01:16:49.844243,25.0,0.7011528400251855,0.1866112703649843,0.1738813714743205
0276,cdot_cos,P,T-P,150,30,34399,0.010779448008292386,6.992803255631956e-05,0.02285385452531644,0.6390737833389032,1098.0,4.574011856962672,0.5922955176347243,7.254119069009231,-0.08557553601885406,0.639,0.9999999999952205,-15.280613921130554,0.7450794539998935,150,2026-10-08 01:16:50.483244,25.0,0.8720420081656559,0.07302615250623833,0.0845406210771215
0276,cdot_cos,Q,P-Q,151,30,34528,-0.006351704268331885,-0.005890536490629772,-0.017131152276624272,0.394537411393059,1098.0,4.613317822997364,0.5927686688646198,7.284074224602375,-0.0628808729340248,0.129,0.9999999999950464,47.96492463909356,0.7500466664228165,151,2026-10-08 01:16:50.612243,25.0,0.6970381019800567,0.3775929317054718,0.30469741112164295
0276,cdot_cos,R,Q-R,152,30,34576,0.027523444168843978,0.04080834735091677,0.033875148437175866,0.6999119712357076,1098.0,4.671430833342684,0.5936076185187207,7.3184972295738655,-0.09389292526846836,0.048,0.9999999999949486,-36.96533180847238,0.7550138006900965,152,2026-10-08 01:16:50.660243,25.0,0.7187140659833233,0.9089412613947541,1.2106877155274958
0276,cdot_cos,S,R-S,153,30,34589,-0.022021786865911042,-0.0447737634938134,-0.04954523103475502,0.22467440893109925,1098.0,4.70057618409126,0.5938768090347901,7.345861459794145,-0.04752262786148563,0.013,0.9999999999947907,172.25828786264213,0.7599809010127371,153,2026-10-08 01:16:50.673243,25.0,0.3769088256092234,3.1122723355023068,2.241950057582816
0276,cdot_cos,T,S-T,154,30,34878,-0.007276231517860933,0.0030230651507649775,0.01474555534805011,0.5911300438514203,1098.0,4.752349914065744,0.5945847934823998,7.378614240556701,-0.08510084642099383,0.289,0.9999999999946986,-53.07774582673633,0.7649482802058923,154,2026-10-08 01:16:50.962244,25.0,0.6430242803630772,0.18246215510722535,0.17914785458298746
0276,cdot_cos,P,T-P,155,31,35497,0.012147271211186236,3.560234251222607e-05,0.01942350272904717,0.6190664267017543,1038.0,4.806039309743237,0.5953258152775304,7.411757976896438,-0.08918211389490045,0.619,0.9999999999945911,-5.507621369203361,0.7699160003077796,155,2026-10-08 01:16:51.581243,25.0,0.9552680512236229,0.07518795410147983,0.08673569576331643
0276,cdot_cos,Q,P-Q,156,31,35606,-0.006516091910802572,-0.005162481753890789,-0.01866336312198881,0.3854250645264432,1038.0,4.845432601243376,0.5957869494651529,7.441388778793899,-0.06604827454675662,0.109,0.9999999999944025,50.167261437319056,0.7748831966560301,156,2026-10-08 01:16:51.690243,25.0,0.7045073404102916,0.4476438286217091,0.36140634403797384
0276,cdot_cos,R,Q-R,157,31,35658,0.024719380122764357,0.03633734794726669,0.031235472033566927,0.6858712083442832,1038.0,4.903625664382769,0.596607127821298,7.475478156888381,-0.09849061156337027,0.052,0.9999999999942962,-39.555222072787146,0.7798503347053837,157,2026-10-08 01:16:51.742244,25.0,0.7193586530537792,0.8609330060225496,1.1190973680652583
0276,cdot_cos,S,R-S,158,31,35674,-0.01873754364322993,-0.036993790304758745,-0.04345692376599429,0.2522924313115922,1038.0,4.934969633869721,0.5969086885490977,7.5030381757914135,-0.053523289998316806,0.016,0.9999999999941281,149.11531051521666,0.7848174355395819,158,2026-10-08 01:16:51.758244,25.0,0.4316479534142213,2.5839105784553618,1.958998092934483
0276,cdot_cos,T,S-T,159,31,35956,-0.007338216860794619,0.002729049464053429,0.011399326782435312,0.5707674885770928,1038.0,4.986310802893341,0.5975906463557672,7.5353436162048455,-0.08835876576719698,0.282,0.9999999999940253,-51.081570484557055,0.7897848225288839,159,2026-10-08 01:16:52.040244,25.0,0.6741852418490765,0.18763019599223557,0.18206088306248175
0276,cdot_cos,P,T-P,160,32,36535,0.011894584037616458,8.634357559610497e-05,0.019232800898411076,0.6179414924262888,1058.0,5.040793064409342,0.5983285426648886,7.568336585148264,-0.0947077725989579,0.579,0.999999999993909,-8.604199198829118,0.7947525360020711,160,2026-10-08 01:16:52.619244,25.0,0.9351597912573708,0.08198771529841073,0.09409717014853368
0276,cdot_cos,Q,P-Q,161,32,36665,-0.005603041646524937,-0.005495740832945434,-0.017497625684141396,0.39235098169302174,1058.0,5.0812525772089,0.598796825908978,7.597893427079377,-0.07097037517172519,0.13,0.9999999999937123,50.69025579463084,0.7997197593084656,161,2026-10-08 01:16:52.749243,25.0,0.7157179610093963,0.3844731742029663,0.31122702153506626
0276,cdot_cos,R,Q-R,162,32,36711,0.026770395287397292,0.0427020119868656,0.03237343693392223,0.6919679755422624,1058.0,5.140756089702113,0.5996222715952466,7.6319591563422655,-0.1053345328759353,0.046,0.9999999999935991,-41.631034331950744,0.804686890621995,162,2026-10-08 01:16:52.795244,25.0,0.7216332101923559,0.9832262873691178,1.2935546194176657
0276,cdot_cos,S,R-S,163,32,36725,-0.01971344103290634,-0.04445722075524491,-0.04648383632030363,0.23828665636880503,1058.0,5.171709395646859,0.5999063921590135,7.6591057390702275,-0.05526612374184753,0.014,0.9999999999934162,176.2224052714521,0.8096539868285665,163,2026-10-08 01:16:52.809243,25.0,0.40415728236167875,2.988857449882579,2.2109504246247296
0276,cdot_cos,T,S-T,164,32,36994,-0.006799880902453969,0.0029368135790482077,0.01291356013045237,0.5800159827552783,1058.0,5.224444098298825,0.6005976917686328,7.691416889712144,-0.09486536580038527,0.269,0.9999999999933074,-57.28231508817075,0.814621374416497,164,2026-10-08 01:16:53.078244,25.0,0.6587404321278795,0.20094829833635297,0.19603978681028253
0276,cdot_cos,P,T-P,165,33,37593,0.012546837957108562,0.00010502892276384443,0.01934671885956253,0.6186136379331628,1038.0,5.279819580151817,0.6013345529671256,7.7242961809015895,-0.10058938354842963,0.599,0.9999999999931856,-7.768108511823352,0.819589146602216,165,2026-10-08 01:16:53.677243,25.0,0.944684008440038,0.08080090795645159,0.0924465473338763
0276,cdot_cos,Q,P-Q,166,33,37723,-0.004072722123287071,-0.004112203517960514,-0.016619560080395633,0.39759669463471775,1038.0,5.321243586030654,0.6018079080106803,7.753767407694989,-0.07590953282269072,0.13,0.9999999999929747,52.13813829974686,0.8245563751201984,166,2026-10-08 01:16:53.807244,25.0,0.722439290669627,0.39405714354906385,0.3186461990679777
0276,cdot_cos,R,Q-R,167,33,37772,0.030098015689407658,0.0531896025111228,0.03417073781269473,0.7014617790254983,1038.0,5.382274437474574,0.6026425622449313,7.787873283736252,-0.11283954951554882,0.049,0.9999999999928558,-44.24588671259587,0.829523509533714,167,2026-10-08 01:16:53.856243,25.0,0.7208825774363048,0.94331155446113,1.2455275804881532
0276,cdot_cos,S,R-S,168,33,37787,-0.016447736391208428,-0.04139342975803265,-0.046545752080616086,0.23800581794933737,1038.0,5.413688118367845,0.6029256248561371,7.814824366522504,-0.05856796461773888,0.015,0.9999999999926583,191.7299662665453,0.8344906042943147,168,2026-10-08 01:16:53.871244,25.0,0.39588051734907015,2.7330451591854064,2.094245392884749
0276,cdot_cos,T,S-T,169,33,38072,-0.010979949832421124,0.0026310852327237643,0.005467786558787303,0.5341205527609673,1038.0,5.464265792250136,0.6035606085862454,7.846302980177573,-0.09496159498734977,0.285,0.9999999999925313,-57.31427223088789,0.8394580260006216,169,2026-10-08 01:16:54.156243,25.0,0.6816453451333709,0.1883216637891522,0.17746552239400334
0276,cdot_cos,P,T-P,170,34,38631,0.00983339665902579,5.99651462440822e-05,0.020813346491446914,0.6272257844046164,1018.0,5.521031466727662,0.6043058340310736,7.879199591451109,-0.10756185177632904,0.559,0.9999999999924004,-16.907979828685654,0.8444257863889987,170,2026-10-08 01:16:54.715244,25.0,0.8894568439149056,0.08815248751244906,0.10154861266104791
0276,cdot_cos,Q,P-Q,171,34,38760,-0.007442368506677322,-0.007759082275743714,-0.017275765165703113,0.3936741218393662,1018.0,5.562820273289054,0.6047733227408046,7.908453804041353,-0.07986082707178378,0.129,0.9999999999921791,59.25495980530552,0.8493930190469511,171,2026-10-08 01:16:54.844243,25.0,0.7068998777923412,0.39205073361269893,0.32394423691001767
0276,cdot_cos,R,Q-R,172,34,38793,0.019427008451717465,0.030828156263788414,0.026869376958394788,0.6618914168896173,1018.0,5.622180555999738,0.6055588878693062,7.941846938459276,-0.11439702462121804,0.033,0.9999999999920449,-43.96350639355615,0.8543601332179622,172,2026-10-08 01:16:54.877243,25.0,0.7394137099620067,1.4236614162638923,1.7987964457783046
0276,cdot_cos,S,R-S,173,34,38818,-0.01838622745599205,-0.040932833269208165,-0.03781323590770952,0.27982478488725304,1018.0,5.656781926762471,0.6058908339046177,7.969266269764974,-0.06722296447480325,0.025,0.9999999999918449,142.11364236402434,0.859327238245106,173,2026-10-08 01:16:54.902244,25.0,0.49571449664418626,1.762667274486418,1.3840548305093137
0276,cdot_cos,T,S-T,174,34,39110,-0.007461535099093898,0.0013362736993970204,0.010924692356898153,0.5678580391143155,1018.0,5.710313919724059,0.6065641627934667,8.001147400654329,-0.10475090944771383,0.292,0.9999999999917172,-55.7349396326412,0.8642946854039582,174,2026-10-08 01:16:55.194243,25.0,0.6988921125499931,0.19010525795240046,0.1833287430191372
0276,cdot_cos,P,T-P,175,35,39649,0.013059868742780398,0.00012060449119139131,0.020521403841874297,0.6255177018742272,998.0,5.767803397406673,0.6073053922729967,8.033912233445417,-0.11351814352041148,0.539,0.9999999999915773,-11.827961940013989,0.8692624559907053,175,2026-10-08 01:16:55.733243,25.0,0.9256750654520026,0.09196217617216101,0.10665951332581411
0276,cdot_cos,Q,P-Q,176,35,39778,-0.006148100678233409,-0.006621781761524442,-0.019207969421013805,0.38220507976653256,998.0,5.8094491456376485,0.6077580568084583,8.062839737553535,-0.08290966372484215,0.129,0.9999999999913416,67.61846223353825,0.8742296943033185,176,2026-10-08 01:16:55.862243,25.0,0.6913018810767758,0.39790352138834384,0.32283525760446335
0276,cdot_cos,R,Q-R,177,35,39826,0.022882451373904343,0.04178386138946191,0.029030552052137754,0.6738749804381671,998.0,5.870462505924865,0.6085557090686745,8.096325288247597,-0.12245568575707776,0.048,0.9999999999912037,-49.578022911282005,0.8791968271738245,177,2026-10-08 01:16:55.910244,25.0,0.7240162128644647,0.9921437334388012,1.2711116726503529
0276,cdot_cos,S,R-S,178,35,39839,-0.0175796369173871,-0.048491090349481014,-0.04046208829129144,0.2666761911901606,998.0,5.904694944047773,0.6088712084954035,8.123373322074912,-0.069245896506121,0.013,0.9999999999909864,168.6525703156197,0.8841639143167843,178,2026-10-08 01:16:55.923244,25.0,0.46374616181437445,3.371254777261284,2.6332644709929225
0276,cdot_cos,T,S-T,179,35,40128,-0.008805940167965945,0.001038136306724916,0.008773696749421155,0.5546168071925837,998.0,5.958115130133659,0.6095270732220002,8.154934611962318,-0.10879803965789561,0.289,0.999999999990849,-60.30533667669012,0.8891313748316336,179,2026-10-08 01:16:56.212243,25.0,0.6952128108276097,0.19388088126948644,0.18484493455323667
0276,cdot_cos,P,T-P,180,36,40647,0.012579248533684263,0.00013140553418683796,0.02138518870165021,0.6305622712297391,978.0,6.016758093421537,0.6102722668469361,8.187680303194728,-0.12048026633547218,0.519,0.999999999990703,-15.676766798132988,0.8940991533291797,180,2026-10-08 01:16:56.731244,25.0,0.9075888434665225,0.09742855487926823,0.11299222213463925
0276,cdot_cos,Q,P-Q,181,36,40777,-0.005989407768660653,-0.006695621716588094,-0.018568656302344916,0.38598605267449215,978.0,6.059245970098339,0.610728168483268,8.216526803241452,-0.08799001515571002,0.13,0.9999999999904576,71.26592359082501,0.8990663988876997,181,2026-10-08 01:16:56.861243,25.0,0.6912530621211298,0.40276298615678113,0.3268298205907896
0276,cdot_cos,R,Q-R,182,36,40826,0.024017784682058105,0.050848895409236296,0.030007192450718756,0.6792178778881264,978.0,6.1214764698223,0.6115299461435478,8.250009837153312,-0.12989598119553802,0.049,0.9999999999903146,-52.26631785326246,0.9040335331618445,182,2026-10-08 01:16:56.910244,25.0,0.7242550128184556,0.9926157393663918,1.2700101984481722
0276,cdot_cos,S,R-S,183,36,40842,-0.015437844053421013,-0.05072753258525335,-0.039455628735479115,0.2716255675182849,978.0,6.156522312556246,0.611850415895377,8.276978870979343,-0.07371446341225742,0.016,0.9999999999900865,175.30989262669493,0.9090006219969373,183,2026-10-08 01:16:56.926244,25.0,0.4666617742905359,2.7487087486626205,2.190365170871622
0276,cdot_cos,T,S-T,184,36,41106,-0.009666460940623808,0.0017860319982945135,0.005771383112797205,0.5360086969131045,978.0,6.2094351497795035,0.6124825266627828,8.308137037587336,-0.112025766153645,0.264,0.9999999999899364,-60.60852736082965,0.9139680646456944,184,2026-10-08 01:16:57.190243,25.0,0.7103577750414443,0.21388028462546424,0.20042741372446174
0276,cdot_cos,P,T-P,185,37,41625,0.013155040724464344,8.253420865463604e-05,0.022821501665088152,0.638887200819826,978.0,6.269451102838491,0.6132354666364157,8.340924422844232,-0.12813286503991567,0.519,0.999999999989789,-21.392274882889502,0.9189358780242989,185,2026-10-08 01:16:57.709243,25.0,0.8818738803809423,0.09885416154830284,0.11563767448745128
0276,cdot_cos,Q,P-Q,186,37,41735,-0.00661087633594656,-0.005724309487166549,-0.019765917060410906,0.3789169101356353,978.0,6.312045769466642,0.6136817716354077,8.369524845586653,-0.09164739219255072,0.11,0.9999999999895306,81.75008778698049,0.923903100654407,186,2026-10-08 01:16:57.819244,25.0,0.6715901308129061,0.4905223246131861,0.38722424207410133
0276,cdot_cos,R,Q-R,187,37,41787,0.02962906962565217,0.04803245940268928,0.03623994596159873,0.7121806652265646,978.0,6.377366014253392,0.6145200921017583,8.403457372716145,-0.1416351939717509,0.052,0.9999999999893939,-59.62851175137127,0.9288702397168379,187,2026-10-08 01:16:57.871244,25.0,0.7026239309605313,0.9422745548186136,1.2561585535913424
0276,cdot_cos,S,R-S,188,37,41802,-0.018760144608146293,-0.04445650291483193,-0.04838921423379847,0.22974876485714754,978.0,6.410042323167778,0.6147903888071601,8.429602665205072,-0.07138121511732144,0.015,0.999999999989144,259.9142995472216,0.9338373249523557,188,2026-10-08 01:16:57.886244,25.0,0.3737350247812344,3.0123445622055085,2.1784205942924
0276,cdot_cos,T,S-T,189,37,42324,-0.003280080341431354,-0.014985368895009664,0.01548006426671494,0.5955606892453096,978.0,6.467736351119557,0.6154907288759228,8.46162007561443,-0.1268364925507916,0.522,0.9999999999890037,-79.1833566390691,0.9388051708602719,189,2026-10-08 01:16:58.408243,25.0,0.6458302184885881,0.11117767241432747,0.11052495776202921
0276,cdot_cos,P,T-P,190,38,42603,0.013432884352824914,0.0001123619814953062,0.016712964694256267,0.6029624632001848,979.0,6.5261118131683356,0.6161992855998736,8.493743587234565,-0.1294014479268597,0.279,0.9999999999888037,-3.619971823521006,0.9437726543808005,190,2026-10-08 01:16:58.687244,25.0,0.9803734681935143,0.1818372829606759,0.20923104676981588
0276,cdot_cos,Q,P-Q,191,38,42733,-0.006519963627167381,-0.0073127764392108465,-0.019952847979992295,0.3778177312549371,979.0,6.569201555011614,0.6166430178732297,8.522199210803663,-0.09622127208034827,0.13,0.999999999988552,74.77521433263111,0.9487399124618411,191,2026-10-08 01:16:58.817244,25.0,0.7083393286363693,0.40924241999863015,0.33145955264060395
0276,cdot_cos,R,Q-R,192,38,42768,0.02187112988642098,0.03875608486980883,0.028391093513588362,0.6703519577443023,979.0,6.632514842367979,0.6174298418191735,8.555382217404468,-0.14241901605492047,0.035,0.9999999999883955,-58.714206923583255,0.9537070254516458,192,2026-10-08 01:16:58.852243,25.0,0.7229761521913566,1.4292739515287676,1.8089510673247233
0276,cdot_cos,S,R-S,193,38,42790,-0.015434957416607867,-0.04022486588595781,-0.03730608730302885,0.2823869540770207,979.0,6.669250731618628,0.6177611088924159,8.582234984665615,-0.08323374569031267,0.022,0.999999999988148,178.66330566848484,0.9586741192119493,193,2026-10-08 01:16:58.874244,25.0,0.4911169395768684,2.1259799217112225,1.6698131477567462
0276,cdot_cos,T,S-T,194,38,43282,-0.0038848902282196136,-0.01078439142007049,0.011550067188388254,0.5716904960270188,979.0,6.726057958923273,0.6184314215909438,8.613776318534898,-0.12952825168249327,0.492,0.9999999999879944,-69.06404442859161,0.9636419543303287,194,2026-10-08 01:16:59.366244,25.0,0.6994866566516963,0.12095088070635741,0.11546184411513288
0276,cdot_cos,P,T-P,195,39,43582,0.020384792511663086,0.00020237121991065546,0.024269682739882698,0.6471972661480682,638.0,6.7882663982336835,0.6191897226654558,8.646538353716114,-0.14299473003429694,0.3,0.9999999999878022,-17.758748872233248,0.9686094895159784,195,2026-10-08 01:16:59.666244,25.0,0.9101237971544568,0.17380727431098494,0.20736146436803438
0276,cdot_cos,Q,P-Q,196,39,43711,-0.003492542290026048,-0.01182781182470764,-0.023877334801689132,0.35504560335453345,638.0,6.830342323509864,0.6196054721147527,8.674501686633233,-0.09742266426119345,0.129,0.9999999999875293,109.61425409023022,0.9735767524886653,196,2026-10-08 01:16:59.795244,25.0,0.6263932956566011,0.3574754016035281,0.3261699633812453
0276,cdot_cos,R,Q-R,197,39,43755,-0.008338141278206937,0.08477512045691732,-0.004845598988180889,0.4697519878095461,638.0,6.880495051847394,0.620155270277652,8.704319318924554,-0.11684472432844843,0.044,0.9999999999873069,-35.325800226092234,0.9785438790482357,197,2026-10-08 01:16:59.839243,25.0,0.8468589623864957,1.3229097885565568,1.1398347349438545
0276,cdot_cos,S,R-S,198,39,43771,0.025272455108855833,-0.07262236556058575,0.03361059638706277,0.6985210061087491,638.0,6.946758384902841,0.6209722496578657,8.737879412024185,-0.15555943279609513,0.016,0.9999999999871704,-47.387620061504,0.9835109609874132,198,2026-10-08 01:16:59.855244,25.0,0.7796781555769396,3.349840147667482,4.141458315965463
0276,cdot_cos,T,S-T,199,39,44041,-0.002312273786311137,-0.012572630788836437,-0.02758472889516697,0.33411800696146615,638.0,6.987689936572753,0.6213627867914284,8.765426079921255,-0.09679671211361164,0.27,0.9999999999869376,150.46641057256375,0.9884784647204153,199,2026-10-08 01:17:00.125243,25.0,0.5449433038676238,0.18323706189165914,0.15159833951819268
0276,cdot_cos,P,T-P,200,40,44220,0.009983325875419226,7.806508235342748e-05,0.012295599661730362,0.5762480601679267,1378.0,7.045706398324337,0.622035970212476,8.796942948187995,-0.13807783416381736,0.179,0.9999999999867495,-61.32225001317484,0.9934458189159454,200,2026-10-08 01:17:00.304243,25.0,0.7415816996767912,0.29202964405071125,0.3241143114613627
0276,cdot_cos,Q,P-Q,201,40,44350,-0.004425757144675977,-0.0030156478567115105,-0.014409083020095203,0.4109045984771054,1378.0,7.092236549142908,0.622515709400347,8.825709671049422,-0.11151002263285174,0.13,0.9999999999865176,55.379698391689494,0.9984130925964783,201,2026-10-08 01:17:00.434243,25.0,0.7880017880056777,0.4278482908128515,0.35792423706592846
0276,cdot_cos,R,Q-R,202,40,44405,0.023363435218362674,0.026092159110222602,0.027789192363038652,0.6670182690763938,1378.0,7.1569469539356785,0.6232939552504112,8.85869806656592,-0.1561721263431362,0.055,0.9999999999863712,-57.38816815611309,1.0033802405027463,202,2026-10-08 01:17:00.489243,25.0,0.7512776460701985,0.9215317098650321,1.1765528144140125
0276,cdot_cos,S,R-S,203,40,44427,-0.016833792757679565,-0.02311447624712297,-0.040197227976042235,0.26797309218879095,1378.0,7.193605037228061,0.6236064350126159,8.8850506201033,-0.08907077666957618,0.022,0.9999999999861144,214.73822560578733,1.0083473328906751,203,2026-10-08 01:17:00.511244,25.0,0.47078740629601423,2.1676389643686376,1.6662765132901296
0276,cdot_cos,T,S-T,204,40,44719,-0.004214811567036214,0.004883061892999301,0.012618981190643351,0.5782209661998157,1378.0,7.2523230683678985,0.6242803400417565,8.916533293406761,-0.14351736683900362,0.292,0.9999999999859683,-80.79267525108757,1.0133148940124777,204,2026-10-08 01:17:00.803244,25.0,0.6842904384377962,0.2037112369704637,0.2010891477391685
0276,cdot_cos,P,T-P,205,41,45598,0.011586706504934636,6.010246746574877e-05,0.01580151807197085,0.5974948930691061,1058.0,7.312572399618812,0.6249762031857399,8.948324689915436,-0.14836307684285888,0.879,0.999999999985797,-6.963596284344744,1.0182834870471738,205,2026-10-08 01:17:01.682244,25.0,0.96786645712355,0.06040163864242175,0.06854303896577199
0276,cdot_cos,Q,P-Q,206,41,45727,-0.005577077172243409,-0.005460315233810177,-0.017163783677178045,0.39434255536744856,1058.0,7.358509149101276,0.6254351856026843,8.976713164606833,-0.11388738933150601,0.129,0.9999999999854519,75.11330769676883,1.0232507620012607,206,2026-10-08 01:17:01.811244,25.0,0.7388078986021138,0.4416548470050313,0.35609883319739416
0276,cdot_cos,R,Q-R,207,41,45757,0.028702533516082304,0.03797696463238257,0.03427961068832571,0.7020314515980114,1058.0,7.42651935014611,0.6262517341906655,9.010223194384288,-0.16977282669346674,0.03,0.9999999999852734,-68.44104341681623,1.0282178623683986,207,2026-10-08 01:17:01.841243,25.0,0.7195151104674211,1.6867700872311562,2.267006701494475
0276,cdot_cos,S,R-S,208,41,45772,-0.023505938369073224,-0.04191426512718228,-0.052208471885155525,0.21328918675409633,1058.0,7.459715354335145,0.6264996734928349,9.035536559239963,-0.08341162923677782,0.015,0.9999999999849544,348.3158849809651,1.0331849368263655,208,2026-10-08 01:17:01.856243,25.0,0.35509795619592255,3.1565634813050636,2.213066945935675
0276,cdot_cos,T,S-T,209,41,46317,-0.006110906473735903,-0.013032515783684188,0.01739503189533732,0.6070373608004309,1058.0,7.521216254585262,0.6272049636801178,9.067426693781186,-0.1553974028584837,0.545,0.9999999999847798,-102.06546882358343,1.0381529732812058,209,2026-10-08 01:17:02.401243,25.0,0.6292436990887602,0.11343730668217947,0.11284568853232436
0276,cdot_cos,P,T-P,210,42,46656,0.012389385855230039,0.00010911439516758587,0.018500292328965943,0.6136088105352839,1098.0,7.583362018618721,0.6279173392992943,9.099417873081531,-0.15819977431836993,0.339,0.9999999999845313,-3.933839654880178,1.0431206391486798,210,2026-10-08 01:17:02.740243,25.0,0.9824418422992623,0.1597194456895462,0.18332083785681072
0276,cdot_cos,Q,P-Q,211,42,46785,-0.005579720653088889,-0.005184282070203876,-0.017969106508318927,0.3895444118455833,1098.0,7.6295060387627744,0.6283692970168494,9.127623283146267,-0.11824886255540727,0.129,0.9999999999842085,88.39524188031925,1.0480879201123543,211,2026-10-08 01:17:02.869244,25.0,0.7132990567438936,0.44443062706451786,0.3577055825120426
0276,cdot_cos,R,Q-R,212,42,46835,0.02787660449620857,0.0424418133985889,0.03345632514929746,0.697708187556072,1098.0,7.6980251204013666,0.6291782314048371,9.161005607047922,-0.17675284282444706,0.05,0.999999999984015,-72.3222811859628,1.0530550556984508,212,2026-10-08 01:17:02.919244,25.0,0.7182100885551047,1.0330442224486358,1.370381632771842
0276,cdot_cos,S,R-S,213,42,46848,-0.020525630091160665,-0.042660089171463605,-0.04840223458736924,0.2296911664904479,1098.0,7.732810461007638,0.629444380925424,9.186470640877054,-0.09031096847205025,0.013,0.9999999999836763,324.78688731724674,1.058022122868872,213,2026-10-08 01:17:02.932243,25.0,0.3839825796496205,3.696464920692379,2.675795431251652
0276,cdot_cos,T,S-T,214,42,47115,-0.0052349059895660235,0.0028996200481614547,0.015290724101594641,0.5944200250061391,1098.0,7.794133208339368,0.6301327866328759,9.218080243884044,-0.16007712734434587,0.267,0.9999999999834821,-101.3445387176319,1.0629896727340715,214,2026-10-08 01:17:03.199244,25.0,0.6467286926937651,0.23339351570949796,0.22967321098026358
0276,cdot_cos,P,T-P,215,43,47754,0.01425634495544834,8.85729175089535e-05,0.019491250945014364,0.6194657610785791,1058.0,7.85744259839651,0.6308496354094698,9.250104387690158,-0.16645587079144886,0.639,0.9999999999832672,-8.898311129735195,1.0679579395456327,215,2026-10-08 01:17:03.838243,25.0,0.9624040288820461,0.08533331383379644,0.09907572778895389
0276,cdot_cos,Q,P-Q,216,43,47864,-0.00591630482380335,-0.004578450939440309,-0.02017264977925169,0.3765268727526983,1058.0,7.90318918341896,0.6312850723546753,9.27799262948331,-0.12105769169612786,0.11,0.9999999999828875,104.2589049808165,1.0729251894892182,216,2026-10-08 01:17:03.948243,25.0,0.6872805089612001,0.5204022124442346,0.41587804565863934
0276,cdot_cos,R,Q-R,217,43,47919,0.026037829687601446,0.03912083250463191,0.031954134511404796,0.6897291508951096,1058.0,7.9719310851342415,0.6320821591946506,9.311186626445572,-0.18306555170618707,0.055,0.9999999999826767,-77.79310471614855,1.0778923341030024,217,2026-10-08 01:17:04.003244,25.0,0.7126823756747839,0.9667687124800121,1.2498527584596595
0276,cdot_cos,S,R-S,218,43,47941,-0.015272185302935542,-0.03132872084479183,-0.04131001499053699,0.2625512342085163,1058.0,8.009533741791762,0.6323853877631718,9.337093424143427,-0.10077519463938844,0.022,0.999999999982324,271.38062046108075,1.082859415130737,218,2026-10-08 01:17:04.025243,25.0,0.4419433659772032,2.1705300544121453,1.7092116662509116
0276,cdot_cos,T,S-T,219,43,48233,-0.009169849236607814,0.002724415103754033,0.006102336066327728,0.5380658002083704,1058.0,8.067434407528376,0.6330064893265871,9.367675619543439,-0.1559904439309176,0.292,0.9999999999820897,-88.89890566030829,1.087827031948459,219,2026-10-08 01:17:04.317244,25.0,0.7018991203182475,0.21023576378773856,0.19828995115278886
0276,cdot_cos,P,T-P,220,44,48812,0.012260917847188762,7.846525945181355e-05,0.021430767083796577,0.6308276728006529,1078.0,8.132311427843801,0.6337341057657039,9.399831659770506,-0.17597311942627605,0.579,0.9999999999818557,-27.463199594025618,1.092795226977484,220,2026-10-08 01:17:04.896243,25.0,0.8926548559533823,0.09719526723193168,0.1120501214428756
0276,cdot_cos,Q,P-Q,221,44,48922,-0.004704735165688815,-0.0035583265453099804,-0.016965653012877578,0.39552619328558974,1078.0,8.179986526982953,0.6341900073630709,9.42794979315309,-0.1301443967446337,0.11,0.9999999999814663,100.52327727369929,1.0977624814234217,221,2026-10-08 01:17:05.006243,25.0,0.7031834266728368,0.5300516083830137,0.4334099921741083
0276,cdot_cos,R,Q-R,222,44,48974,0.02575372410513201,0.03562919605739306,0.030458459270820824,0.6816709531654461,1078.0,8.248922781688064,0.6349751681219056,9.460954699007573,-0.1893560440140178,0.052,0.9999999999812385,-75.41340623958524,1.102729619812217,222,2026-10-08 01:17:05.058244,25.0,0.7314692729141877,1.020240383674508,1.3256972058675214
0276,cdot_cos,S,R-S,223,44,48994,-0.017997821534645197,-0.03317800512172054,-0.043751545639777206,0.25090552416541967,1078.0,8.286091526885102,0.6352639851556617,9.486552155826516,-0.10272100439165725,0.02,0.9999999999808585,299.9651318886671,1.1076966938536157,223,2026-10-08 01:17:05.078244,25.0,0.43024459479803934,2.5238404545759874,1.8584372598518861
0276,cdot_cos,T,S-T,224,44,49611,-0.00037836276932467843,-0.007723606641036928,0.01761945876532052,0.6083749404962643,1078.0,8.349876399871103,0.6359638802054772,9.518273594308654,-0.1772092246623998,0.617,0.9999999999806372,-106.42769982496579,1.1126650027954792,224,2026-10-08 01:17:05.695244,25.0,0.6568231105829709,0.10163732339180388,0.10337904859967872
0276,cdot_cos,P,T-P,225,45,49890,0.012083648000742648,0.00010981486690612435,0.012462010770067327,0.5772636190977466,1098.0,8.411511983950588,0.6366274522367311,9.549451476073871,-0.17239417045889843,0.279,0.9999999999803044,7.256264545090627,1.1176326141530575,225,2026-10-08 01:17:05.974244,25.0,0.9724559567664597,0.1965236797390502,0.22091607196947746
0276,cdot_cos,Q,P-Q,226,45,50020,-0.005297079872217094,-0.004939053585782177,-0.01738072787295974,0.3930479455753634,1098.0,8.459536613165493,0.6370789686836752,9.577437458033438,-0.13513106384137247,0.13,0.9999999999799185,82.528791298141,1.1225999151071793,226,2026-10-08 01:17:06.104243,25.0,0.7589986374282925,0.45505265753895,0.3694202247300446
0276,cdot_cos,R,Q-R,227,45,50063,0.02659512568901313,0.03843229631880283,0.03189220556123022,0.6893977293136934,1098.0,8.529825674910715,0.6378703349832511,9.61052644406041,-0.19897790002282512,0.043,0.9999999999796751,-80.67924577489634,1.1275670336840895,227,2026-10-08 01:17:06.147244,25.0,0.7255146546472874,1.2508541334146415,1.6346293429121213
0276,cdot_cos,S,R-S,228,45,50079,-0.018016369755582236,-0.034199652610529374,-0.04461149544459536,0.24688647097373936,1098.0,8.567110068639153,0.6381535569007956,9.635948251300881,-0.10617901969107693,0.016,0.9999999999792687,327.6543042159598,1.1325340958028318,228,2026-10-08 01:17:06.163244,25.0,0.41728531089014725,3.0981179683225446,2.3302746080273717
0276,cdot_cos,T,S-T,229,45,50349,-0.00621194562991925,0.003429161816086023,0.011804424125662986,0.5732468302876936,1098.0,8.628965449897036,0.6388108008508756,9.667002346247589,-0.1770342919038837,0.27,0.999999999979017,-107.80665566290487,1.1375017058326384,229,2026-10-08 01:17:06.433243,25.0,0.6701627195500011,0.23420150705220652,0.22909400465882768
0276,cdot_cos,P,T-P,230,46,50988,0.011320687382027017,9.334415054090521e-05,0.01753263301194627,0.6078576525412939,1078.0,8.693578882447344,0.639507159731013,9.69864786404372,-0.18613158263525093,0.639,0.999999999978745,-13.064083751717243,1.1424701219109645,230,2026-10-08 01:17:07.072243,25.0,0.9522995988816441,0.08822506861609491,0.10111648286433184
0276,cdot_cos,Q,P-Q,231,46,51098,-0.006999664382674603,-0.005299410688477392,-0.01832035176470162,0.38745829941071147,1078.0,8.741717087588405,0.6399507242866704,9.726452624467388,-0.13949907066095943,0.11,0.9999999999782948,105.13128558068954,1.1474373850573478,231,2026-10-08 01:17:07.182244,25.0,0.7158494017148731,0.5363553731824925,0.43762004673692056
0276,cdot_cos,R,Q-R,232,46,51153,0.021969713925251367,0.031419283194579685,0.02896937830792597,0.6735387910987586,1078.0,8.811577064547492,0.6407212265597227,9.759218913583997,-0.203625031648849,0.055,0.99999999997803,-83.22618015629924,1.152404528759046,232,2026-10-08 01:17:07.237243,25.0,0.7298459477970513,0.995039836129004,1.2701813992561286
0276,cdot_cos,S,R-S,233,46,51175,-0.017406891957585182,-0.03367350087189588,-0.03937660588283655,0.2720166009549593,1078.0,8.851171469562596,0.6410321976260656,9.784975853205164,-0.11608368597645219,0.022,0.999999999977605,281.5096166403197,1.157371600398495,233,2026-10-08 01:17:07.259244,25.0,0.47042312390110913,2.3585345670681077,1.7997456825046985
0276,cdot_cos,T,S-T,234,46,51747,-0.0020235887028704686,-0.006996638253877761,0.015383303254714714,0.5949778886470346,1078.0,8.91535258549849,0.6417119667109876,9.816349494671007,-0.18911484956380428,0.572,0.9999999999773435,-107.4352529517063,1.1623399059763528,234,2026-10-08 01:17:07.831244,25.0,0.679652523023447,0.11203354239773602,0.11220474813967374
0276,cdot_cos,P,T-P,235,47,52066,0.012582978607547418,0.00011915785284161521,0.014606567310417887,0.5902899597455229,1098.0,8.979337842065606,0.6423858173526814,9.847634005444753,-0.1897396927768119,0.319,0.9999999999769827,-0.9272725650850832,1.1673076467043828,235,2026-10-08 01:17:08.150244,25.0,0.996712256260516,0.17659738026289573,0.20058074158970726
0276,cdot_cos,Q,P-Q,236,47,52196,-0.005672633290709438,-0.005298655053171979,-0.018255611898256856,0.38784249418563316,1098.0,9.028021714106217,0.6428282563079791,9.875361992724653,-0.14519469188676737,0.13,0.9999999999765402,100.68055797679479,1.1722749600379991,236,2026-10-08 01:17:08.280244,25.0,0.7358014480879991,0.46211062741238634,0.37449132338931435
0276,cdot_cos,R,Q-R,237,47,52240,0.02534312029425574,0.03722774751688469,0.03101575358496518,0.6846865328921663,1098.0,9.099486605192826,0.6436087313995469,9.908277748007475,-0.21434983357100115,0.044,0.9999999999762605,-88.60646858738369,1.1772420780040387,237,2026-10-08 01:17:08.324243,25.0,0.724243616103825,1.235094214385643,1.624202070150218
0276,cdot_cos,S,R-S,238,47,52256,-0.02175637411581953,-0.044267383403189135,-0.04709949441007527,0.23550427626993045,1098.0,9.136710004972153,0.6438770070854074,9.933297987817932,-0.11227859403137344,0.016,0.9999999999757941,380.4714512693336,1.1822091324732495,238,2026-10-08 01:17:08.340243,25.0,0.40289107356698695,3.2093348626549556,2.3264624862079364
0276,cdot_cos,T,S-T,239,47,52526,-0.00504407004967492,0.0027819871821497793,0.016712304066144608,0.6029585093551687,1098.0,9.202185320797785,0.6445634579699975,9.964756480228283,-0.19843665014722034,0.27,0.9999999999755201,-125.51233897425567,1.1871767799571624,239,2026-10-08 01:17:08.610244,25.0,0.6477929278258013,0.24275850586648132,0.24250116972456146
0276,cdot_cos,P,T-P,240,48,53164,0.011627691867514972,0.0001199507911144201,0.016671761917189894,0.6027158397517208,1079.0,9.267799598140053,0.6452490387808811,9.996203240591356,-0.20010556646995425,0.638,0.9999999999752093,-2.4343101443910315,1.1921452971634574,240,2026-10-08 01:17:09.248243,25.0,0.9916945034117487,0.09031994116026586,0.10284369489383749
0276,cdot_cos,Q,P-Q,241,48,53294,-0.005691857931542526,-0.0054588956759558495,-0.017319549799057497,0.39341287315524265,1079.0,9.317433565718284,0.6456962190769273,10.02395132447166,-0.15222797862547005,0.13,0.999999999974708,107.06551310020158,1.197112616721061,241,2026-10-08 01:17:09.378243,25.0,0.7301448015854428,0.4697645951759742,0.38179975060177623
0276,cdot_cos,R,Q-R,242,48,53341,0.026013444192217364,0.04016678954351795,0.03170530212375989,0.6883963110850578,1079.0,9.389938392885806,0.6464780851524864,10.056889598154136,-0.2236109467701058,0.047,0.999999999974411,-91.29820358760652,1.202079740359388,242,2026-10-08 01:17:09.425244,25.0,0.7267095388887543,1.162437727933426,1.5426558971813271
0276,cdot_cos,S,R-S,243,48,53355,-0.023569809766672927,-0.051153886791112,-0.049583253958890294,0.22450886640870327,1079.0,9.426702712144026,0.6467329084901792,10.08161913361592,-0.11400934634158517,0.014,0.9999999999739092,430.10817384653916,1.2070467859759217,243,2026-10-08 01:17:09.439244,25.0,0.382380638039882,3.7032180821196445,2.6260228041585467
0276,cdot_cos,T,S-T,244,48,53624,-0.005198996169922949,0.0025610869036447794,0.01837081359674998,0.6128410662191391,1079.0,9.493628499185156,0.6474280740709607,10.113200542277502,-0.20849935935278396,0.269,0.9999999999736209,-135.9244698291442,1.2120144500916,244,2026-10-08 01:17:09.708243,25.0,0.6355967844938397,0.2474327713045276,0.24879474736479698
0276,cdot_cos,P,T-P,245,49,54243,0.011247410960016543,6.210983213533455e-05,0.016446407129939493,0.6013660351749206,1097.0,9.559821543105862,0.6481096168981894,10.144571763429365,-0.20748421855088506,0.619,0.9999999999732893,1.4894747055394244,1.21698297358754,245,2026-10-08 01:17:10.327244,25.0,0.9951193324171602,0.09414105527621407,0.10693545059887798
0276,cdot_cos,Q,P-Q,246,49,54373,-0.005633176889049832,-0.005211608984315176,-0.016880587849066375,0.39603475167691565,1097.0,9.61017512561711,0.6485581237058105,10.172290669267273,-0.15870776385124774,0.13,0.9999999999727648,108.75298628877051,1.2219502996696017,246,2026-10-08 01:17:10.457243,25.0,0.73540418024898,0.4744502770504046,0.38733525008651964
0276,cdot_cos,R,Q-R,247,49,54422,0.02547565357963542,0.03946707666509003,0.031108830468685254,0.6851886781370626,1097.0,9.683178615138967,0.6493334761842415,10.205130957925945,-0.2313430980088342,0.049,0.9999999999724499,-93.68040494893829,1.2269174272182988,247,2026-10-08 01:17:10.506243,25.0,0.7305392335439492,1.1421705575982568,1.4898671330991355
0276,cdot_cos,S,R-S,248,49,54436,-0.01903845709887197,-0.04022973768736945,-0.04451411067850739,0.24733942723851393,1097.0,9.722107840261739,0.6496131696117873,10.230172826885118,-0.12403434985862406,0.014,0.9999999999719311,383.6656052014624,1.2318844687588377,248,2026-10-08 01:17:10.520243,25.0,0.4209869389028228,3.607231320605348,2.7806589373408235
0276,cdot_cos,T,S-T,249,49,54721,-0.012280783335565312,0.0051167557500640445,0.00675767376330666,0.5421352921617628,1097.0,9.784181092115917,0.6502258607670363,10.260445323403005,-0.19864346188859888,0.285,0.9999999999715881,-121.77279105597006,1.2368521923258786,249,2026-10-08 01:17:10.805243,25.0,0.6868817739650424,0.23242255024448077,0.217800883698871
0276,cdot_cos,P,T-P,250,50,55340,0.011870596558689201,0.00011962902680899903,0.02415137989425451,0.6465216615312339,1118.0,9.854588693901093,0.6509558756437575,10.292571434274727,-0.22662551267780004,0.619,0.9999999999712582,-38.330795277598035,1.241820766914686,250,2026-10-08 01:17:11.424243,25.0,0.8838458211896475,0.09798249408021424,0.11374410627653603
0276,cdot_cos,Q,P-Q,251,50,55470,-0.0049480358027069035,-0.004494017966389679,-0.016818632361396104,0.3964052914991277,1118.0,9.905483419787222,0.65140312389733,10.320224100431888,-0.16473196552310593,0.13,0.9999999999707057,138.38745408237196,1.2467880994015206,251,2026-10-08 01:17:11.554244,25.0,0.6867927196991305,0.48622700084021736,0.3914978914317648
0276,cdot_cos,R,Q-R,252,50,55519,0.030440363821573144,0.04546271046504773,0.035388399624280045,0.707797295214206,1118.0,9.98100771411955,0.6522010399528663,10.353428659991451,-0.24575228686328626,0.049,0.9999999999703837,-101.53990608163583,1.2517552259045555,252,2026-10-08 01:17:11.603244,25.0,0.7191517557314077,1.1483511083617537,1.5413121292311653
0276,cdot_cos,S,R-S,253,50,55534,-0.020634250034873222,-0.041632751356925235,-0.05107461385644636,0.21808428337788885,1118.0,10.018021828406674,0.6524467195149896,10.37785856914492,-0.12108386499361774,0.015,0.999999999969819,507.44319467284515,1.25672226574196,253,2026-10-08 01:17:11.618243,25.0,0.35714839241393637,3.4490305373041137,2.4676076191416505
0276,cdot_cos,T,S-T,254,50,55819,-0.006133486528638809,0.0028858461882767888,0.014500763506234414,0.5896500970744388,1118.0,10.084478630238673,0.6531105744292565,10.408927833567343,-0.21832845106908455,0.285,0.9999999999694807,-146.4846971613582,1.2616900104643018,254,2026-10-08 01:17:11.903244,25.0,0.6405647879216094,0.23813080257234714,0.23318176081403036
0276,cdot_cos,P,T-P,255,51,56458,0.014014079998546909,8.791235472319546e-05,0.020147566527185717,0.6233259057666346,1078.0,10.153756385872912,0.6538116959719331,10.440594675398595,-0.22891513219126872,0.639,0.9999999999691184,-15.099637477644293,1.2666586904702892,255,2026-10-08 01:17:12.542243,25.0,0.9548059165879698,0.09414474561024774,0.10841589301132896
0276,cdot_cos,Q,P-Q,256,51,56568,-0.003575767215082598,-0.002697957703097459,-0.01758984721362951,0.391801451059003,1078.0,10.20479561512857,0.6542520556370762,10.468094662870643,-0.16955040906123053,0.11,0.9999999999685286,134.80962910339613,1.2716259763466058,256,2026-10-08 01:17:12.652243,25.0,0.7045963266209206,0.5717763225547078,0.4639929932332491
0276,cdot_cos,R,Q-R,257,51,56622,0.028181383583452166,0.03930518292162776,0.031757150798534764,0.6886742905344686,1078.0,10.279547176834948,0.6550254403552455,10.500918709334137,-0.2495918447080911,0.054,0.9999999999681805,-103.49497962196048,1.27659311510128,257,2026-10-08 01:17:12.706244,25.0,0.7256486701227153,1.0588011178702343,1.3842881797477464
0276,cdot_cos,S,R-S,258,51,56641,-0.01664166013062542,-0.030910242732881007,-0.04482304371407758,0.24590443987882354,1078.0,10.319146135858555,0.6553013938253176,10.52576112084109,-0.13290687813603214,0.019,0.9999999999675987,422.84290370240194,1.2815601613625895,258,2026-10-08 01:17:12.725244,25.0,0.41563604987788705,2.6851641920218285,2.0841557380845788
0276,cdot_cos,T,S-T,259,51,56937,-0.011652021750962482,0.0041334698609355415,0.004989638379662938,0.531144865037421,1078.0,10.381583416131777,0.6558970861209179,10.555726708224283,-0.21042466693593656,0.296,0.9999999999672046,-130.1305881785606,1.2865279567778856,259,2026-10-08 01:17:13.021244,25.0,0.691849130925198,0.22616075934185595,0.2109367576798057
0276,cdot_cos,P,T-P,260,52,57536,0.01171706338846786,9.625398440044668e-05,0.02336908513943034,0.6420394874346788,1098.0,10.453033305388933,0.6566164954953206,10.58768607998908,-0.2421146851718332,0.599,0.9999999999668289,-44.050049058932814,1.291496581752964,260,2026-10-08 01:17:13.620243,25.0,0.8773156248984454,0.10213443901624274,0.11928195201528587
0276,cdot_cos,Q,P-Q,261,52,57646,-0.007189618693265106,-0.0053010984190550005,-0.018906682081732965,0.3839851827318982,1098.0,10.503940474073236,0.6570464102746458,10.614975391530319,-0.17341312431221353,0.11,0.9999999999662118,159.80274269113517,1.296463872401463,261,2026-10-08 01:17:13.730243,25.0,0.6728904187931607,0.5736197890707037,0.46279244258456875
0276,cdot_cos,R,Q-R,262,52,57701,0.024139707003558206,0.03503448632913965,0.03132932569682331,0.686376511478472,1098.0,10.579229658984488,0.6578142444855097,10.647719815419315,-0.25773679776254643,0.055,0.9999999999658453,-109.82015682195086,1.3014310134416913,262,2026-10-08 01:17:13.785243,25.0,0.7209613780922328,1.0615473907614486,1.3688942711136773
0276,cdot_cos,S,R-S,263,52,57725,-0.016757233544262826,-0.03206014795964674,-0.04089694054782103,0.2645555983477105,1098.0,10.620710687056995,0.6581099766578858,10.672816483000172,-0.14272903026050915,0.024,0.999999999965246,388.89163318954917,1.3063980698460647,263,2026-10-08 01:17:13.809243,25.0,0.44674068140882517,2.2024816792022652,1.7283761696877953
0276,cdot_cos,T,S-T,264,52,57995,-0.00937504785471335,0.005196595441687211,0.007382185689549476,0.5460081465801221,1098.0,10.684948779586197,0.6587199405172393,10.70299830082101,-0.22194336795598874,0.27,0.9999999999648398,-129.86726423340897,1.311365815198009,264,2026-10-08 01:17:14.079243,25.0,0.6998338081394108,0.25137217193610517,0.23791886121926537
0276,cdot_cos,P,T-P,265,53,58634,0.012635962658931093,6.766598832983171e-05,0.022011010513644444,0.6341994517355304,1098.0,10.756451659902492,0.6594277667797405,10.734773491936295,-0.24836813037380884,0.639,0.9999999999644473,-37.332271798512046,1.3163346048320046,265,2026-10-08 01:17:14.718244,25.0,0.8990707660881251,0.0961923783270221,0.11189809126180775
0276,cdot_cos,Q,P-Q,266,53,58744,-0.006196970989363689,-0.004563285873183603,-0.018832933648294782,0.38442138830935935,1098.0,10.807882639088131,0.6598564714587692,10.762003390093215,-0.1795624301297702,0.11,0.9999999999637945,160.49673262236453,1.3213019001657706,266,2026-10-08 01:17:14.828243,25.0,0.6816865080936009,0.5782865207885007,0.4675543562330828
0276,cdot_cos,R,Q-R,267,53,58796,0.024642347779316346,0.033190713519342246,0.030839318768680034,0.6837334913487633,1098.0,10.883674694475962,0.6606183205386242,10.794662643719002,-0.26588632774516335,0.052,0.9999999999634073,-113.30839650265604,1.3262690320703179,267,2026-10-08 01:17:14.880243,25.0,0.7227696772995484,1.1126910853234824,1.4575395266890592
0276,cdot_cos,S,R-S,268,53,58817,-0.021330736360515832,-0.03796036875138375,-0.04597308413983218,0.24061201180715036,1098.0,10.923602511961773,0.6608862246845872,10.819244214722367,-0.14076425130888132,0.021,0.9999999999627611,467.0404632467324,1.331236076351581,268,2026-10-08 01:17:14.901243,25.0,0.41111726282746086,2.5890607070906717,1.9013246421814805
0276,cdot_cos,T,S-T,269,53,59113,-0.005985327074006019,0.0024742778323149396,0.015345409286509813,0.594749576667027,1098.0,10.99241524417377,0.6615479932361066,10.850264160889267,-0.2435743456096626,0.296,0.9999999999623651,-155.35657302653965,1.3362039171516846,269,2026-10-08 01:17:15.197243,25.0,0.6556755676949859,0.23475543888445521,0.23247544666215247
0276,cdot_cos,P,T-P,270,54,59732,0.011818443174735217,9.460879234334363e-05,0.017803770248741236,0.6094722183322077,1098.0,11.06257773178137,0.6622254884363726,10.881546718447296,-0.24968201761689757,0.619,0.9999999999619306,-9.015077899941542,1.3411727043360129,270,2026-10-08 01:17:15.816243,25.0,0.9758349634266253,0.099011940474723,0.11334812214475017
0276,cdot_cos,Q,P-Q,271,54,59862,-0.005982602743079907,-0.005564781072662392,-0.017801045917815124,0.3905439926360512,1098.0,11.114992026481477,0.6626592713851766,10.908822801928046,-0.18744141635188638,0.13,0.9999999999612532,143.4832822189737,1.346140063080229,271,2026-10-08 01:17:15.946244,25.0,0.7174488505795334,0.49636200034344213,0.40318688230851324
0276,cdot_cos,R,Q-R,272,54,59909,0.025169018672635175,0.037320254964733734,0.03115162141571508,0.6854193881040411,1098.0,11.191631851870666,0.6634199148145214,10.941476387138303,-0.27536434047794356,0.047,0.9999999999608419,-115.5901973698511,1.3511071791422211,272,2026-10-08 01:17:15.993243,25.0,0.726659920187893,1.2362023890477107,1.630634582748686
0276,cdot_cos,S,R-S,273,54,59923,-0.022797891101427985,-0.04653786527636029,-0.04796690977406316,0.23162241337154876,1098.0,11.231195051051962,0.6636767664546359,10.965814759925049,-0.14283623865372272,0.014,0.9999999999601555,515.97140577012,1.356074198610749,273,2026-10-08 01:17:16.007244,25.0,0.39540984015892816,3.9211256536000962,2.8259427986640415
0276,cdot_cos,T,S-T,274,54,60211,-0.005877515680998564,0.0024291138072375217,0.016920375420429422,0.6042031446523507,1098.0,11.301423370171468,0.6643463262876425,10.99696322157868,-0.2545378516617065,0.288,0.9999999999597453,-166.82842593231382,1.3610420383625692,274,2026-10-08 01:17:16.295244,25.0,0.644783373978613,0.24519513468102305,0.2438483302760629
0276,cdot_cos,P,T-P,275,55,60830,0.012318117047555319,5.350759266167204e-05,0.018195632728553884,0.6118014385962183,1058.0,11.372427448628232,0.6650236336405169,11.028245373427193,-0.2587034821378031,0.619,0.9999999999592913,-6.150280900418606,1.3660108801964312,275,2026-10-08 01:17:16.914243,25.0,0.9840269936102849,0.09987102974652708,0.11470771963935888
0276,cdot_cos,Q,P-Q,276,55,60940,-0.00601908152620727,-0.004651718746503767,-0.01833719857376259,0.3873583459813692,1058.0,11.425063704997669,0.6654521157482294,11.05539984306308,-0.19270359820830785,0.11,0.9999999999585805,154.03183176502046,1.3709781850716234,276,2026-10-08 01:17:17.024243,25.0,0.7099971665286021,0.599265617389889,0.47851142154033965
0276,cdot_cos,R,Q-R,277,55,60990,0.02938957719650422,0.039694652015034644,0.03540865872271149,0.7079020340011012,1058.0,11.504265884454007,0.6662344669590335,11.088430739508304,-0.29129922345766013,0.05,0.9999999999581706,-126.0247621372087,1.375945309181797,277,2026-10-08 01:17:17.074244,25.0,0.7128611998192371,1.1878284013900675,1.5840435891267646
0276,cdot_cos,S,R-S,278,55,61006,-0.01953061141002801,-0.036058530344916864,-0.04892018860653223,0.22740810881970905,1058.0,11.543846545136676,0.6664855974680274,11.112615051322068,-0.1462738972472596,0.016,0.9999999999574504,577.4898748521254,1.3809123304092343,278,2026-10-08 01:17:17.090244,25.0,0.3710330425373074,3.319706952978785,2.4737912926667827
0276,cdot_cos,T,S-T,279,55,61289,-0.010967730308874827,0.00474059713001621,0.008562881101153184,0.5533145591045768,1058.0,11.610496506949328,0.6670962371844265,11.142783247452135,-0.24721906988405035,0.283,0.9999999999569839,-165.3105258728691,1.3858801771877978,279,2026-10-08 01:17:17.373244,25.0,0.6647642856869898,0.2478994403528145,0.23551223255354276
0276,cdot_cos,P,T-P,280,56,61888,0.011364661727078026,9.788558919843684e-05,0.02233239203595285,0.6360613707001277,1078.0,11.684157628376369,0.6677975038170281,11.174470081333551,-0.27458989268087747,0.599,0.9999999999565288,-39.03055061280275,1.3908490116890075,280,2026-10-08 01:17:17.972243,25.0,0.9051279936659009,0.1064307912883496,0.12297349153095226
0276,cdot_cos,Q,P-Q,281,56,62017,-0.005499092767918317,-0.00525581361054899,-0.016863754494996344,0.3961354158451212,1078.0,11.738000594912771,0.6682338733111701,11.201724420068967,-0.20167819623361252,0.129,0.9999999999558009,167.08706136898238,1.3958163813007238,281,2026-10-08 01:17:18.101243,25.0,0.6966132269722044,0.5143200486565104,0.4173873374914916
0276,cdot_cos,R,Q-R,282,56,62067,0.027468858955466767,0.04321271995756676,0.03296795172338508,0.6951268997273862,1078.0,11.816852200929748,0.6689989034224204,11.234485946657292,-0.29667973361086364,0.05,0.9999999999553626,-124.18012831153844,1.4007835045434243,282,2026-10-08 01:17:18.151244,25.0,0.7259923531345885,1.194330118492104,1.5770321203395454
0276,cdot_cos,S,R-S,283,56,62080,-0.019712003884107807,-0.04289850089524724,-0.047180862839574574,0.23513822994946343,1078.0,11.857433606761981,0.669257485757954,11.25873758678176,-0.15340169934165487,0.013,0.9999999999546152,554.0905722487668,1.4057505120470102,283,2026-10-08 01:17:18.164243,25.0,0.3929764777335351,4.22949830132226,3.121646602479472
0276,cdot_cos,T,S-T,284,56,62347,-0.006987321063021684,0.0034407145185081428,0.012724682821086124,0.5788652993927982,1078.0,11.926819156764127,0.6698936301564511,11.289331996150969,-0.263245236621656,0.267,0.9999999999541492,-172.67076082018949,1.4107183303229776,284,2026-10-08 01:17:18.431243,25.0,0.658845017056176,0.26619537298501,0.2598709737908076
0276,cdot_cos,P,T-P,285,57,62966,0.012165878051898093,0.00011277020897723561,0.019153199114919778,0.6174715530451702,1058.0,11.999581935935977,0.6705715161497557,11.32063521616076,-0.27741825911248713,0.619,0.9999999999536655,-20.907678622681928,1.4156872833504577,285,2026-10-08 01:17:19.050244,25.0,0.950194095894289,0.10245521983520259,0.11754891627116268
0276,cdot_cos,Q,P-Q,286,57,63096,-0.005189939510343576,-0.005105442826425075,-0.01735581756224167,0.39319652134306937,1058.0,12.053658718920108,0.6710028143616301,11.347775543570325,-0.20713017101742637,0.13,0.9999999999529032,162.96865175859708,1.4206546631712995,286,2026-10-08 01:17:19.180243,25.0,0.7122384036142925,0.5150574063421983,0.4159752537240854
0276,cdot_cos,R,Q-R,287,57,63145,0.02842560937061408,0.046955185948789294,0.033615548880957656,0.6985470790370605,1058.0,12.133496861584948,0.6717683416841844,11.380566161521761,-0.30714054772703525,0.049,0.999999999952449,-130.64246534781833,1.4256217822589963,287,2026-10-08 01:17:19.229243,25.0,0.7220812380725874,1.231586888318148,1.6293498503028665
0276,cdot_cos,S,R-S,288,57,63158,-0.01897615696139117,-0.04396382545240969,-0.04740176633200525,0.23414645553727556,1058.0,12.174354233975286,0.6720247353677645,11.404726765040484,-0.15790147157521991,0.013,0.9999999999516688,582.0700185275425,1.4305887851838055,288,2026-10-08 01:17:19.242244,25.0,0.3886249643808232,4.230461940246131,3.1428747992567727
0276,cdot_cos,T,S-T,289,57,63465,-0.007921606729155343,0.0013595372228363404,0.011054550232235826,0.5686545257139101,1058.0,12.243488872031348,0.6726469928445835,11.435087536114029,-0.26813197456309934,0.307,0.9999999999511742,-177.14612856302404,1.4355567558045395,289,2026-10-08 01:17:19.549243,25.0,0.6629170556389923,0.23280809932494406,0.22519426076892948
0276,cdot_cos,P,T-P,290,58,64024,0.012051542035088937,7.283883552979858e-05,0.019973148764244282,0.6223015647366534,1038.0,12.317298406960802,0.6733272590823811,11.466440184037925,-0.2876310739023704,0.559,0.9999999999506637,-28.663923410928792,1.4405255658965237,290,2026-10-08 01:17:20.108243,25.0,0.9344547758572179,0.11407795849380145,0.13203852402406852
0276,cdot_cos,Q,P-Q,291,58,64134,-0.0069312198126787235,-0.005509995166528246,-0.018982761847767662,0.38353538335430615,1038.0,12.371028029627418,0.6737461563735857,11.493341554131561,-0.21032924026595767,0.11,0.9999999999498745,184.53648486033893,1.4454928864161278,291,2026-10-08 01:17:20.218244,25.0,0.6924441072598855,0.6015243316613467,0.48845111515105216
0276,cdot_cos,R,Q-R,292,58,64186,0.022462198539710237,0.033753527832559485,0.029393418352388963,0.6758654825113339,1038.0,12.449633759926298,0.674483661574065,11.525675323214388,-0.3089965104192194,0.052,0.9999999999493927,-133.78518563548414,1.4504600149503164,292,2026-10-08 01:17:20.270243,25.0,0.7266465033283299,1.1790107569156045,1.511648659593856
0276,cdot_cos,S,R-S,293,58,64207,-0.01790847994483598,-0.03687450986563166,-0.040370678484546216,0.2671233319576978,1038.0,12.49364514834664,0.674774908927214,11.550379489143419,-0.17378175221806508,0.021,0.999999999948611,464.26089967580697,1.4554270406139416,293,2026-10-08 01:17:20.291244,25.0,0.45929055780822514,2.678744780036226,2.0957804009686836
0276,cdot_cos,T,S-T,294,58,64483,-0.009213254411682976,0.0034160586376831953,0.008695225533153002,0.5541321623008669,1038.0,12.56214104068782,0.6753786541622816,11.580425032600123,-0.27141815804328917,0.276,0.9999999999480862,-161.71789051767433,1.4603949315187312,294,2026-10-08 01:17:20.567244,25.0,0.6978669049061921,0.2607458387678839,0.24817352297528672
0276,cdot_cos,P,T-P,295,59,65062,0.012753529934057903,0.00010690444173719281,0.02196678434574088,0.6339429124187905,1058.0,12.637576851346513,0.676068641243347,11.611955020067386,-0.30030240012409426,0.579,0.9999999999475777,-41.862004193188895,1.4653638609664215,295,2026-10-08 01:17:21.146244,25.0,0.9082970070675437,0.11216754023351472,0.13028637419463343
0276,cdot_cos,Q,P-Q,296,59,65172,-0.005710420807935417,-0.004428816490334856,-0.01846395074199332,0.3866066201179228,1058.0,12.69203105227823,0.6764890508758067,11.638855670717621,-0.21774677550609733,0.11,0.9999999999467625,196.36948881257948,1.4703311870519358,296,2026-10-08 01:17:21.256243,25.0,0.6844525737909786,0.6118578424512819,0.4950381902883388
0276,cdot_cos,R,Q-R,297,59,65227,0.025568058583102703,0.03931247603830275,0.031278479391038116,0.686102812452357,1058.0,12.772185576685795,0.6772344415133212,11.671345356159655,-0.32182974465949765,0.055,0.9999999999462756,-139.63546617711324,1.475298325665624,297,2026-10-08 01:17:21.311244,25.0,0.723677060220525,1.1256399345186872,1.4573549892284503
0276,cdot_cos,S,R-S,298,59,65251,-0.016542803840926126,-0.03454722408474525,-0.042110862424028825,0.25869324037167857,1058.0,12.815851445075285,0.6775152555957099,11.69582512976848,-0.17609613415664288,0.024,0.999999999945458,518.968312640203,1.4802653582817857,298,2026-10-08 01:17:21.335244,25.0,0.43710587346880836,2.3308487771606843,1.819411182895451
0276,cdot_cos,T,S-T,299,59,65541,-0.00947231365564073,0.002803272282066291,0.007070490185285395,0.544075861238993,1058.0,12.884066317989507,0.6781054372228351,11.72563747632674,-0.2760345572183257,0.29,0.999999999944906,-169.3350291985296,1.4852333204682837,299,2026-10-08 01:17:21.625243,25.0,0.6962472730503998,0.24861329315943412,0.23522369970421386
0276,cdot_cos,P,T-P,300,60,66120,0.012307796630690858,0.00011746314036091654,0.02178011028633159,0.6328592507264907,1038.0,12.960047155107757,0.6787912113484861,11.757108465250738,-0.3088381503401762,0.579,0.9999999999443764,-47.83439895856689,1.4902023029601175,300,2026-10-08 01:17:22.204243,25.0,0.8992302764428657,0.11267714673979112,0.13122769795898062
0276,cdot_cos,Q,P-Q,301,60,66230,-0.006968239449703658,-0.0055647007680742575,-0.019276036080394517,0.3818033554840774,1038.0,13.014546453914186,0.6792045657279552,11.783861896922488,-0.22248996524668707,0.11,0.9999999999435276,208.8962628251144,1.495169634347542,301,2026-10-08 01:17:22.314244,25.0,0.6783450250077081,0.6187369703559527,0.4954481709675304
0276,cdot_cos,R,Q-R,302,60,66286,0.02603739054520561,0.04242455792773075,0.03300562999490927,0.6953264876848473,1038.0,13.096169288586067,0.6799566299622751,11.816489874715833,-0.3345506617660416,0.056,0.9999999999430321,-149.00415603553458,1.5001367762490978,302,2026-10-08 01:17:22.370244,25.0,0.7153675411089461,1.1191440448896797,1.4575506191407366
0276,cdot_cos,S,R-S,303,60,66309,-0.016825860141156338,-0.03740984418630584,-0.042863250686361945,0.25510248720830386,1038.0,13.13989058694183,0.6802323143656067,11.840836197069253,-0.17998067529358286,0.023,0.9999999999421788,560.6772984053963,1.5051038018626728,303,2026-10-08 01:17:22.393243,25.0,0.4236641024444578,2.456529275097406,1.9009260154679515
0276,cdot_cos,T,S-T,304,60,66599,-0.008832539421018968,0.0020873875173447153,0.00799332072013737,0.5497926661571472,1038.0,13.209169635240547,0.6808260366293508,11.870711036645282,-0.28613583311283747,0.29,0.9999999999416119,-178.7959864429277,1.5100717878828473,304,2026-10-08 01:17:22.683244,25.0,0.6900469229380404,0.25377916998394373,0.23889326999557858
0276,cdot_cos,P,T-P,305,61,67158,0.015549586906416406,0.00015371512546328097,0.024382126327435374,0.6478388646849691,879.0,13.287082505532517,0.6815248868981808,11.902425445262393,-0.3232155614532034,0.559,0.9999999999410758,-53.05818713133603,1.5150407518096476,305,2026-10-08 01:17:23.242244,25.0,0.8916145499965753,0.11780947440809779,0.13937901662248584
0276,cdot_cos,Q,P-Q,306,61,67288,-0.005995817181953569,-0.008155298923019605,-0.021545404088369975,0.3685051493608835,879.0,13.3408806276288,0.6819220445340023,11.928872173107765,-0.22413785984998164,0.13,0.9999999999401922,249.4669437697898,1.5200081615532277,306,2026-10-08 01:17:23.372243,25.0,0.6427244936564115,0.5090654157024042,0.41383170843295203
0276,cdot_cos,R,Q-R,307,61,67323,0.019181143112510676,0.04785402013693436,0.025176960294464243,0.652358846141985,879.0,13.419439513615142,0.6826244778053027,11.960655863145485,-0.3285361487596373,0.035,0.9999999999396364,-148.62378132571837,1.5249752263975962,307,2026-10-08 01:17:23.407244,25.0,0.7277715808523555,1.840323039033466,2.2445395996097517
0276,cdot_cos,S,R-S,308,61,67346,-0.009855580535215716,-0.044109386122882455,-0.029036723647726394,0.32609111256955126,879.0,13.469703240361143,0.6829752880283998,11.986276420710182,-0.21109197225715914,0.023,0.9999999999388233,334.7798005018818,1.529942248693822,308,2026-10-08 01:17:23.430244,25.0,0.5732892106007358,2.498992435544561,2.185379423739188
0276,cdot_cos,T,S-T,309,61,67618,-0.011349207606434387,-0.0017553819904410318,-0.0014936270712186707,0.4906659153428679,879.0,13.534393165650192,0.6835027567200072,12.014990644692283,-0.2725950884767595,0.272,0.9999999999381829,-116.60050577064891,1.5349101924067445,309,2026-10-08 01:17:23.702244,25.0,0.7980206704712337,0.26028045562329233,0.23783060768032532
0276,cdot_cos,P,T-P,310,62,68037,0.009775785509960349,6.384974334411683e-05,0.021124993116394736,0.6290456517596211,1238.0,13.611295808220214,0.6841782944503039,12.046312018567757,-0.32538282652976447,0.419,0.9999999999376183,-78.1418056839239,1.5398786871608114,310,2026-10-08 01:17:24.121243,25.0,0.8502433205631488,0.15997815575887386,0.18353852642010157
0276,cdot_cos,Q,P-Q,311,62,68166,-0.006113026263363798,-0.004780021356267989,-0.015888811773324147,0.401980376871546,1238.0,13.668454860176128,0.6846095779358103,12.073333961214743,-0.24286140588430416,0.129,0.9999999999367841,191.33916187064804,1.5448461025898785,311,2026-10-08 01:17:24.250243,25.0,0.7119211482862959,0.5420337183490184,0.4430934260148353
0276,cdot_cos,R,Q-R,312,62,68216,0.026291856262513104,0.03240239573753451,0.0324048825258769,0.6921355146085334,1238.0,13.751140507554261,0.685351422918357,12.105832821429612,-0.3526722543069897,0.05,0.9999999999362732,-148.02398210703336,1.5498132236319109,312,2026-10-08 01:17:24.300243,25.0,0.7324442993485751,1.2451421260668916,1.65371294756266
0276,cdot_cos,S,R-S,313,62,68231,-0.023082706608336452,-0.03634768000220154,-0.049374562870849556,0.22541852395287604,1238.0,13.792969072782817,0.6855928272506387,12.129488473126992,-0.17914417518181103,0.015,0.9999999999353562,718.8275267681731,1.5547802139861928,313,2026-10-08 01:17:24.315244,25.0,0.37959498934743446,3.9125561521813053,2.7885710152370775
0276,cdot_cos,T,S-T,314,62,68516,-0.005490945242836155,0.004662497979126044,0.017591761365500298,0.6082099521102876,1238.0,13.8685171921197,0.6862436683977523,12.160381747221827,-0.32457208446456326,0.285,0.9999999999348296,-223.44608961451917,1.5597482312923703,314,2026-10-08 01:17:24.600243,25.0,0.6388660731344132,0.26491570276968524,0.2650811204802912
0276,cdot_cos,P,T-P,315,63,69275,0.011648274575489632,8.232781206487085e-05,0.017139219818325786,0.6055107664655474,1058.0,13.943971023361538,0.6868908940489421,12.191218542600643,-0.3255709834987671,0.759,0.9999999999342427,-1.5433551379917947,1.5647180659376843,315,2026-10-08 01:17:25.359244,25.0,0.9969365567967325,0.08750215019141153,0.09941216237396255
0276,cdot_cos,Q,P-Q,316,63,69404,-0.004725963735933241,-0.004621401059598783,-0.016374238311422873,0.3990665604423114,1058.0,14.001345456110263,0.6873170556634187,12.21813460019919,-0.24855938598920937,0.129,0.9999999999332918,180.7098408056724,1.569685486571676,316,2026-10-08 01:17:25.488243,25.0,0.7335703455359149,0.5488613676719506,0.44476304456376053
0276,cdot_cos,R,Q-R,317,63,69453,0.02956902188983025,0.0482452745740554,0.03429498562576349,0.7021118498545582,1058.0,14.085577256220901,0.6880660699374064,12.250787977636515,-0.36628046980160456,0.049,0.999999999932742,-157.1680112124738,1.5746526007009825,317,2026-10-08 01:17:25.537244,25.0,0.7251360284945617,1.2964838640315812,1.7190163287885332
0276,cdot_cos,S,R-S,318,63,69466,-0.018124491332193116,-0.04135050272486769,-0.047693513222023365,0.23284107740174528,1058.0,14.128400874785358,0.6883142485733158,12.274521333983545,-0.18697927305014617,0.013,0.9999999999317686,722.4682982659984,1.579619576599205,318,2026-10-08 01:17:25.550244,25.0,0.383300417651782,4.39464437774758,3.294124504958217
0276,cdot_cos,T,S-T,319,63,69734,-0.00928129740128707,0.004023431296763629,0.008843193930906046,0.5550459410024684,1058.0,14.199838010042338,0.6889054200624883,12.304363994955832,-0.3128503567182595,0.268,0.9999999999311414,-212.91805503728722,1.584587549154273,319,2026-10-08 01:17:25.818244,25.0,0.6687557439578979,0.27904939223045927,0.26655647483947853
0276,cdot_cos,P,T-P,320,64,70333,0.011830814519800094,3.20553423574575e-05,0.021112111921087164,0.6289705038595768,1038.0,14.277971349020884,0.6895745836068083,12.335606421984451,-0.3435755816263793,0.599,0.999999999930534,-45.9158679054196,1.5895568265856033,320,2026-10-08 01:17:26.417243,25.0,0.914454242398872,0.1126367872667573,0.13043963101593642
0276,cdot_cos,Q,P-Q,321,64,70442,-0.006461686077216546,-0.0051155083205710345,-0.01829250059701664,0.38762356333455245,1038.0,14.334776881187913,0.6899865830208042,12.362251017319014,-0.2507913822009119,0.109,0.9999999999295649,225.20468785522505,1.594524175619637,321,2026-10-08 01:17:26.526243,25.0,0.6907580503459496,0.6431003076157346,0.5211516712571498
0276,cdot_cos,R,Q-R,322,64,70494,0.024658185413116998,0.036532128744761715,0.031119871490333545,0.6852482152250722,1038.0,14.418167216081114,0.6907141859076044,12.394548459907616,-0.369485144065427,0.052,0.999999999928986,-163.1298666041594,1.5994913008798042,322,2026-10-08 01:17:26.578244,25.0,0.7252484750838133,1.2388342827275045,1.6036602864077079
0276,cdot_cos,S,R-S,323,64,70514,-0.017490581906729787,-0.0352206436892504,-0.042148767319846785,0.2585115553911053,1038.0,14.463615646591574,0.690988430751546,12.418708429959588,-0.20217627351689324,0.02,0.9999999999280053,610.0711617539732,1.6044583001483934,323,2026-10-08 01:17:26.598243,25.0,0.43712346714884587,2.9165668654659083,2.272421525522983
0276,cdot_cos,T,S-T,324,64,70792,-0.01006252833524513,0.003750585940524754,0.007428053571484657,0.5462923785452676,1038.0,14.53482989069975,0.6915675285460576,12.448340963000668,-0.3177438005052112,0.278,0.999999999927347,-199.564785229041,1.609426334917993,324,2026-10-08 01:17:26.876243,25.0,0.6950907094748272,0.27069905249352083,0.25616634571286573
0276,cdot_cos,P,T-P,325,65,71371,0.012109795118077254,4.0280124828420855e-05,0.022172323453322384,0.6351345211732794,1058.0,14.614124319777972,0.6922400469759851,12.47966198767684,-0.35520171900012165,0.579,0.9999999999267226,-55.69798064709095,1.6143955885133117,325,2026-10-08 01:17:27.455244,25.0,0.8999146610001794,0.11782732901344202,0.13695065471195325
0276,cdot_cos,Q,P-Q,326,65,71480,-0.006366097547806025,-0.004915584474399458,-0.01847589266588328,0.38653582423974564,1058.0,14.671273937697316,0.6926489353026062,12.506233026035138,-0.25701202333094253,0.109,0.9999999999257267,240.13817288592793,1.619362943070468,326,2026-10-08 01:17:27.564243,25.0,0.6824655704878273,0.6491730302130235,0.5243084212783937
0276,cdot_cos,R,Q-R,327,65,71533,0.02544469622925175,0.036168811616826606,0.031810793777057776,0.6889617468206415,1058.0,14.75564404036441,0.6933769881202843,12.538565366466242,-0.3807569662942707,0.053,0.9999999999251347,-169.96698585410252,1.6243300719441631,327,2026-10-08 01:17:27.617243,25.0,0.7225293861389765,1.2093324253561257,1.5918887295678155
0276,cdot_cos,S,R-S,328,65,71551,-0.021436230274814082,-0.04051603117214289,-0.046880926504065834,0.23648948283483237,1058.0,14.799463174785066,0.6936266739205471,12.562244772851422,-0.19852482577701808,0.018,0.9999999999240987,729.8458315427175,1.629297059170085,328,2026-10-08 01:17:27.635243,25.0,0.39934433265508656,3.307195059136496,2.4343963567030613
0276,cdot_cos,T,S-T,329,65,71850,-0.007717283944965638,0.0023003960806395286,0.013718946329848443,0.5849126787493873,1058.0,14.874703062493325,0.6942437372774269,12.592572060580173,-0.34186489685284815,0.299,0.9999999999234612,-232.2939281318309,1.634265203814708,329,2026-10-08 01:17:27.934243,25.0,0.6575143763641533,0.2575864833612031,0.251638420428959
0276,cdot_cos,P,T-P,330,66,72429,0.012346023196316624,6.991628012443896e-05,0.020063307141282263,0.622831194382288,1018.0,14.953499891835065,0.6949000381388447,12.623619100864698,-0.35945182247214286,0.579,0.9999999999227981,-26.79704789858523,1.63923451274127,330,2026-10-08 01:17:28.513243,25.0,0.9522505717816521,0.11745182941120978,0.1360912423864261
0276,cdot_cos,Q,P-Q,331,66,72538,-0.006833785806720224,-0.005571023188243051,-0.019179809003036848,0.38237132756093284,1018.0,15.010712280951505,0.6953025655664747,12.650058411311198,-0.26198502888534864,0.109,0.9999999999217644,242.13702445235123,1.6442018725945777,331,2026-10-08 01:17:28.622243,25.0,0.6893322379530337,0.6467447300454566,0.5248843038205525
0276,cdot_cos,R,Q-R,332,66,72594,0.022456382166740795,0.03648691975898628,0.02929016797346102,0.6752997460556881,1018.0,15.094490242984975,0.6960127332865335,12.682092931861689,-0.38493201721397463,0.056,0.9999999999211371,-173.12387603094717,1.6491690133645647,332,2026-10-08 01:17:28.678244,25.0,0.7265854196664635,1.172721229178061,1.4960350363119521
0276,cdot_cos,S,R-S,333,66,72616,-0.01648639904270995,-0.03771731072397592,-0.038942781209450744,0.27416959114048856,1018.0,15.142057058619448,0.6963007929275788,12.70643463245972,-0.2193906880475121,0.022,0.9999999999201048,574.6772736565952,1.6541360130268354,333,2026-10-08 01:17:28.700243,25.0,0.47022198384949077,2.7602924115709113,2.16212798338516
0276,cdot_cos,T,S-T,334,66,72888,-0.006244112554300686,0.0019342361491650705,0.010242286488409264,0.5636668091242067,1018.0,15.215943109094095,0.6968925325311561,12.73631309759781,-0.3417734994329971,0.272,0.999999999919419,-206.81869296162836,1.6591040693207284,334,2026-10-08 01:17:28.972243,25.0,0.6990160127823472,0.28280234403274046,0.2716398914509065
0276,cdot_cos,P,T-P,335,67,73447,0.014881976033286922,0.00012243946178794156,0.021126088587587608,0.629052042365965,1058.0,15.29590153377326,0.6975521438592813,12.767439508119434,-0.37127867343973786,0.559,0.999999999918748,-44.73115113198979,1.6640733490947373,335,2026-10-08 01:17:29.531244,25.0,0.9236065789229616,0.12330926910829257,0.14303832679635822
0276,cdot_cos,Q,P-Q,336,67,73576,-0.0038222148782086555,-0.0037579062094312975,-0.018704190911495576,0.38518331821855156,1058.0,15.353802871957166,0.6979556377299628,12.793881044579695,-0.2698697038183251,0.129,0.9999999999176936,251.32716254185556,1.6690408001172297,336,2026-10-08 01:17:29.660243,25.0,0.6867601908078164,0.5572311964932536,0.4488475828209834
0276,cdot_cos,R,Q-R,337,67,73621,0.02841530366443726,0.04507929764303746,0.032237518542645914,0.6912432341525402,1058.0,15.439667182468519,0.6986789743854162,12.826184467949183,-0.40153024767150647,0.045,0.9999999999170622,-182.01834907795254,1.6740078936460177,337,2026-10-08 01:17:29.705244,25.0,0.720437256385163,1.4642912857819035,1.9080957891411683
