record_id,input,event,transition,event_index,k,peak,value_cos,value_sin,value_return,x_input,rr,knowledge,decision,decision_norm,entropy,delta_t,cosine_similarity,delta_h_over_delta_d,frobenius_norm,matrix_size,timestamp,scale,P,zdot,zdot_back
0312,cdot_cos,Q,P-Q,1,0,2063,-0.005314024404108049,-0.0033559464988285556,-0.0435652110589856,0.014652269187031124,1142.0,7.277989478928748e-05,0.5000181949736893,0.5000181949736893,,,1.0,,0.004967141530112327,1,2026-10-08 01:31:18.147244,96.6,,,
0312,cdot_cos,R,Q-R,2,0,2122,0.08251203994744179,0.09064177913558925,0.08782606435154984,0.9997932922391397,1142.0,0.007126073193277293,0.5012597210041427,0.7088882957154125,-9.156659177908965e-06,,1.0,,0.009934283060224654,2,2026-10-08 01:31:18.206244,96.6,,,
0312,cdot_cos,S,R-S,3,0,2179,-0.006384203745753323,-0.01747613451045512,-0.08889624369319511,0.00018640970943076675,1142.0,0.008729225343016324,0.5012599524835254,0.8682077055010272,-4.5838559329295976e-06,0.057,1.0,19.75468913211507,0.014901424597242906,3,2026-10-08 01:31:18.263244,96.6,0.36876754994893324,0.05089555686201762,0.02812547631121107
0312,cdot_cos,T,S-T,4,0,2415,-0.015817799125273042,0.012764731150559606,-0.009433595379519719,0.2867368943395545,1142.0,0.012928166675547302,0.5016160152074128,1.003232030414864,-1.639932526427001e-05,0.236,1.0000000000000002,-0.033183673939076966,0.0198685661670271,4,2026-10-08 01:31:18.499244,96.6,0.4865161947945197,0.035555065754809025,0.0177921242903855
0312,cdot_cos,P,T-P,5,1,3112,0.04011619392253153,-0.0002826765921451073,0.055933993047804574,0.9955181334051212,1116.0,0.025511216379286182,0.5028522097625734,1.1244117236653461,-8.72233455302601e-05,0.697,1.0000000000000002,-0.05729196910820541,0.02483570798451191,5,2026-10-08 01:31:19.196243,96.6,0.4439760410931313,0.010920223943552139,0.018053155959453202
0312,cdot_cos,Q,P-Q,6,1,3225,-0.0019890189935483486,-0.0014057924833864926,-0.04210521291607988,0.016834227708387876,1116.0,0.02815095885285898,0.5028731135752295,1.2317825336441155,-2.554465520731061e-05,0.113,1.0,2.950595249667962,0.029802849548049053,6,2026-10-08 01:31:19.309243,96.6,0.08940811246107458,0.07979272515410281,0.023360552863476103
0312,cdot_cos,R,Q-R,7,1,3259,0.08193511180957447,0.08774422568815139,0.08392413080312282,0.9996986904422251,1116.0,0.043544372264113416,0.5041144635447428,1.3337615028757466,-0.0001990127727417618,0.034,1.0000000000000002,-0.13974150867580284,0.03476999106552677,7,2026-10-08 01:31:19.343244,96.6,0.4182637197123195,0.2706355690021161,0.45274745327218924
0312,cdot_cos,S,R-S,8,1,3318,-0.0046131771380254465,-0.03717507875899222,-0.08654828894759992,0.00023385750123416682,1116.0,0.04655417754500288,0.5041147539259033,1.4258518440152377,-4.890027923927802e-05,0.059,0.9999999999999998,516.9498365949,0.03973713265238713,8,2026-10-08 01:31:19.402244,96.6,0.04643194375817536,0.06642855504117136,0.05101364882863495
0312,cdot_cos,T,S-T,9,1,3548,-0.02388266946696496,0.019243529396461588,-0.019269492328939514,0.13453611633144422,1116.0,0.05138294175897164,0.5042818071285763,1.512845421417503,-8.527780764044416e-05,0.23,1.0,-0.21776013760347934,0.04470427455347125,9,2026-10-08 01:31:19.632244,96.6,0.652739778346466,0.05063422727882309,0.020994627017255473
0312,cdot_cos,P,T-P,10,2,4228,0.04325010750489012,0.0020194285036307692,0.06713277697185507,0.9984762047983079,1118.0,0.0698459220932615,0.5055215804873197,1.598599600767058,-0.0004035890996093933,0.68,1.0,-0.25674958227170563,0.04967141768079326,10,2026-10-08 01:31:20.312243,96.6,0.45443453637592907,0.016250556357907665,0.027151441668073328
0312,cdot_cos,Q,P-Q,11,2,4344,-0.0008830149120477638,-0.0006469175654089738,-0.044133122416937884,0.01388095089880592,1118.0,0.07348369840572606,0.505538815540577,1.6766825682985258,-9.401630883372944e-05,0.116,1.0,17.96181225281058,0.05463855936801739,11,2026-10-08 01:31:20.428244,96.6,0.03715130895740484,0.10391035418980223,0.03136014062469451
0312,cdot_cos,R,Q-R,12,2,4383,0.08388536472966238,0.0985203261265658,0.08476837964171013,0.9997222816896965,1118.0,0.09395312426529562,0.5067800670239737,1.7555376489111807,-0.0006179613642892404,0.039,0.9999999999999998,-0.4221103156483039,0.0596057008422845,12,2026-10-08 01:31:20.467244,96.6,0.42833034839288514,0.31167781059361294,0.5248570733222963
0312,cdot_cos,S,R-S,13,2,4437,-0.0007141941101236086,-0.0017285192448283002,-0.08459955883978598,0.00028228320808832124,1118.0,0.09779456763202787,0.5067804174946765,1.8272227808953219,-0.00013280953598863554,0.054,1.0,1384.286402358779,0.06457284244705072,13,2026-10-08 01:31:20.521244,96.6,0.025913546700171822,0.09051169628091119,0.0711378401246714
0312,cdot_cos,T,S-T,14,2,4667,-0.021276997698274795,0.01615013140389837,-0.020562803588151185,0.12064176520551609,1118.0,0.10372838746363403,0.5069302005124474,1.8967591295565318,-0.00021560557678636133,0.23,0.9999999999999999,-0.5527732184189295,0.06953998495742436,14,2026-10-08 01:31:20.751244,96.6,0.681120372401147,0.06251447075848725,0.02579921665915718
0312,cdot_cos,P,T-P,15,3,5346,0.0392312580777594,-0.0006909110617757775,0.06050825577603419,0.9971142988648385,1098.0,0.126551224180932,0.5081681195808041,1.9681266645262205,-0.0009475316963593198,0.679,1.0,-0.5912552268417489,0.0745071304101253,15,2026-10-08 01:31:21.430244,96.6,0.46187751041481245,0.020155336521653303,0.03361242520956993
0312,cdot_cos,Q,P-Q,16,3,5456,-0.0010455927385788007,-0.0007643196048935936,-0.0402768508163382,0.02002111048761241,1098.0,0.1310993344600392,0.5081929748479707,2.032771900064354,-0.00021126619159602116,0.11,0.9999999999999998,29.62211187791827,0.0794742722740149,16,2026-10-08 01:31:21.540244,96.6,0.030653348239752208,0.13209075402316964,0.04134645708279276
0312,cdot_cos,R,Q-R,17,3,5490,0.0904847819704875,0.09656857118211312,0.0915303747090663,0.9998554635370956,1098.0,0.15561119006602933,0.5094341943206466,2.100450993212834,-0.0012669215793002968,0.034,0.9999999999999998,-0.8504985709162035,0.08444141363254887,17,2026-10-08 01:31:21.574244,96.6,0.4346368342441141,0.4268447293900869,0.7209369295879446
0312,cdot_cos,S,R-S,18,3,5539,-0.0044964460875753665,-0.03171814962090397,-0.09498122805806286,0.00010356716661466818,1098.0,0.16012477605856512,0.5094343228830531,2.1613467864104603,-0.00025690684841649753,0.049,1.0,7856.221413344917,0.08940855521685052,18,2026-10-08 01:31:21.623244,96.6,0.01961533953816379,0.12637637817365172,0.09211399984766919
0312,cdot_cos,T,S-T,19,3,5789,-0.0215938506224678,0.016182426286561157,-0.017097404534892433,0.16089156964872722,1098.0,0.1679960751270472,0.5096340430345774,2.2214432925307035,-0.0004655898771989997,0.25,1.0000000000000002,-1.0448771803438268,0.09437569883897552,19,2026-10-08 01:31:21.873244,96.6,0.6387691700019661,0.06865392871816162,0.03148519627392832
0312,cdot_cos,P,T-P,20,4,6444,0.03219735771738053,-0.0012150509164660533,0.05379120833984834,0.9944930968067601,1159.0,0.19445174041764593,0.5108684702831496,2.2846732551894227,-0.001728396887924971,0.655,1.0,-1.0229902265901365,0.09934284743694397,20,2026-10-08 01:31:22.528243,96.6,0.48160871739889455,0.024544665410640185,0.04039032868793699
0312,cdot_cos,Q,P-Q,21,4,6553,-0.0008765983776887795,-0.0005870917331758898,-0.033073956095069315,0.039356426961637714,1159.0,0.20014958681498585,0.5109173193230488,2.341317291369538,-0.0004052721226518159,0.109,0.9999999999999999,27.085993256020675,0.10430998959382978,21,2026-10-08 01:31:22.637243,96.6,0.03820529741331758,0.15458037290831672,0.05227382015908181
0312,cdot_cos,R,Q-R,22,4,6586,0.08259880642657753,0.07894220041607324,0.08347540480426631,0.999685346588869,1159.0,0.22815026171165897,0.5121580523263476,2.4022342019760967,-0.0021614446041512457,0.033,1.0,-1.4154314238682164,0.10927713081521018,22,2026-10-08 01:31:22.670244,96.6,0.4437475686321183,0.5019986031904526,0.8485052998991857
0312,cdot_cos,S,R-S,23,4,6633,-0.008410992662058575,-0.037973679841832864,-0.09100979908863611,0.00015198957984888158,1159.0,0.23328149462555572,0.5121582409531884,2.4562246387226248,-0.00042673364933137285,0.047,0.9999999999999997,9196.522336577322,0.11424427237031219,23,2026-10-08 01:31:22.717243,96.6,0.017161434046670147,0.20848480122392252,0.1091751683807819
0312,cdot_cos,T,S-T,24,4,6884,-0.013115415674151955,0.013035384416526975,-0.004704423012093379,0.38830391119162144,1159.0,0.2477478330267077,0.5126401345093081,2.5114135043180967,-0.0012541141980618275,0.251,0.9999999999999998,-1.7169363196981793,0.11921141747250726,24,2026-10-08 01:31:22.968243,96.6,0.5169893412981181,0.0880666323539365,0.057634814347218996
0312,cdot_cos,P,T-P,25,5,7603,0.036645568882180644,-0.00016002296860407494,0.0497609845563326,0.9918931910229826,1142.0,0.27749094406723185,0.5138709866507366,2.5693549355474583,-0.0028150969534142868,0.719,1.0000000000000002,-1.268213055664701,0.12417857221187174,25,2026-10-08 01:31:23.687244,96.6,0.5743570238622453,0.02495025088895468,0.04136733107166086
0312,cdot_cos,Q,P-Q,26,5,7717,-0.0011669028351152062,-0.0008367467845953015,-0.03781247171729585,0.02526649814695638,1142.0,0.2836262938050245,0.5139023380170111,2.6203980538526603,-0.0006203568811867909,0.114,1.0,70.00460691280838,0.1291457148878373,26,2026-10-08 01:31:23.801243,96.6,0.02907528164742961,0.16377013646813185,0.05381885734905853
0312,cdot_cos,R,Q-R,27,5,7751,0.08162541773183767,0.08551507140744605,0.08279232056695288,0.9996638907602391,1142.0,0.3148305351819659,0.5151426581525753,2.67675977570029,-0.003364592634167292,0.034,0.9999999999999996,-2.212522133837828,0.13411285591740607,27,2026-10-08 01:31:23.835244,96.6,0.4423640940002175,0.5439304908216706,0.9177718052041585
0312,cdot_cos,S,R-S,28,5,7799,-0.005446938618408589,-0.026877227791918583,-0.08707235635024625,0.000222315733419345,1142.0,0.3206135671808981,0.5151429339677885,2.725880190393362,-0.0006620929572392673,0.048,0.9999999999999997,9798.225577682106,0.139079997442859,28,2026-10-08 01:31:23.883244,96.6,0.016877858884497877,0.19861197028056785,0.12047983331108768
0312,cdot_cos,T,S-T,29,5,8043,-0.014996599287212345,0.013841829384225887,-0.009549660668803757,0.28444934174852177,1142.0,0.3338972843289004,0.5154958274034807,2.7760299925851064,-0.0015664036630333943,0.244,0.9999999999999993,-2.562560292515905,0.14404714419295045,29,2026-10-08 01:31:24.127244,96.6,0.5614028624723176,0.09404292592018537,0.05444146372132092
0312,cdot_cos,P,T-P,30,6,8745,0.03137667392949637,-0.0004478703720562884,0.04637327321670871,0.9887898055395591,1175.0,0.3665065150299486,0.516722416969713,2.8302052428832094,-0.0041142203072822795,0.702,0.9999999999999996,-2.077154994946599,0.14901430479747063,30,2026-10-08 01:31:24.829243,96.6,0.5383368309995987,0.0282570261684347,0.04645189558553868
0312,cdot_cos,Q,P-Q,31,6,8856,-0.002552663402317646,-0.0016740841564494885,-0.03392933733181402,0.036348597754937324,1175.0,0.37357014906938274,0.5167675035023527,2.8772396985242996,-0.000941674417495818,0.111,0.9999999999999993,70.3657102030996,0.15398144792195737,31,2026-10-08 01:31:24.940243,96.6,0.03442240733415466,0.18527952735380218,0.06363634269760507
0312,cdot_cos,R,Q-R,32,6,8891,0.08265708229229798,0.08108890379489453,0.08520974569461563,0.999733870519548,1175.0,0.40763857010249266,0.5180074564811221,2.9302926905655986,-0.004793359055504792,0.035,0.9999999999999994,-3.1063150812633817,0.15894858874962922,32,2026-10-08 01:31:24.975244,96.6,0.4477384519307991,0.5770682926388405,0.9733834580888547
0312,cdot_cos,S,R-S,33,6,8934,-0.004983079617180375,-0.0476194575068842,-0.08764016190947836,0.0002104525985569456,1175.0,0.4139649295541016,0.5180077174791045,2.9757277936036166,-0.0009361318089737612,0.043,0.9999999999999993,14778.762701475369,0.16391573003666143,33,2026-10-08 01:31:25.018244,96.6,0.016238195890639174,0.29190217813385483,0.1471246384095098
0312,cdot_cos,T,S-T,34,6,9201,-0.0077584831752830355,0.00791492323614322,-0.0027754035581026605,0.43337262334892135,1175.0,0.43274215742200417,0.5185451541792395,3.0236118586003746,-0.0028631978352206466,0.267,0.9999999999999991,-3.585661391867348,0.1688828798561412,34,2026-10-08 01:31:25.285243,96.6,0.5101518971781287,0.10129222146229057,0.07032669613446663
0312,cdot_cos,P,T-P,35,7,9920,0.03682072269768791,-0.001550013476325425,0.04457920587297094,0.9866967093814418,1162.0,0.46805497581496475,0.5197686204921457,3.074992638350282,-0.005727492256828263,0.719,0.9999999999999996,-2.3411305986872133,0.17385004915821028,35,2026-10-08 01:31:26.004243,96.6,0.6064725992735925,0.029685190042367922,0.04911379470509121
0312,cdot_cos,Q,P-Q,36,7,10030,-0.0012480398317292164,-0.0008420934345436875,-0.03806876252941713,0.02466387674114076,1162.0,0.47542946070292924,0.5197991997833604,3.11879521506041,-0.0012527645625547462,0.11,0.999999999999999,146.33196246599675,0.17881719288872724,36,2026-10-08 01:31:26.114244,96.6,0.028102902910660213,0.20061106899889677,0.06704077170876813
0312,cdot_cos,R,Q-R,37,7,10063,0.07985746613778598,0.07683572262898167,0.0811055059695152,0.9996044318701617,1162.0,0.512189410994722,0.5210384231950093,3.169353014552429,-0.006535506701160875,0.033,0.9999999999999989,-4.2629457198337,0.18378433332725208,37,2026-10-08 01:31:26.147244,96.6,0.4456086903513462,0.6612584018706105,1.1139378876300847
0312,cdot_cos,S,R-S,38,7,10110,-0.005843000077885841,-0.050001319020417545,-0.08570046621567182,0.00025381145236972577,1162.0,0.5190725152263895,0.5210387378163396,3.211898508650718,-0.0012778158660525386,0.047,0.9999999999999988,16711.17094867959,0.18875147466216072,38,2026-10-08 01:31:26.194243,96.6,0.01633260409198441,0.24131330234417403,0.1464490262056913
0312,cdot_cos,T,S-T,39,7,10380,-0.015081116748311037,0.015201746251695994,-0.009238116670425196,0.29061437327540024,1162.0,0.5348728614150744,0.5213989685500213,3.256135532361195,-0.002997595628274681,0.27,0.9999999999999986,-4.774106153145537,0.19371862745808674,39,2026-10-08 01:31:26.464243,96.6,0.563425742877633,0.0996805518698407,0.058519800698832836
0312,cdot_cos,P,T-P,40,8,11082,0.037108497315281305,0.0006350502161181808,0.05218961406359234,0.9935775772289516,1175.0,0.5729000132361035,0.5226303861887018,3.3054048093691737,-0.007581209461660503,0.702,0.9999999999999981,-3.7222252543801964,0.1986858047502866,40,2026-10-08 01:31:27.166244,96.6,0.5462918485586686,0.03257913065574728,0.054169731938787914
0312,cdot_cos,Q,P-Q,41,8,11196,-0.00385149108153878,-0.0023310983981630227,-0.040959988396820086,0.018766540678973653,1175.0,0.5806139608557436,0.5226536424163706,3.34661623318692,-0.0016013699818516723,0.114,0.9999999999999976,257.12852337808755,0.20365294939374354,41,2026-10-08 01:31:27.280244,96.6,0.023892222139305128,0.2058587732951762,0.06766620718982509
0312,cdot_cos,R,Q-R,42,8,11230,0.08358603493078232,0.08399477782574767,0.08743752601232109,0.9997853881794797,1175.0,0.6198358135474037,0.5238924708553068,3.395211286185239,-0.008471568913067985,0.034,0.9999999999999974,-5.545722648340157,0.20862008951620709,42,2026-10-08 01:31:27.314244,96.6,0.44442620231831287,0.6847713447386435,1.1535839026958858
0312,cdot_cos,S,R-S,43,8,11276,-0.003823315550318818,-0.04391396932216576,-0.08740935048110113,0.00021519661136541784,1175.0,0.6271784122979713,0.5238927374731176,3.435394448126723,-0.0016474526131499223,0.046,0.9999999999999971,25595.12539203098,0.21358723064369128,43,2026-10-08 01:31:27.360243,96.6,0.015887492445746023,0.29828740298739925,0.15962171196886177
0312,cdot_cos,T,S-T,44,8,11538,-0.008454997782839119,0.008451003300928893,-0.004631682232520301,0.3899742391583996,1175.0,0.6472782546222444,0.5243758734773709,3.4783160719872424,-0.00460859819352167,0.262,0.9999999999999969,-6.129010370378395,0.21855438618114562,44,2026-10-08 01:31:27.622243,96.6,0.5259620024336079,0.1152873776433915,0.07671695543615682
0312,cdot_cos,P,T-P,45,9,12257,0.03940718680473088,-0.001491969436606153,0.04786218458757,0.9902769667048573,1179.0,0.6875889981831085,0.52560251269499,3.5258488749551713,-0.009678392795191839,0.719,0.9999999999999972,-4.133077215247148,0.22352157508170772,45,2026-10-08 01:31:28.341243,96.6,0.5922502081721702,0.03376722619685073,0.05606501190662595
0312,cdot_cos,Q,P-Q,46,9,12366,-0.0012831702469405554,-0.000842168500872434,-0.04069035705167144,0.019252228526204257,1179.0,0.6958355258933158,0.5256263570891321,3.5649714453555332,-0.0020519596727228513,0.109,0.9999999999999962,319.8417656173728,0.22848872024369077,46,2026-10-08 01:31:28.450243,96.6,0.02431508389990088,0.22850787735479547,0.07565621752483748
0312,cdot_cos,R,Q-R,47,9,12399,0.0857682485300969,0.08072010636796738,0.08705141877703745,0.9997772342627808,1179.0,0.7374037154464539,0.5268644444935392,3.6120006978527535,-0.010712943638696725,0.033,0.9999999999999958,-6.995454388069924,0.23345585988819928,47,2026-10-08 01:31:28.483244,96.6,0.4455437772460374,0.7481292951389971,1.2596421076708522
0312,cdot_cos,S,R-S,48,9,12453,-0.0058874226298349045,-0.03820035118713707,-0.09165567115993181,0.00014279783887742874,1179.0,0.7452120593724896,0.5268646213059063,3.650225216536531,-0.00208169238944624,0.054,0.9999999999999954,48815.87974726721,0.23842300151168308,48,2026-10-08 01:31:28.537244,96.6,0.015823384221099177,0.2267236161384609,0.14459896159325347
0312,cdot_cos,T,S-T,49,9,12697,-0.01684719442497322,0.01823944235264231,-0.010959771795138315,0.25755529618516554,1179.0,0.7618898659894077,0.5271835154138589,3.6902846537349565,-0.004519397414725183,0.244,0.9999999999999949,-7.6442460506082455,0.2433901590420811,49,2026-10-08 01:31:28.781244,96.6,0.5831054818052903,0.12158708300131799,0.06835166646277906
0312,cdot_cos,P,T-P,50,10,13436,0.03652098000882521,-2.973013423353044e-05,0.05336817443379843,0.9942647127785121,1164.0,0.8045465558771328,0.5284143616717715,3.73645383416096,-0.012011013365093467,0.739,0.9999999999999948,-6.086557035216923,0.24835736098056183,50,2026-10-08 01:31:29.520243,96.6,0.5359422410041857,0.03487224064230487,0.05772217846782826
0312,cdot_cos,Q,P-Q,51,10,13526,-0.0015005926355217234,-0.0008119123483504558,-0.03802157264434693,0.02477377302594671,1164.0,0.8134310376587343,0.5284450259222125,3.7738523962404154,-0.0025839332591502404,0.09,0.9999999999999938,307.42900838420655,0.2533245052039712,51,2026-10-08 01:31:29.610244,96.6,0.026034178506799482,0.2923865493177987,0.09871646424001673
0312,cdot_cos,R,Q-R,52,10,13583,0.08366465567706047,0.08457452300883118,0.0851652483125822,0.9997327244203428,1164.0,0.8571761347543365,0.5296822841603788,3.819593337070266,-0.013132731181391662,0.057,0.9999999999999934,-8.52594680466712,0.2582916466865745,52,2026-10-08 01:31:29.667244,96.6,0.44787334808669377,0.45575100360939286,0.7674578437824957
0312,cdot_cos,S,R-S,53,10,13625,-0.003870516738500776,-0.008669779147854053,-0.08753517241556125,0.0002125974098464813,1164.0,0.865386652070205,0.529682547230349,3.8561472175309985,-0.0025415396173331943,0.042,0.9999999999999925,40259.97932757764,0.26325878700975164,53,2026-10-08 01:31:29.709243,96.6,0.01549505256881331,0.27313259990932726,0.19548850752067917
0312,cdot_cos,T,S-T,54,10,13878,-0.019497545436561042,0.019933325785059516,-0.015627028698060267,0.18100238374791652,1164.0,0.88011927314672,0.5299065152286905,3.8940017887088993,-0.004620929902933876,0.253,0.9999999999999921,-9.284318746424164,0.26822594880928025,54,2026-10-08 01:31:29.962244,96.6,0.6376320388260751,0.1176549047055893,0.05823170385974293
0312,cdot_cos,P,T-P,55,11,14600,0.03754253005673952,0.001132409225804426,0.05704007549330056,0.9959704837573411,1178.0,0.9249200338512332,0.5311386872942653,3.9390300023528613,-0.014526765614364102,0.722,0.9999999999999922,-8.039328262817925,0.2731931613381135,55,2026-10-08 01:31:30.684243,96.6,0.505654142137255,0.03737416658644961,0.06205091510320391
0312,cdot_cos,Q,P-Q,56,11,14707,-0.002010009346991029,-0.0013127674570659563,-0.03955253940373055,0.021441016744834195,1178.0,0.9340875696975532,0.5311652090826183,3.974876547852526,-0.003061454289408669,0.107,0.9999999999999905,432.29782141129476,0.2781603079589651,56,2026-10-08 01:31:30.791244,96.6,0.023634355131380666,0.2568375909536504,0.08567790510579457
0312,cdot_cos,R,Q-R,57,11,14751,0.08479287781928814,0.0878537299035644,0.08680288716627917,0.9997718225868428,1178.0,0.9798832783153144,0.5324016938740151,4.019544735475652,-0.0157404448507321,0.044,0.99999999999999,-10.254061068555774,0.2831274478451134,57,2026-10-08 01:31:30.835244,96.6,0.4468626716781694,0.6177642957630383,1.040811559494572
0312,cdot_cos,S,R-S,58,11,14805,-0.0010656261004773594,-0.04348223078818979,-0.0858585039197655,0.0002499670429632108,1178.0,0.9884508277247006,0.5324020029758818,4.054652949873242,-0.0030283934735648613,0.054,0.9999999999999891,41125.76709618113,0.28809458927301673,58,2026-10-08 01:31:30.889244,96.6,0.015031277206787088,0.24739799537354595,0.15865832239604072
0312,cdot_cos,T,S-T,59,11,15039,-0.012253463509197628,0.01213598409996794,-0.011187837408720269,0.25336504049862546,1178.0,1.0066022618156574,0.5327152938765901,4.091863909278335,-0.006502594538903889,0.234,0.9999999999999888,-11.089377500222126,0.2930617526286469,59,2026-10-08 01:31:31.123244,96.6,0.5860915875959425,0.13884691739465707,0.07757023115793489
0312,cdot_cos,P,T-P,60,12,15778,0.04576578418930637,0.0001608354250666785,0.058019247698504,0.9963328234477088,1156.0,1.0534311850654001,0.5339470266861136,4.135935985289758,-0.01731675215651094,0.739,0.9999999999999882,-8.77962942449397,0.2980289810409493,60,2026-10-08 01:31:31.862243,96.6,0.5355338919198589,0.037902514862498946,0.06336796109572768
0312,cdot_cos,Q,P-Q,61,12,15882,-0.00028293200688379525,-0.0001831004229271607,-0.046048716196190165,0.011563098040374017,1156.0,1.0626221787824308,0.5339613193556085,4.17037134583397,-0.003491124925621977,0.104,0.9999999999999863,967.3229508170268,0.3029961282240008,61,2026-10-08 01:31:31.966244,96.6,0.0190588964215739,0.2738965654836439,0.0883749395868336
0312,cdot_cos,R,Q-R,62,12,15925,0.08990354313387963,0.09217182555239074,0.09018647514076343,0.9998354305817873,1156.0,1.110401670685998,0.5351969614163112,4.214145215247255,-0.018630871015262757,0.043,0.9999999999999861,-12.252533780721985,0.30796326763589854,62,2026-10-08 01:31:32.009243,96.6,0.44369578577809643,0.6593588610901063,1.1111509745015635
0312,cdot_cos,S,R-S,63,12,15984,-0.0005220277460005273,-0.0010849583654427323,-0.09042557087988017,0.00016081257966886245,1156.0,1.11932704083618,0.5351971601214683,4.247995891597958,-0.0035711276859408747,0.059,0.9999999999999843,75789.39343418433,0.31293040968304586,63,2026-10-08 01:31:32.068243,96.6,0.014741576961221777,0.15884081369297273,0.15127746017257476
0312,cdot_cos,T,S-T,64,12,16214,-0.038708373610619275,0.037802219759048857,-0.03818634586461875,0.02439211056557882,1156.0,1.1291448867017688,0.5352272996625459,4.281818525830245,-0.003961202915111458,0.23,0.9999999999999835,-12.94230818468092,0.31789757604890245,64,2026-10-08 01:31:32.298244,96.6,0.9062193150207306,0.12742964884733882,0.04268628637212552
0312,cdot_cos,P,T-P,65,13,16934,0.034528589799395874,-3.8918581981045266e-06,0.07323696341001515,0.9991544612517068,1158.0,1.1779446793059558,0.5364616579045488,4.3250922940081615,-0.020195347173350288,0.72,0.9999999999999832,-13.151890355507163,0.3228648151821924,65,2026-10-08 01:31:33.018244,96.6,0.44759983718199947,0.04097149282210826,0.06777748972803749
0312,cdot_cos,Q,P-Q,66,13,17046,-0.0017966800169229448,-0.0012078052897613837,-0.03632526981631882,0.029056641187984348,1158.0,1.1881438363656047,0.5364975479500922,4.358526845145113,-0.004328720926407703,0.112,0.9999999999999808,442.0898889014337,0.32783196439806184,66,2026-10-08 01:31:33.130244,96.6,0.025593147883516066,0.26703602840804996,0.09106390231829385
0312,cdot_cos,R,Q-R,67,13,17081,0.08634660280630843,0.08850759407424408,0.08814328282323138,0.9997995291306284,1158.0,1.237760749669359,0.5377322428033878,4.401528268862345,-0.02158279473459051,0.035,0.9999999999999806,-13.974362784560396,0.3327991021279911,67,2026-10-08 01:31:33.165244,96.6,0.44958223389526353,0.8403756998583343,1.4176260943929795
0312,cdot_cos,S,R-S,68,13,17124,-0.004088160687798298,-0.009132651764296833,-0.09043476349410673,0.00016066986336728104,1158.0,1.2469701353556881,0.5377324411846398,4.434255471530422,-0.004103119990518766,0.043,0.9999999999999789,88111.52550708174,0.3377662415374453,68,2026-10-08 01:31:33.208243,96.6,0.014120982233669392,0.3421412018824836,0.21417176014718883
0312,cdot_cos,T,S-T,69,13,17370,-0.014462144260202963,0.014867838418494402,-0.010373983572404665,0.26852347008238525,1158.0,1.2671848930312526,0.538063973998211,4.4694952116305835,-0.009112150495197422,0.246,0.9999999999999776,-15.108702063973553,0.34273341447675887,69,2026-10-08 01:31:33.454243,96.6,0.5771177672264881,0.1434631948958388,0.08217381168928645
0312,cdot_cos,P,T-P,70,14,18092,0.03525093957368047,0.0001668558222590016,0.04971308383388344,0.9918558984040562,1170.0,1.3175540272444408,0.539288275973277,4.512009607284044,-0.02333328857778895,0.722,0.9999999999999772,-11.615711133542364,0.3477006701061082,70,2026-10-08 01:31:34.176243,96.6,0.543634292060401,0.04218990376415304,0.06976334378557926
0312,cdot_cos,Q,P-Q,71,14,18206,-0.0014388360651353248,-0.000962528218863009,-0.0366897756388158,0.028079552168268105,1170.0,1.3281071140666896,0.5393229292713565,4.544415984025831,-0.005003843911915379,0.114,0.9999999999999744,528.937956318686,0.35266782101249033,71,2026-10-08 01:31:34.290244,96.6,0.025653562520612364,0.27198595280929727,0.0925709370372698
0312,cdot_cos,R,Q-R,72,14,18240,0.08719612627413616,0.08756954685409957,0.08863496233927148,0.9998088263831142,1170.0,1.3795668244849606,0.5405565546263961,4.586774674454215,-0.024962118535369154,0.034,0.9999999999999739,-16.178554163077816,0.35763495801253586,72,2026-10-08 01:31:34.324243,96.6,0.44953457979047534,0.8972673477765908,1.5135208946550298
0312,cdot_cos,S,R-S,73,14,18296,-0.0026967015994787693,-0.039227506026709345,-0.08989282787361492,0.0001693036870916785,1170.0,1.3891212937154978,0.5405567634820007,4.6185192217000575,-0.004739126645397649,0.056,0.9999999999999725,96827.62370583614,0.36260209955114936,73,2026-10-08 01:31:34.380243,96.6,0.014020422912557675,0.26915045207634236,0.17061552197387775
0312,cdot_cos,T,S-T,74,14,18528,-0.013526191220513607,0.012731428679349283,-0.010829489621034838,0.2599691898231632,1170.0,1.409711675117511,0.5408774485802754,4.6528039535991255,-0.010323177936576,0.232,0.9999999999999711,-17.41288048998744,0.3675692746713287,74,2026-10-08 01:31:34.612243,96.6,0.5822102340543949,0.15703178889236236,0.08875164397419479
0312,cdot_cos,P,T-P,75,15,19262,0.04023865327709353,-0.0009096032627576344,0.053764844497607135,0.9944791317699946,1155.0,1.4619840437615539,0.5421038739910621,4.694757485126155,-0.026878474776147368,0.734,0.9999999999999705,-13.49882079575668,0.3725365499603712,75,2026-10-08 01:31:35.346244,96.6,0.540137571971541,0.042753470447905555,0.07121576109542635
0312,cdot_cos,Q,P-Q,76,15,19359,-0.0012174733545655602,-0.00071264990290423,-0.04145612663165909,0.01790405414061369,1155.0,1.4724737697350363,0.5421259492481847,4.726144714674724,-0.005511664621297597,0.097,0.9999999999999678,967.9076459301646,0.3775036988551774,76,2026-10-08 01:31:35.443244,96.6,0.02072006318049298,0.3284498697619118,0.10814150488126197
0312,cdot_cos,R,Q-R,77,15,19409,0.08312025713885071,0.08438392807924165,0.08433773049341627,0.999710488147188,1155.0,1.5257033184953648,0.5433583026814512,4.767950019079911,-0.0285638325481997,0.05,0.9999999999999671,-18.70580898679252,0.38247083858878844,77,2026-10-08 01:31:35.493243,96.6,0.44617660149072114,0.6311491694312377,1.0645909752065696
0312,cdot_cos,S,R-S,78,15,19462,-0.0035234386454972484,-0.007517289865212375,-0.08664369578434795,0.00023171259887004697,1155.0,1.53558868667816,0.5433585882550368,4.798813380748595,-0.005416315822271729,0.053,0.9999999999999648,81056.22472332013,0.3874379794516942,78,2026-10-08 01:31:35.546243,96.6,0.013930640477838608,0.214028203116305,0.1865163808074582
0312,cdot_cos,T,S-T,79,15,19712,-0.03067005457906297,0.030408569576183105,-0.02714661593356572,0.06771296356860503,1155.0,1.548390308025693,0.5434420396977044,4.830218769434851,-0.007065942220384685,0.25,0.9999999999999631,-19.767500062077335,0.3924051629399202,79,2026-10-08 01:31:35.796243,96.6,0.7917879749575909,0.1337538705962058,0.05120648539013217
0312,cdot_cos,P,T-P,80,16,20417,0.030411356359234948,-0.0005088332009190154,0.061081410938297914,0.9972693039198492,1150.0,1.602465621976263,0.5446708187582785,4.8716841835582105,-0.030481176609280774,0.705,0.9999999999999624,-19.055691246851975,0.39737244871739585,80,2026-10-08 01:31:36.501244,96.6,0.46385341283353115,0.04595689980628791,0.07670257297953172
0312,cdot_cos,Q,P-Q,81,16,20515,-0.01187890265466885,-0.0059644175171331484,-0.0422902590139038,0.016540915102425866,1150.0,1.613189536752559,0.544691194999137,4.902221075328907,-0.006169127844785495,0.098,0.9999999999999588,1193.1567227409978,0.4023395987230067,81,2026-10-08 01:31:36.599244,96.6,0.01943030082548388,0.33481962331992154,0.10942770179893963
0312,cdot_cos,R,Q-R,82,16,20563,0.08035979938426491,0.08220321397034391,0.09223870203893375,0.9998650213047262,1150.0,1.6680902681469676,0.5459226173653339,4.9435398802907065,-0.0322126825077962,0.048,0.9999999999999583,-21.149164882755333,0.4073067376868644,82,2026-10-08 01:31:36.647244,96.6,0.44553137454417086,0.6776407776846275,1.1437652373835112
0312,cdot_cos,S,R-S,83,16,20617,-0.0046086959129788595,-0.05509586680679962,-0.08496849529724376,0.00027240269627499956,1150.0,1.6782430514102833,0.5459229527775433,4.973595126142846,-0.006075188532116541,0.054,0.9999999999999553,77926.48341109783,0.4122738786049912,83,2026-10-08 01:31:36.701244,96.6,0.013536918462666546,0.32084006460491526,0.18801450487621668
0312,cdot_cos,T,S-T,84,16,20851,-0.012568432829480563,0.01146345129792795,-0.007959736916501703,0.3167148154620951,1150.0,1.7027409951242984,0.5463128986737295,5.007040749713108,-0.01480864017033718,0.234,0.9999999999999537,-22.396572764679156,0.41724106361434804,84,2026-10-08 01:31:36.935244,96.6,0.5544637834684003,0.17024238962257487,0.10469206715391088
0312,cdot_cos,P,T-P,85,17,21567,0.030187266259813057,0.00128713363126784,0.04275569908929362,0.9841748095730973,1181.0,1.7579164897536483,0.5475242705517847,5.047924694363124,-0.03412306670070071,0.716,0.9999999999999531,-15.944258637877509,0.42220837169324504,85,2026-10-08 01:31:37.651244,96.6,0.5677792454549331,0.047143411976689996,0.07706074668903617
0312,cdot_cos,Q,P-Q,86,17,21675,-0.0017009972351436876,-0.0011085900782822782,-0.03188826349495674,0.04392275220587317,1181.0,1.7702503610749185,0.5475783198723997,5.07803282503013,-0.007776473987132654,0.108,0.9999999999999493,487.4546509330071,0.4271755255690739,86,2026-10-08 01:31:37.759244,96.6,0.03377660107218933,0.31902159495130383,0.11420251223398309
0312,cdot_cos,R,Q-R,87,17,21722,0.07956783777213487,0.08523394399875515,0.08126883500727856,0.9996106215919865,1181.0,1.82682515426313,0.5488080889652199,5.118941468968924,-0.0363495364248278,0.047,0.9999999999999489,-23.234493861094055,0.43214266403012724,87,2026-10-08 01:31:37.806243,96.6,0.45563464303369344,0.7133563567034523,1.2037190040044992
0312,cdot_cos,S,R-S,88,17,21773,-0.006234859600663764,-0.03445995000478283,-0.08580269737279864,0.00025131789262502124,1181.0,1.837305858605043,0.5488083980742742,5.148279516015372,-0.006859425802645196,0.051,0.9999999999999454,95403.58076706032,0.43710980411411804,88,2026-10-08 01:31:37.857243,96.6,0.013579285146484094,0.27985787749433527,0.20550400670417768
0312,cdot_cos,T,S-T,89,17,22026,-0.023144124099244497,0.02263941790885461,-0.016909264498580732,0.16336035063080423,1181.0,1.8553706577675522,0.54900931555496,5.179343923120343,-0.011914236788807594,0.253,0.999999999999943,-25.158642089814265,0.4420769997571597,89,2026-10-08 01:31:38.110244,96.6,0.6542495317351221,0.14918844135875733,0.0714023682312614
0312,cdot_cos,P,T-P,90,18,22748,0.04138852623678693,0.0005034166095927864,0.06453265033603142,0.9980419652291624,1172.0,1.9127952099325742,0.5502364615372467,5.220001826806382,-0.03862831603882027,0.722,0.9999999999999424,-21.769275730531486,0.447044329221446,90,2026-10-08 01:31:38.832243,96.6,0.5007905772740556,0.047659355891314564,0.07953539081027988
0312,cdot_cos,Q,P-Q,91,18,22854,-0.0007115844005284717,-0.00045840997344956706,-0.042100110637315405,0.016842387229770415,1172.0,1.9241907676746104,0.5502571649513104,5.2491192786982035,-0.007805492311574177,0.106,0.9999999999999377,1488.7797554758881,0.45201148389817675,91,2026-10-08 01:31:38.938244,96.6,0.019276597088484042,0.32814415775254985,0.10750526171732222
0312,cdot_cos,R,Q-R,92,18,22898,0.08225260427955952,0.08517195892218421,0.082964188680088,0.9996694231033285,1172.0,1.9823617713761148,0.5514856889511216,5.289665383286367,-0.04054668140294314,0.044,0.9999999999999372,-26.65083392461216,0.45697862102314973,92,2026-10-08 01:31:38.982244,96.6,0.44597442003000237,0.78325370663994,1.322068265943282
0312,cdot_cos,S,R-S,93,18,22954,-0.004730695929775264,-0.021573127528622348,-0.08698330020933479,0.0002242360959360688,1172.0,1.993117093858925,0.5514859644517445,5.318338521789008,-0.007629005552205333,0.056,0.9999999999999329,119483.12678120092,0.46194576234047313,93,2026-10-08 01:31:39.038244,96.6,0.01336914824561322,0.2761547636412204,0.192059330050184
0312,cdot_cos,T,S-T,94,18,23182,-0.01927703035003788,0.01940210199107102,-0.014546334420262617,0.19699605794348776,1172.0,2.0132911049039315,0.551727985233153,5.349201764946107,-0.014419779834357521,0.228,0.9999999999999306,-28.058641256465467,0.4669129563756024,94,2026-10-08 01:31:39.266243,96.6,0.6244183692750616,0.17307565722990073,0.08848250458336131
0312,cdot_cos,P,T-P,95,19,23920,0.031800504859680265,-0.00077660314099611,0.051077535209718146,0.9928544188502593,1165.0,2.07203959355576,0.5529473877630907,5.389464972884159,-0.04279676076899852,0.738,0.9999999999999302,-23.27121704109564,0.4718803119976083,95,2026-10-08 01:31:40.004243,96.6,0.5152702514437645,0.048452925782782506,0.07960499817320915
0312,cdot_cos,Q,P-Q,96,19,24013,-0.0014123879878806425,-0.0007593117359336718,-0.033212892847560904,0.03885212691778137,1165.0,2.0848076233593185,0.5529950922624096,5.41822379232043,-0.009463811039782248,0.093,0.9999999999999245,698.7380688431041,0.47684746396259786,96,2026-10-08 01:31:40.097243,96.6,0.02953590320902984,0.38983798826055205,0.13729064304901745
0312,cdot_cos,R,Q-R,97,19,24061,0.0875176725689688,0.08218925462952821,0.08893006055684943,0.9998141981303483,1165.0,2.1445494593722225,0.5542223738694035,5.458457923665707,-0.045029774794304284,0.048,0.9999999999999242,-28.979464494409317,0.48181460193868736,97,2026-10-08 01:31:40.145243,96.6,0.4539209803844807,0.7372128726512208,1.244621583602168
0312,cdot_cos,S,R-S,98,19,24110,-0.008583211136679229,-0.04854530006642112,-0.09610088370564802,9.295097807458254e-05,1165.0,2.1555800591338357,0.5542224879371362,5.486523287713458,-0.00845332383030549,0.049,0.9999999999999198,320655.5447101323,0.48678174084699605,98,2026-10-08 01:31:40.194243,96.6,0.01320879885191616,0.4345194809892637,0.22511428084924767
0312,cdot_cos,T,S-T,99,19,24362,-0.0120752476815381,0.01268537599156797,-0.0034920365448588703,0.41645801996446,1165.0,2.1871323685091704,0.554733500055702,5.519529211495162,-0.024414125595579504,0.252,0.9999999999999176,-31.23370500502237,0.4917489491293252,99,2026-10-08 01:31:40.446244,96.6,0.5200903405078946,0.18092321490172378,0.12520757688624884
0312,cdot_cos,P,T-P,100,20,25085,0.0275583772095271,-0.0005559709635690616,0.0396336248910652,0.9787227122241373,1172.0,2.2467653594443044,0.5559339780896749,5.559340379711783,-0.04708554047623867,0.723,0.9999999999999168,-18.885322545743634,0.4967163248085994,100,2026-10-08 01:31:41.169244,96.6,0.6178594929602036,0.050818230222996,0.08247993213711491
0312,cdot_cos,Q,P-Q,101,20,25188,-0.0022935519453937256,-0.0014612213730005293,-0.029851929154920825,0.05296542018477023,1172.0,2.2606155294116226,0.555998925722354,5.587720724629383,-0.011116853337142733,0.103,0.9999999999999108,553.8105956353667,0.5016834817794638,101,2026-10-08 01:31:41.272243,96.6,0.03934014697610096,0.3648448323868408,0.134467669585613
0312,cdot_cos,R,Q-R,102,20,25231,0.07801706458100714,0.07708720274664625,0.08031061652640087,0.999572874541107,1172.0,2.3219233949159936,0.5572242677954442,5.627689928093837,-0.050001234022825886,0.043,0.9999999999999097,-31.73349021438538,0.5066506176492944,102,2026-10-08 01:31:41.315244,96.6,0.45947606833969334,0.84503875123795,1.425764314055141
0312,cdot_cos,S,R-S,103,20,25288,-0.009008816712027376,-0.05121236836604199,-0.08702588129303451,0.00022331583821109903,1172.0,2.3332888620180863,0.5572245414734298,5.655212134204046,-0.009416404303719598,0.057,0.9999999999999051,148294.09690759456,0.5116177593729042,103,2026-10-08 01:31:41.372243,96.6,0.013433368173193672,0.3318965969843948,0.1993941596858356
0312,cdot_cos,T,S-T,104,20,25540,-0.017804426894643715,0.01773286294676451,-0.00879561018261634,0.29950503617929325,1172.0,2.3597596069722147,0.5575915594953332,5.686341173715898,-0.022105754049478156,0.252,0.9999999999999015,-34.57418706566329,0.5165849750401895,104,2026-10-08 01:31:41.624243,96.6,0.5632513714194747,0.175741739178757,0.10504263870685865
0312,cdot_cos,P,T-P,105,21,26257,0.045432831073724436,-0.00022100757687950557,0.06323725796836815,0.9977815356319402,1164.0,2.42186269856418,0.5588138002492837,5.726138213718696,-0.0528107168747833,0.717,0.999999999999901,-25.121861405832906,0.5215523732774653,105,2026-10-08 01:31:42.341243,96.6,0.5591064602325599,0.05173700476623864,0.08661519050483284
0312,cdot_cos,Q,P-Q,106,21,26369,-0.000781078216344008,-0.0005338427723793448,-0.046213909290068446,0.011382126148215923,1164.0,2.433950471807001,0.5588277387970296,5.753484514176468,-0.010438520997012661,0.112,0.9999999999998933,3039.9290263398207,0.5265195354789384,106,2026-10-08 01:31:42.453243,96.6,0.01726257339690139,0.33444023781323273,0.10792654681090236
0312,cdot_cos,R,Q-R,107,21,26403,0.0904446876909656,0.09126902608934333,0.0912257659073096,0.9998511479725377,1164.0,2.496777311834344,0.5600517919571343,5.793221595922667,-0.055059278650745475,0.034,0.9999999999998924,-36.45328414487963,0.531486667092126,107,2026-10-08 01:31:42.487243,96.6,0.4446743578714913,1.0952131653923796,1.8478482360983253
0312,cdot_cos,S,R-S,108,21,26450,-0.0008711182812695506,-0.001485958688324106,-0.09131580597223515,0.00014756313631681347,1164.0,2.5084249670536827,0.5600519725556334,5.820231642159873,-0.010361780535470192,0.047,0.9999999999998869,247496.5092418099,0.5364538046668179,108,2026-10-08 01:31:42.534244,96.6,0.013384085300504295,0.31758941651731937,0.24782245147529253
0312,cdot_cos,T,S-T,109,21,26716,-0.020767087320964404,0.021838268049417384,-0.019895969039694855,0.1276442059085905,1164.0,2.526630716986972,0.5602081868591084,5.848745996227976,-0.016291233940608517,0.266,0.9999999999998825,-37.957173403694405,0.5414210332282743,109,2026-10-08 01:31:42.800243,96.6,0.6949149002426962,0.15332350846975762,0.06844266892214011
0312,cdot_cos,P,T-P,110,22,27421,0.032657604209457625,0.00018162713200733897,0.05342469153042203,0.9942957614300147,1155.0,2.5899930735595937,0.5614246213086755,5.888271952507607,-0.05758309949114018,0.705,0.9999999999998811,-33.944998487363335,0.5463884497337702,110,2026-10-08 01:31:43.505243,96.6,0.4881741527970432,0.054647926331593176,0.08987568308173305
0312,cdot_cos,Q,P-Q,111,22,27528,-0.0010337422776586843,-0.000677843842550127,-0.03369134648711631,0.037162514136173094,1155.0,2.6036842931145183,0.5614700721993638,5.915455215932946,-0.012629538836272627,0.107,0.9999999999998732,989.0578594631643,0.5513556115710676,111,2026-10-08 01:31:43.612243,96.6,0.028455937918787654,0.3642359360760945,0.1279553229432204
0312,cdot_cos,R,Q-R,112,22,27571,0.08412932917444388,0.08874449587128763,0.08516307145210256,0.9997326682254885,1155.0,2.667939563879878,0.5626923863179566,5.95497742849354,-0.06012509521888413,0.043,0.9999999999998721,-38.85707909296931,0.5563227461748211,112,2026-10-08 01:31:43.655244,96.6,0.4538694702784363,0.8854415338899243,1.4943086224502242
0312,cdot_cos,S,R-S,113,22,27627,-0.006004774757864133,-0.01858179751283179,-0.09013410393230802,0.00016540395606415298,1155.0,2.679832265029052,0.5626925884850571,5.981505218530618,-0.011289012418959165,0.056,0.9999999999998657,241562.95795895322,0.5612898872911062,113,2026-10-08 01:31:43.711244,96.6,0.013220539723941506,0.29190629983146177,0.21236966337810437
0312,cdot_cos,T,S-T,114,22,27857,-0.022483756636648332,0.021562115438975096,-0.0164789818787842,0.16912101292717224,1155.0,2.7006330694610017,0.5628992878972218,6.010120704090475,-0.019863543070417274,0.23,0.9999999999998606,-41.48309161434462,0.5662571073009277,114,2026-10-08 01:31:43.941243,96.6,0.649422506369109,0.18617867862485546,0.09043828013891247
0312,cdot_cos,P,T-P,115,23,28576,0.03320649492448774,0.003901747292912109,0.05569025156113607,0.9954118437083933,1182.0,2.7654744571964853,0.5641154336412635,6.04946506281871,-0.0628658036273751,0.719,0.9999999999998599,-35.35946309695153,0.5712245551262936,115,2026-10-08 01:31:44.660243,96.6,0.5045781107754418,0.054704599343053086,0.09018273676701481
0312,cdot_cos,Q,P-Q,116,23,28702,-0.0014000359961974405,-0.001160344166982885,-0.03460653092068518,0.03412543790945773,1182.0,2.779298283316312,0.5641571128552868,6.076159154821879,-0.013595230785193832,0.126,0.9999999999998507,1182.1377633133586,0.5761917277383842,116,2026-10-08 01:31:44.786243,96.6,0.026672902103226193,0.3151726599534246,0.10971290571291022
0312,cdot_cos,R,Q-R,117,23,28749,0.06568658913351295,0.08535444417059639,0.06708662512971039,0.9984694065661531,1182.0,2.8448979675047483,0.5653761930395871,6.1154796714909025,-0.06539699121409412,0.047,0.9999999999998491,-42.49249647071665,0.5811588635562549,117,2026-10-08 01:31:44.833244,96.6,0.4528871555051413,0.8279106764533782,1.3957379614560919
0312,cdot_cos,S,R-S,118,23,28803,-0.00026825174643651595,-0.04647988363328233,-0.06595484087994948,0.0017071222684322451,1182.0,2.8571218869029296,0.5653782766760562,6.141581226528763,-0.012354759425010018,0.054,0.9999999999998419,25456.567196170043,0.5861260035097343,118,2026-10-08 01:31:44.887244,96.6,0.01366027870122721,0.32070277227402855,0.226368877744097
0312,cdot_cos,T,S-T,119,23,29046,-0.015234199811182443,0.011758706951648917,-0.014965948064745927,0.19066258940551226,1182.0,2.8795338669103434,0.565610976281667,6.17008842565533,-0.022786636259835763,0.243,0.9999999999998362,-44.82980023728146,0.5910932366494667,119,2026-10-08 01:31:45.130244,96.6,0.6326697015737248,0.18201177375592215,0.09223037040088003
0312,cdot_cos,P,T-P,120,24,29758,0.034546872259389697,-2.4197513427314212e-05,0.04978107207057214,0.9919087795005375,1158.0,2.9455796089483077,0.5668211109252664,6.209215321534595,-0.06814077002699821,0.712,0.9999999999998349,-37.47858472364784,0.5960607074308624,120,2026-10-08 01:31:45.842243,96.6,0.5139677923572874,0.056044041296725196,0.09276087364882629
0312,cdot_cos,Q,P-Q,121,24,29864,-0.0022931412236349273,-0.0014838319685855105,-0.036840013483024625,0.02768617833768878,1158.0,2.95934058171688,0.5668548768661077,6.235404913027997,-0.014391730713485568,0.106,0.9999999999998246,1591.8122810852933,0.6010278724046255,121,2026-10-08 01:31:45.948243,96.6,0.02387993151976792,0.38119382298916826,0.12982049781672034
0312,cdot_cos,R,Q-R,122,24,29905,0.08242908103147456,0.08452417664001066,0.08472222225510949,0.9997210409797569,1158.0,3.0263926994220114,0.5680737138849641,6.274580534197027,-0.07103767015020174,0.041,0.9999999999998236,-46.475401190116415,0.6059950045902841,122,2026-10-08 01:31:45.989243,96.6,0.4504955606562985,0.9688224465684631,1.6354175050032025
0312,cdot_cos,S,R-S,123,24,29964,-0.0037115294263718054,-0.05368995614455692,-0.08614061045784636,0.00024324868363108596,1158.0,3.038784022335494,0.568074010348529,6.300246832085645,-0.013302091626348914,0.059,0.9999999999998156,194747.6363226855,0.6109621470327453,123,2026-10-08 01:31:46.048243,96.6,0.013032117939541092,0.35476538421943765,0.210022422262418
0312,cdot_cos,T,S-T,124,24,30194,-0.011997334905100791,0.010876209612794856,-0.008285805478728986,0.3099380774030209,1158.0,3.068255014759905,0.568451713083249,6.330011667336158,-0.03184879169794763,0.23,0.9999999999998094,-49.103960248913076,0.6159293811293184,124,2026-10-08 01:31:46.278244,96.6,0.5585919334496475,0.2107956223866691,0.12813474967135208
0312,cdot_cos,P,T-P,125,25,30916,0.0393519095511574,0.0002137233349771769,0.05134924445625819,0.9930382410891637,1192.0,3.135750008633362,0.5696613303921269,6.369008617216513,-0.07404834137828457,0.722,0.9999999999998088,-34.88669463525328,0.6208968862807741,125,2026-10-08 01:31:47.000243,96.6,0.5655865774393041,0.05617603022356077,0.09348337101586816
0312,cdot_cos,Q,P-Q,126,25,31006,-0.001035615953076375,-0.0005077651131272284,-0.04038752550423377,0.019812419689830163,1192.0,3.149373202402727,0.5696854554402798,6.394704832399636,-0.015141134853168432,0.09,0.9999999999997969,2441.744619600691,0.6258640445313608,126,2026-10-08 01:31:47.090244,96.6,0.020434287297765343,0.4558828372708268,0.15136881965961044
0312,cdot_cos,R,Q-R,127,25,31065,0.08484394177982744,0.08350364692664997,0.08587955773290382,0.9997505406962808,1192.0,3.2178089193421107,0.5709023926909406,6.433744686562964,-0.07700032639851828,0.059,0.999999999999795,-50.83186623777276,0.6308311862792023,127,2026-10-08 01:31:47.149244,96.6,0.44782053490391927,0.6872051106643653,1.1599274057522693
0312,cdot_cos,S,R-S,128,25,31119,-0.0037489671507749357,-0.009150530337791537,-0.08859290893060238,0.00019195166301078933,1192.0,3.230463405461122,0.5709026262605531,6.459027366405369,-0.0144195040963719,0.054,0.9999999999997866,267932.20925278496,0.6357983259766308,128,2026-10-08 01:31:47.203244,96.6,0.013036370419101957,0.32442138024824096,0.23434233553724462
0312,cdot_cos,T,S-T,129,25,31370,-0.019908077471521592,0.02187922155298889,-0.016159110320746656,0.17350749422191802,1192.0,3.2528464284089207,0.5711137398089797,6.486606643325767,-0.02564039950020396,0.251,0.9999999999997791,-53.15099616987467,0.6407655797476176,129,2026-10-08 01:31:47.454243,96.6,0.6455674333240663,0.1820212591756178,0.08917539023027415
0312,cdot_cos,P,T-P,130,26,32108,0.03722249406525628,-0.001373764039809116,0.05713057153677788,0.9960054158359434,1158.0,3.321838077567282,0.5723251168099155,6.525511853813365,-0.08008893344356638,0.738,0.9999999999997784,-44.94763719412041,0.6457331226440322,130,2026-10-08 01:31:48.192243,96.6,0.5066925316695954,0.0563686460958788,0.09348461945577413
0312,cdot_cos,Q,P-Q,131,26,32216,-0.00044579206290821177,-0.0002963349987182468,-0.037668286128164495,0.025611804095221395,1158.0,3.336046550046438,0.5723562554226576,6.55091843451959,-0.01670231816600771,0.108,0.9999999999997659,2035.627463645134,0.6507002928024793,131,2026-10-08 01:31:48.300243,96.6,0.022481131952258284,0.3887347672525122,0.1315599303625537
0312,cdot_cos,R,Q-R,132,26,32249,0.08260360092800675,0.07848249850854977,0.08304939299091496,0.9996721319393899,1158.0,3.4058047872938246,0.5735711980711894,6.589833041986995,-0.08297610538530453,0.033,0.9999999999997636,-54.548901793334494,0.6556674184420261,132,2026-10-08 01:31:48.333244,96.6,0.4499092865190497,1.252179203405028,2.1138859771935405
0312,cdot_cos,S,R-S,133,26,32305,-0.007859407854893693,-0.020641804806219546,-0.09046300878290045,0.00016023214413747825,1158.0,3.4186903774711697,0.5735713927371506,6.614749672818992,-0.01551505082797618,0.056,0.9999999999997539,346547.7689462356,0.6606345590474861,133,2026-10-08 01:31:48.389244,96.6,0.012931307117275475,0.308773617541427,0.23009982459544695
0312,cdot_cos,T,S-T,134,26,32530,-0.02547522086112316,0.026213164595131417,-0.017615813006229466,0.15424499162551508,1158.0,3.4403874324584645,0.5737587743271675,6.641739682454275,-0.026254021644089402,0.225,0.9999999999997452,-57.31070386982649,0.6656018049764834,134,2026-10-08 01:31:48.614244,96.6,0.6642870074136064,0.20475847493570676,0.09643135549908798
0312,cdot_cos,P,T-P,135,27,33266,0.04234934100509883,-0.00027691572944142076,0.06782456186622199,0.9985745662518668,1145.0,3.5108316911922377,0.5749713590165337,6.680565225074609,-0.08632080891148339,0.736,0.9999999999997442,-49.53615841775774,0.6705693765606455,135,2026-10-08 01:31:49.350244,96.6,0.4986478016453782,0.0572815668770971,0.09571230806219191
0312,cdot_cos,Q,P-Q,136,27,33362,-0.0006641874961808351,-0.0003846048637951229,-0.043013528501279666,0.015441922255156964,1145.0,3.5247058989015514,0.5749901033415815,6.705481155219757,-0.017207169351343376,0.096,0.9999999999997307,3687.1767526417384,0.675536541099065,136,2026-10-08 01:31:49.446244,96.6,0.018014817518092696,0.44237957122369537,0.14452299697201762
0312,cdot_cos,R,Q-R,137,27,33409,0.08806999644073371,0.08745573810287453,0.08873418393691454,0.9998106496464779,1145.0,3.595768568867187,0.5762032717861869,6.744288287562521,-0.08913089776485142,0.047,0.9999999999997284,-59.28585493080687,0.6805036747361268,137,2026-10-08 01:31:49.493243,96.6,0.4462192051079428,0.8954522076481409,1.5119717013965068
0312,cdot_cos,S,R-S,138,27,33460,-0.0012238189249643774,-0.002164159592689109,-0.08929381536569808,0.00017938755731280946,1145.0,3.6088784064204766,0.5762034893727843,6.768860278238622,-0.016637490461708038,0.051,0.9999999999997172,333170.37063529907,0.6854708118512306,138,2026-10-08 01:31:49.544243,96.6,0.012813806097323525,0.32682783547610456,0.2570556382997927
0312,cdot_cos,T,S-T,139,27,33708,-0.021605251859370803,0.020064372995591547,-0.020381432934406425,0.12251284650097068,1145.0,3.62910500808575,0.5763520833726777,6.795092760954113,-0.02578564357896857,0.248,0.9999999999997082,-61.56475445725989,0.6904380804890632,139,2026-10-08 01:31:49.792243,96.6,0.7013298265311343,0.18515949421300132,0.08155887768255338
0312,cdot_cos,P,T-P,140,28,34411,0.03768929515138564,-0.0008607541263421346,0.05929454701075644,0.9967564991189353,1172.0,3.7007175155501253,0.5775605190108829,6.833790182928793,-0.09238231561424891,0.703,0.9999999999997067,-55.10982126792741,0.6954056598437763,140,2026-10-08 01:31:50.495244,96.6,0.4863235319803932,0.06077067266568878,0.10186700919541312
0312,cdot_cos,Q,P-Q,141,28,34497,-0.009072694880644662,-0.004227053778706964,-0.0467619900320303,0.010801518899341764,1172.0,3.7145485738537083,0.5775736093698344,6.858308743462562,-0.018050327104323822,0.086,0.9999999999996915,5678.376642342618,0.7003728191071236,141,2026-10-08 01:31:50.581243,96.6,0.01627636734645747,0.5009251611818517,0.16082625934398836
0312,cdot_cos,R,Q-R,142,28,34557,0.07970199898322969,0.07826828016180618,0.08877469386387435,0.9998113890360311,1172.0,3.786876643273404,0.5787848064839398,6.897019102307586,-0.09541492413305015,0.06,0.99999999999969,-63.874489236927886,0.7053399613072284,142,2026-10-08 01:31:50.641243,96.6,0.44449218251155675,0.7137643993722891,1.2054678236615917
0312,cdot_cos,S,R-S,143,28,34616,-0.007548687559032165,-0.057904516918942266,-0.08725068654226185,0.0002185195959523975,1172.0,3.800200301778383,0.5787850711011197,6.921264939141848,-0.017777209909926338,0.059,0.9999999999996777,293396.34815691964,0.7103071037167812,143,2026-10-08 01:31:50.700243,96.6,0.012685940746325433,0.4231162234251609,0.22582472042337604
0312,cdot_cos,T,S-T,144,28,34864,-0.012110989870127096,0.011949690301287017,-0.004562302311094931,0.391569801459101,1172.0,3.8368043576375728,0.5792591712811436,6.951112206805193,-0.049145567296432595,0.248,0.9999999999996705,-66.16398539423415,0.7152743816702649,144,2026-10-08 01:31:50.948243,96.6,0.5282031063516816,0.21846255119559535,0.14759699943221694
0312,cdot_cos,P,T-P,145,29,35583,0.02683302380405398,-0.0018957892930156453,0.03894401367418108,0.9772903027725893,1138.0,3.9085577271713983,0.5804418037143936,6.989447081836851,-0.09762912987434477,0.719,0.9999999999996689,-40.996307233578776,0.7202420062637165,145,2026-10-08 01:31:51.667244,96.6,0.6085905346565393,0.06150996605059851,0.09979606332938178
0312,cdot_cos,Q,P-Q,146,29,35691,-0.002801849295072461,-0.0016730697116214223,-0.029634873099126442,0.05402706973379278,1138.0,3.9252556888183334,0.5805071558016465,7.014297040938549,-0.022978059483152503,0.108,0.999999999999653,1142.2905300991888,0.7252091833616615,146,2026-10-08 01:31:51.775244,96.6,0.038820848029219576,0.4181668747028016,0.15461075599014032
0312,cdot_cos,R,Q-R,147,29,35724,0.08175012635351846,0.07996962644659601,0.08455197564859092,0.9997164166490762,1138.0,3.9988817721072034,0.5817159184031054,7.0529330925905445,-0.10240248121255886,0.033,0.9999999999996513,-65.70721300736939,0.7301763053715966,147,2026-10-08 01:31:51.808243,96.6,0.46042268777268114,1.3214903518270011,2.2310934329960603
0312,cdot_cos,S,R-S,148,29,35772,-0.00510072116617834,-0.04399595572935934,-0.0868508475196968,0.00022712295863017704,1138.0,4.0124740520389155,0.5817161929078258,7.076885332817478,-0.019112833660480992,0.048,0.9999999999996378,303417.9063698418,0.7351434396252303,148,2026-10-08 01:31:51.856243,96.6,0.012806704574852733,0.4045524755168367,0.283172498577335
0312,cdot_cos,T,S-T,149,29,36024,-0.01989961301035342,0.01834863565661873,-0.014798891844175079,0.19316523195573204,1138.0,4.03771880975682,0.5819496373921174,7.103603029257314,-0.03566448973828287,0.252,0.9999999999996271,-70.90189399006043,0.7401107305332223,149,2026-10-08 01:31:52.108243,96.6,0.6287047993874834,0.1970611699886168,0.1001776099916835
0312,cdot_cos,P,T-P,150,30,36721,0.03547575847518949,-0.00015934113248204686,0.055375371485542904,0.9952708097882137,1133.0,4.111792881713178,0.5831518603400491,7.14212497789726,-0.10585267399228937,0.697,0.999999999999626,-58.38200341688496,0.7450783709643604,150,2026-10-08 01:31:52.805243,96.6,0.5152648352225229,0.06409012136300636,0.10627556952131798
0312,cdot_cos,Q,P-Q,151,30,36831,-0.0020553733816625988,-0.0014652989953815479,-0.037531131856852085,0.025944532980910828,1133.0,4.127060438936851,0.5831831865079147,7.166277642766892,-0.022056220138416176,0.11,0.9999999999996088,2674.966635349909,0.7500455521729728,151,2026-10-08 01:31:52.915244,96.6,0.022388206366770396,0.40969143500573035,0.13879597476065667
0312,cdot_cos,R,Q-R,152,30,36866,0.08227092390268509,0.08516503861604303,0.08432629728434769,0.9997101683124883,1133.0,4.201924997414439,0.5843897512264291,7.204843423050744,-0.10924503270938982,0.035,0.9999999999996066,-72.26202725231641,0.7550126745529719,152,2026-10-08 01:31:52.950243,96.6,0.4501820503030119,1.2668310808255383,2.138987385073955
0312,cdot_cos,S,R-S,153,30,36911,-0.004410668065281252,-0.03926313147024018,-0.08668159196796635,0.00023086609822898471,1133.0,4.215738614594638,0.5843900297458574,7.228508150975077,-0.02037193496709748,0.045,0.9999999999995924,319091.19692391396,0.7599798058989529,153,2026-10-08 01:31:52.995244,96.6,0.012746149062946641,0.4574762975895652,0.30696927067109436
0312,cdot_cos,T,S-T,154,30,37160,-0.017469942220311292,0.01556150926395878,-0.01305927415503004,0.22071133173343813,1133.0,4.2430978641975,0.5846562736664447,7.255396249052751,-0.04053849214390107,0.249,0.9999999999995814,-75.74466726722186,0.7649471043130418,154,2026-10-08 01:31:53.244244,96.6,0.608069022712141,0.20606359971991248,0.10987650442916315
0312,cdot_cos,P,T-P,155,31,37854,0.036516208611629734,-0.0007855311009034651,0.05398615083194103,0.9945952741707226,1149.0,4.318358287255155,0.5858554380375908,7.293844145025832,-0.11277198062766111,0.694,0.9999999999995798,-60.236519881526874,0.7699147753409108,155,2026-10-08 01:31:53.938244,96.6,0.5270146606521188,0.06538772888831602,0.10844441362774467
0312,cdot_cos,Q,P-Q,156,31,37952,-0.0011508593079173626,-0.0006767095545781266,-0.0376670679195471,0.02561474103623401,1149.0,4.3338560318944825,0.5858863078640617,7.317720611263572,-0.023467846763851767,0.098,0.9999999999995614,2892.9263320572554,0.7748819491965475,156,2026-10-08 01:31:54.036243,96.6,0.022250684199983287,0.4672891921561946,0.15814025142171273
0312,cdot_cos,R,Q-R,157,31,38000,0.08468351256825106,0.08585331970043367,0.08583437187616842,0.9997494497114566,1149.0,4.409946968917769,0.587090635263147,7.356227565949278,-0.11634230518432709,0.048,0.9999999999995591,-77.117284295796,0.7798490816336578,157,2026-10-08 01:31:54.084243,96.6,0.4500996777000592,0.9387585930764053,1.5852278546517977
0312,cdot_cos,S,R-S,158,31,38053,-0.008385341727103295,-0.025057537409333377,-0.09306885429535436,0.0001245783265430464,1149.0,4.4239768568298175,0.5870907852692366,7.379619737723136,-0.021672660783767898,0.053,0.9999999999995434,631105.3412203855,0.7848162193312513,158,2026-10-08 01:31:54.137243,96.6,0.012674543513068964,0.3453289374371228,0.26471486626506835
0312,cdot_cos,T,S-T,159,31,38299,-0.027414567305385485,0.02517396913776311,-0.01902922557828219,0.1372615682069727,1149.0,4.446551836286104,0.587256053556433,7.405020081801443,-0.035013022131118135,0.246,0.9999999999995304,-80.71942641665744,0.7897835250158185,159,2026-10-08 01:31:54.383244,96.6,0.6831700864718673,0.201499495480237,0.0917682091718959
0312,cdot_cos,P,T-P,160,32,39003,0.030697614753953453,-0.0002769699499464808,0.058112182059338935,0.9963654789194475,1133.0,4.523114608606094,0.5884551249193709,7.443437055207851,-0.1199689814101423,0.704,0.9999999999995289,-70.85146214389265,0.7947512373417436,160,2026-10-08 01:31:55.087244,96.6,0.4925548886141614,0.06566429055595809,0.10875393795453155
0312,cdot_cos,Q,P-Q,161,32,39109,-0.005936947215904991,-0.0035435848747367065,-0.03663456196985845,0.028225479996207652,1133.0,4.539007157388893,0.588489077518951,7.467092590950464,-0.025158674378240715,0.106,0.9999999999995086,2792.4314545739153,0.7997184202658015,161,2026-10-08 01:31:55.193243,96.6,0.023086811731657914,0.43947489919627664,0.14992970549810167
0312,cdot_cos,R,Q-R,162,32,39152,0.07758684909936044,0.08353661195002551,0.08352379631526542,0.9996868135818359,1133.0,4.616283287235705,0.5896910612587838,7.505545190176394,-0.12348024642451387,0.043,0.9999999999995066,-81.79941939975667,0.8046855474918627,162,2026-10-08 01:31:55.236243,96.6,0.4510155556666737,1.0642772675376586,1.7971192987630669
0312,cdot_cos,S,R-S,163,32,39210,-0.003199550456317416,-0.04127543964815317,-0.08078639955567785,0.0004079466193971107,1133.0,4.6305350023971314,0.5896915515400706,7.528681067971584,-0.02300061060022303,0.058,0.9999999999994899,204942.83288251137,0.8096526894194247,163,2026-10-08 01:31:55.294244,96.6,0.012669422794772695,0.3803195365731792,0.245719226921151
0312,cdot_cos,T,S-T,164,32,39457,-0.014763868780363787,0.012041995027291056,-0.01156431832404637,0.24654715710951497,1133.0,4.6604003534781935,0.5899878259518869,7.55553403238698,-0.048418503700667755,0.247,0.999999999999477,-85.7917258011498,0.8146200060556819,164,2026-10-08 01:31:55.541243,96.6,0.5915776171225384,0.21668190577665944,0.12091235255490701
0312,cdot_cos,P,T-P,165,33,40136,0.030231374674270613,-5.0807462067462665e-05,0.044995243454634404,0.9872140568704814,1158.0,4.737575863850801,0.5911734996883994,7.593764507232648,-0.1264481038096817,0.679,0.9999999999994756,-65.81034706776093,0.8195877305957525,165,2026-10-08 01:31:56.220243,96.6,0.539513246293475,0.0690358749993956,0.11366054546775806
0312,cdot_cos,Q,P-Q,166,33,40247,-0.004104906283925126,-0.002537715711168157,-0.03433628095819574,0.03499646390560853,1158.0,4.754151071727373,0.5912155121194169,7.617282671280084,-0.027427673935911567,0.111,0.9999999999994541,2356.931686063131,0.8245549210151175,166,2026-10-08 01:31:56.331244,96.6,0.027045410102719086,0.4281490202441335,0.1493261970862299
0312,cdot_cos,R,Q-R,167,33,40282,0.08312864671499634,0.08413988012256632,0.08723355299892147,0.9997811185119638,1158.0,4.832624946344999,0.5924151609033335,7.655694738345806,-0.1310347029581814,0.035,0.9999999999994521,-86.36446801039543,0.8295220397889778,167,2026-10-08 01:31:56.366244,96.6,0.453534520219994,1.3276718069605207,2.242110703360746
0312,cdot_cos,S,R-S,168,33,40328,-0.0028892596384999,-0.04942789455003513,-0.08601790635349624,0.0002461484047828467,1158.0,4.847088098214609,0.5924154561246392,7.67858558675702,-0.0243845115119838,0.046,0.9999999999994336,361255.063148892,0.8344891701801052,168,2026-10-08 01:31:56.412243,96.6,0.012604696606178002,0.5399408682639266,0.31441634499152904
0312,cdot_cos,T,S-T,169,33,40595,-0.010586631091846904,0.009732094261042844,-0.007697371453347004,0.3222248324404511,1158.0,4.88229950622528,0.5928018634066159,7.706427902644943,-0.059652510592372074,0.267,0.9999999999994211,-91.27156946932266,0.8394565175104977,169,2026-10-08 01:31:56.679244,96.6,0.5536491738990996,0.21257471997397048,0.1318779326242356
0312,cdot_cos,P,T-P,170,34,41294,0.03372518436368871,-0.001290757257465331,0.044311815455535614,0.9863533605761855,1159.0,4.960602998680709,0.5939839685893129,7.744607198249198,-0.13408082857646156,0.699,0.9999999999994198,-62.96251727302198,0.8444242985783746,170,2026-10-08 01:31:57.378243,96.6,0.5740146426083005,0.06797638522257085,0.11202216374167287
0312,cdot_cos,Q,P-Q,171,34,41405,-0.0011690937596405776,-0.0007921805723614334,-0.034894278123329285,0.0332210146024148,1159.0,4.977330492766434,0.5940237637805519,7.767872697472297,-0.02891851135161855,0.111,0.9999999999993967,2642.588562857303,0.8493914921508707,171,2026-10-08 01:31:57.489243,96.6,0.026344250872393758,0.43414698746580593,0.15069814491643888
0312,cdot_cos,R,Q-R,172,34,41439,0.08121176248450332,0.07978308239548924,0.0823808562441439,0.99965026698448,1159.0,5.056983629898118,0.5952206571226842,7.806249792154246,-0.13890931506679527,0.034,0.9999999999993942,-91.89691331996208,0.8543586085961463,172,2026-10-08 01:31:57.523244,96.6,0.45302075608499826,1.387459833583329,2.3427393274024766
0312,cdot_cos,S,R-S,173,34,41487,-0.005565925951419117,-0.04016803677001621,-0.08677768843592244,0.0002287333913728419,1159.0,5.0716777614501005,0.5952209308589843,7.8289130814855925,-0.02586644599130822,0.048,0.9999999999993747,412962.6543718921,0.8593257404331746,173,2026-10-08 01:31:57.571244,96.6,0.012648061781302455,0.48983980920402903,0.30612774066629544
0312,cdot_cos,T,S-T,174,34,41753,-0.015859899299838852,0.015414703478433179,-0.010293973348419735,0.27004430045306316,1159.0,5.104008251581705,0.5955440645642962,7.855769815705396,-0.05716175906907274,0.266,0.9999999999993604,-96.8494235151286,0.8642930991000761,174,2026-10-08 01:31:57.837244,96.6,0.5784015784656347,0.21149596393933742,0.12154319598347596
0312,cdot_cos,P,T-P,175,35,42453,0.04579559025206613,-0.0005591402759649256,0.06165548955190498,0.9974162343761528,1138.0,5.184193614265828,0.5967368481843605,7.894090651620964,-0.1432024422068933,0.7,0.9999999999993585,-72.13436007210237,0.869260919003994,175,2026-10-08 01:31:58.537244,96.6,0.5483549337147584,0.068372360417507,0.1145505181201756
0312,cdot_cos,Q,P-Q,176,35,42565,-0.000504047119947671,-0.0003579386887924338,-0.0462996373720138,0.011289315922749626,1138.0,5.199729556166215,0.5967503422619057,7.916792358959851,-0.028003368572139944,0.112,0.9999999999993335,8537.009902933118,0.8742281167100215,176,2026-10-08 01:31:58.649244,96.6,0.016346234410186386,0.43017459293943705,0.13871376696773993
0312,cdot_cos,R,Q-R,177,35,42599,0.08911858233326783,0.09283892944333637,0.0896226294532155,0.9998262198911855,1138.0,5.280552723084262,0.5979448479570383,7.955143272808429,-0.1468926445102618,0.034,0.9999999999993305,-99.53010389366678,0.8791952316753866,177,2026-10-08 01:31:58.683244,96.6,0.44514212352804333,1.4078022209801953,2.3771519681778535
0312,cdot_cos,S,R-S,178,35,42642,-0.0004095204784419616,-0.0007214207105759189,-0.0895281028117098,0.0001753739299738703,1138.0,5.295460107192868,0.597945057377104,7.977586561423884,-0.02734101541724748,0.043,0.9999999999993098,570869.9817013493,0.8841623574195592,178,2026-10-08 01:31:58.726244,96.6,0.012618249267548584,0.3692762888030627,0.34668335136293627
0312,cdot_cos,T,S-T,179,35,42892,-0.036379677938983807,0.03397312173279912,-0.03597015746054184,0.030040227156077265,1138.0,5.312310483921325,0.597980928922321,8.000444049462443,-0.030996471057373676,0.25,0.9999999999992893,-101.90404728908894,0.8891297101006878,179,2026-10-08 01:31:58.976243,96.6,0.8887570647510052,0.19652491836547448,0.06740150691382851
0312,cdot_cos,P,T-P,180,36,43591,0.03859296756556806,-0.0009721315481454119,0.07497264550455188,0.9992848891000363,1158.0,5.393722566375605,0.5991735920440477,8.038761868817346,-0.15099788957376112,0.699,0.9999999999992877,-100.61635706707433,0.8940975630609347,180,2026-10-08 01:31:59.675244,96.6,0.45170657143019216,0.0699066548133206,0.11646935973430632
0312,cdot_cos,Q,P-Q,181,36,43702,-0.001554393288367746,-0.0010591113341129207,-0.04014736085393581,0.020268014272838523,1158.0,5.4100399873503475,0.5991977701563499,8.061386401145558,-0.03054016638380356,0.111,0.9999999999992607,4982.097927439488,0.8990647622703726,181,2026-10-08 01:31:59.786243,96.6,0.01936594325806098,0.4425077908257256,0.14700379256524407
0312,cdot_cos,R,Q-R,182,36,43735,0.08512996443622237,0.08351703900349786,0.08668435772459011,0.9997691955602757,1158.0,5.4919592959389165,0.6003898128876454,8.099706304427091,-0.15456342334383455,0.033,0.9999999999992581,-104.0426267481591,0.9040318745375719,182,2026-10-08 01:31:59.819244,96.6,0.44824732587744104,1.469645682906283,2.4824032905626967
0312,cdot_cos,S,R-S,183,36,43780,-0.005867968368278343,-0.0378594480085932,-0.0909979328045007,0.00015216387629464264,1158.0,5.507036602422162,0.6003899942252733,8.121930203735516,-0.028700611247132173,0.045,0.9999999999992354,694079.9521027232,0.9089990015357052,183,2026-10-08 01:31:59.864243,96.6,0.012458272270226044,0.4940803185081401,0.3350512551832373
0312,cdot_cos,T,S-T,184,36,44031,-0.0193858985278073,0.019057086941242442,-0.013517930159528957,0.2131851281754107,1158.0,5.536426524604649,0.6006440254099938,8.147536876163668,-0.0561597994146749,0.251,0.9999999999992176,-108.09376887230772,0.9139663662888065,184,2026-10-08 01:32:00.115244,96.6,0.6132715814002172,0.2222442731606535,0.11709132343620289
0312,cdot_cos,P,T-P,185,37,44749,0.03343605953533973,-0.0014665377419016054,0.05282195806314703,0.9939558453250663,1158.0,5.61860322754881,0.6018277055171601,8.18574679524477,-0.15845541763558868,0.718,0.9999999999992155,-86.42167558750921,0.9189342799001755,185,2026-10-08 01:32:00.833244,96.6,0.5243584263193288,0.06939815004263168,0.11445223251275924
0312,cdot_cos,Q,P-Q,186,37,44859,-0.0011656211897743635,-0.0007873157530528015,-0.03460168072511409,0.0341408844111706,1158.0,5.636082268065868,0.6018683420845976,8.208395137636005,-0.0340035053126257,0.11,0.9999999999991872,3062.5596641367133,0.9239014809915223,186,2026-10-08 01:32:00.943244,96.6,0.025733206776935254,0.45685992889685373,0.15890036833689047
0312,cdot_cos,R,Q-R,187,37,44892,0.0806681248366845,0.07805017966596414,0.08183374602645886,0.999631293137796,1158.0,5.719112411906118,0.6030575398503659,8.246693190721613,-0.16280251385236766,0.033,0.9999999999991843,-108.30747605426919,0.9288685916441387,187,2026-10-08 01:32:00.976243,96.6,0.45332930051348713,1.4896306617108404,2.5160649648560565
0312,cdot_cos,S,R-S,188,37,44941,-0.0070848459465047905,-0.05988419236109226,-0.08775297078318928,0.00020817215101231757,1158.0,5.734397891738784,0.6030577873732899,8.268717153582903,-0.03023071691779431,0.049,0.9999999999991599,535594.0162104189,0.9338357226211492,188,2026-10-08 01:32:01.025243,96.6,0.012458723673496893,0.6778048659813576,0.31194856801358356
0312,cdot_cos,T,S-T,189,37,45191,-0.006013548785421555,0.005785611991383926,0.0010712971610832359,0.5258487613505721,1158.0,5.785537288772291,0.6036828686206037,8.299272695290123,-0.10167209576268943,0.25,0.9999999999991483,-114.29134876769588,0.9388030990184755,189,2026-10-08 01:32:01.275244,96.6,0.49526388173304936,0.2658038183666971,0.2045575881340298
0312,cdot_cos,P,T-P,190,38,45907,0.030305122975856205,-0.0003666406501677003,0.03631867176127776,0.9709253716464632,1158.0,5.867299800922132,0.6048361257097513,8.337096117733669,-0.16426509125502273,0.716,0.9999999999991459,-54.27497136705004,0.9437710567196967,190,2026-10-08 01:32:01.991244,96.6,0.683144636242819,0.06890876111442232,0.11419345272324176
0312,cdot_cos,Q,P-Q,191,38,45996,-0.009093677747094523,-0.0038015232589766043,-0.039398800722950725,0.0217548379168802,1158.0,5.884214634688144,0.6048619526182477,8.359364327193939,-0.03426977223581389,0.089,0.9999999999991158,5033.328671038966,0.9487382354505184,191,2026-10-08 01:32:02.080243,96.6,0.02252129595708846,0.5680568775603063,0.19005431197765912
0312,cdot_cos,R,Q-R,192,38,46051,0.08129942426406649,0.07993205573091429,0.090393102011161,0.9998386823225088,1158.0,5.968413925127867,0.6060483073885778,8.397657535650735,-0.1718769860739812,0.055,0.9999999999991124,-115.99162179781564,0.953705372650042,192,2026-10-08 01:32:02.135243,96.6,0.44905291911923756,0.9067429379154229,1.5308961898131428
0312,cdot_cos,S,R-S,193,38,46100,-0.003089256604307683,-0.051953472351407425,-0.08438868086837417,0.00028809084191927205,1158.0,5.98395635785884,0.6060486490422831,8.419502779149033,-0.031993935145944286,0.049,0.9999999999990863,409429.33968665166,0.9586725033177618,193,2026-10-08 01:32:02.184243,96.6,0.012623766833304169,0.5955077294174264,0.31719250471374827
0312,cdot_cos,T,S-T,194,38,46349,-0.0074982935875492675,0.006953209907001906,-0.004409036983241584,0.3951026971002779,1158.0,6.0267736826107745,0.6065171129034316,8.447811721208769,-0.08853240896892274,0.249,0.9999999999990706,-120.68908300496248,0.9636398918243413,194,2026-10-08 01:32:02.433243,96.6,0.5280211457230006,0.25326364158394016,0.1719571275178077
0312,cdot_cos,P,T-P,195,39,47065,0.031495756046652904,-0.001528838426896371,0.03899404963420217,0.9773973296125512,1180.0,6.110081651367643,0.6076751466386493,8.485727603732059,-0.1738819182492566,0.716,0.9999999999990677,-73.70209233523516,0.9686078940110056,195,2026-10-08 01:32:03.149244,96.6,0.6121073977315442,0.07023305220735693,0.11635191167160347
0312,cdot_cos,Q,P-Q,196,39,47156,-0.007195350557195515,-0.0029099659831507414,-0.03869110660384842,0.02325828366222424,1180.0,6.12734741337171,0.6077026886777386,8.507844011188531,-0.03633514967748875,0.091,0.9999999999990354,4994.066275409138,0.9735750775395522,196,2026-10-08 01:32:03.240243,96.6,0.022697474035806724,0.563611794022479,0.18973364839634113
0312,cdot_cos,R,Q-R,197,39,47206,0.07907351926607849,0.07260107932019733,0.086268869823274,0.9997597458190997,1180.0,6.212658997879734,0.6088859360806191,8.546127762723533,-0.18084527428580455,0.05,0.9999999999990319,-122.13010081958569,0.9785422079349549,197,2026-10-08 01:32:03.290244,96.6,0.44974183360663084,1.010735295881231,1.7062316901604824
0312,cdot_cos,S,R-S,198,39,47258,-0.009263458819274761,-0.05260270569313546,-0.08833697808535325,0.00019675547224262932,1180.0,6.228420942959833,0.6088861688215055,8.567794256574523,-0.03368617628959145,0.052,0.999999999999004,632287.2629284902,0.983509342162437,198,2026-10-08 01:32:03.342243,96.6,0.012669841679391778,0.5557992887072952,0.303114328463442
0312,cdot_cos,T,S-T,199,39,47505,-0.014515999643502357,0.015732035099853537,-0.005252540824227596,0.37580429254154674,1180.0,6.2704621239052925,0.6093306149882354,8.59567253106492,-0.09023040765390711,0.247,0.9999999999989863,-127.22402755850409,0.9884767411146113,199,2026-10-08 01:32:03.589243,96.6,0.5343710015024992,0.25859640547075124,0.17020721030550495
0312,cdot_cos,P,T-P,200,40,48245,0.042779210084606445,-0.0004201719935223182,0.0572952097281088,0.9960681955623553,1160.0,6.356167567262384,0.6105077390659935,8.633889784985445,-0.18562234157182522,0.74,0.9999999999989835,-81.03812989671609,0.993444821651255,200,2026-10-08 01:32:04.329243,96.6,0.5981562328758749,0.06931626905519499,0.11581816669877217
0312,cdot_cos,Q,P-Q,201,40,48336,-0.0010074236284431058,-0.0005355577410816469,-0.04378663371304955,0.014346642061673269,1160.0,6.373050202106981,0.6105246841366461,8.655688242280881,-0.03686121454719466,0.091,0.9999999999989486,8779.020759197678,0.9984120073429161,201,2026-10-08 01:32:04.420243,96.6,0.017673149377232803,0.5675122905096434,0.18552345983073823
0312,cdot_cos,R,Q-R,202,40,48393,0.08103140550091631,0.08236734288134366,0.08203882912935942,0.9996385231062594,1160.0,6.459454804135139,0.6117047154185186,8.693964499349546,-0.18997508187429454,0.057,0.9999999999989443,-129.7540748954858,1.0033791469110218,202,2026-10-08 01:32:04.477243,96.6,0.44665528304381263,0.8982404868727073,1.5158702110203144
0312,cdot_cos,S,R-S,203,40,48436,-0.0009183219281132236,-0.0015619839354862053,-0.08194972742902953,0.00036460049552710695,1160.0,6.47544961761047,0.611705145576164,8.715463774690013,-0.035447916663262434,0.043,0.9999999999989142,359233.79920412996,1.0083462678408088,203,2026-10-08 01:32:04.520243,96.6,0.012787673990675583,0.45558148565612333,0.3719724064030399
0312,cdot_cos,T,S-T,204,40,48684,-0.02340557722932693,0.022256128470590643,-0.022487255301213704,0.10226854187171085,1160.0,6.4986348119015656,0.6118257956842614,8.73862728174549,-0.051533114998397175,0.248,0.9999999999988878,-133.32104370879824,1.013313680316615,204,2026-10-08 01:32:04.768243,96.6,0.731884002902022,0.22190470215189614,0.09348868665764472
0312,cdot_cos,P,T-P,205,41,49405,0.04048405042017475,-0.00020123377481923207,0.06388962764950168,0.997916744489267,1159.0,6.58551434987781,0.613002354790096,8.776865175278763,-0.1945260771528753,0.721,0.999999999998884,-121.53487355235498,1.0182817754532718,205,2026-10-08 01:32:05.489243,96.6,0.47946529249083014,0.07225612701573474,0.12049866570907711
0312,cdot_cos,Q,P-Q,206,41,49515,-0.0010304618293874572,-0.0007044705523006076,-0.04151451224956221,0.017805151498003366,1159.0,6.602828147058255,0.6130233354108052,8.798547663176484,-0.03907408832318462,0.11,0.9999999999988465,7409.31314589042,1.023248990337232,206,2026-10-08 01:32:05.599244,96.6,0.018715734713589595,0.476231993468817,0.15739815618586273
0312,cdot_cos,R,Q-R,207,41,49551,0.08698981934748871,0.0873857141527441,0.08802028117687617,0.9997971334225286,1159.0,6.69028538844095,0.6142007668209907,8.836817819096492,-0.1987186210597659,0.036,0.9999999999988424,-135.58711900800824,1.0282160985073687,207,2026-10-08 01:32:05.635243,96.6,0.447817377492555,1.439043796869667,2.4293678161859678
0312,cdot_cos,S,R-S,208,41,49610,-0.0019239436003100402,-0.003695702698415549,-0.08891376294779875,0.0001860945625497906,1159.0,6.706439300432871,0.6142009858551686,8.858140217805973,-0.0369906966698806,0.059,0.9999999999988101,738368.4406508731,1.0331832418222195,208,2026-10-08 01:32:05.694243,96.6,0.012624393856105174,0.3381916852356977,0.2737951185071386
0312,cdot_cos,T,S-T,209,41,49842,-0.02393787901997652,0.022909088514904263,-0.02201393541966648,0.10654332241637293,1159.0,6.730192007298762,0.6143263802535602,8.881221098231418,-0.05454652404082529,0.232,0.9999999999987814,-140.00487737985895,1.0381506421205446,209,2026-10-08 01:32:05.926244,96.6,0.7248065230671608,0.24047015184661985,0.10238235718056529
0312,cdot_cos,P,T-P,210,42,50564,0.03518001891808492,-0.0007812244301886467,0.05911789793806144,0.9967008602776749,1161.0,6.818017450889703,0.6154986939481767,8.919431227276078,-0.20312882991585196,0.722,0.999999999998778,-126.7427878368666,1.043118780551401,210,2026-10-08 01:32:06.648243,96.6,0.4812019081852404,0.0729405614800746,0.12164188863011145
0312,cdot_cos,Q,P-Q,211,42,50651,-0.006333410630996948,-0.0026657550333109644,-0.04151342954908187,0.017806980653741228,1161.0,6.83551817807599,0.6155196262669369,8.940947237566094,-0.040790763026029894,0.087,0.9999999999987385,7755.379074313445,1.048085963509817,211,2026-10-08 01:32:06.735244,96.6,0.018689840428800706,0.6090950702862463,0.20115778375042825
0312,cdot_cos,R,Q-R,212,42,50711,0.07863615401460958,0.07869417676545969,0.08496956464560652,0.999727625433548,1161.0,6.9239999931195095,0.6166941298792336,8.979210312058306,-0.2075949948467386,0.06,0.9999999999987337,-142.0210462312124,1.0530531067859366,212,2026-10-08 01:32:06.795244,96.6,0.44775549535867265,0.8734130106452372,1.4746969173919933
0312,cdot_cos,S,R-S,213,42,50770,-0.00802684340756953,-0.02170490308502217,-0.0866629974221791,0.0002312810642280859,1161.0,6.940327739353418,0.6166944014367564,9.000366744300331,-0.03859977465559318,0.059,0.9999999999986992,622318.3156463944,1.0580202497962323,213,2026-10-08 01:32:06.854244,96.6,0.012548676563979495,0.4240765311786963,0.27674146159167573
0312,cdot_cos,T,S-T,214,42,51006,-0.019958261229806262,0.018993011782539454,-0.011931417822236732,0.24001907013015947,1161.0,6.974041023798596,0.6169761793729042,9.025591680329947,-0.07996559477586462,0.236,0.9999999999986727,-146.80290687689845,1.0629876676255103,214,2026-10-08 01:32:07.090244,96.6,0.5961307705981349,0.25970658501047683,0.1428529001914292
0312,cdot_cos,P,T-P,215,43,51725,0.03915596764659838,0.0008506005632658554,0.05911422887640464,0.9966996946116558,1154.0,7.0629092474783635,0.6181454437495831,9.063799824141784,-0.21239889330305994,0.719,0.999999999998669,-113.2620655931913,1.0679558468598658,215,2026-10-08 01:32:07.809243,96.6,0.5360583900289719,0.07415792143446294,0.12359975477019161
0312,cdot_cos,Q,P-Q,216,43,51840,-0.001860837975116674,-0.0012615267321170248,-0.04101680562171505,0.01866573916543254,1154.0,7.080680114821353,0.6181673281987196,9.085176062601906,-0.042794890638106764,0.115,0.9999999999986275,7749.978151503079,1.0729230759570436,216,2026-10-08 01:32:07.924243,96.6,0.019002524161667936,0.4664799380710767,0.15452928124339074
0312,cdot_cos,R,Q-R,217,43,51874,0.08174005783892714,0.08552687412914735,0.08360089581404381,0.999689136748172,1154.0,7.170199633234711,0.619338700614745,9.123437699443535,-0.2169555088858637,0.034,0.9999999999986221,-148.6808258971041,1.0778901773952292,217,2026-10-08 01:32:07.958244,96.6,0.4480958671866103,1.5594802948065112,2.6329270121575794
0312,cdot_cos,S,R-S,218,43,51931,-0.001766008178016861,-0.04332968824700376,-0.083506066016944,0.0003137231184058573,1154.0,7.186724774868196,0.619339067998477,9.144440689266432,-0.04034762074108369,0.057,0.9999999999985856,480717.7693669595,1.0828573170854026,218,2026-10-08 01:32:08.015244,96.6,0.012561013408241319,0.5085172851737674,0.28991476549973794
0312,cdot_cos,T,S-T,219,43,52159,-0.008639309383310183,0.00800868452667015,-0.006873301205293322,0.3398504131894343,1154.0,7.228170603744521,0.6197369676280645,9.171278552310246,-0.10156129182947964,0.228,0.9999999999985609,-153.8419906343215,1.0878247346067114,219,2026-10-08 01:32:08.243244,96.6,0.5473173977808632,0.284206940330869,0.1817799512119492
0312,cdot_cos,P,T-P,220,44,52879,0.028375929342378713,-0.0006695009948004743,0.0370152387256889,0.9727658594224661,1140.0,7.316323139659072,0.6208749992517745,9.209073542074202,-0.21770296158978025,0.72,0.9999999999985565,-102.0548703046419,1.092792963666365,220,2026-10-08 01:32:08.963244,96.6,0.5865561595904593,0.07357159602186464,0.1224340776590998
0312,cdot_cos,Q,P-Q,221,44,52990,-0.014283015701006459,-0.0069953384777554145,-0.042658945043385174,0.01597141960963758,1140.0,7.334113702016006,0.6208936730424544,9.230257612652194,-0.04425507099953877,0.111,0.9999999999985123,9288.30645923041,1.0977601902495007,221,2026-10-08 01:32:09.074244,96.6,0.019855441144755997,0.48812595810518516,0.16027533654894788
0312,cdot_cos,R,Q-R,222,44,53024,0.07816025825070755,0.0797721118551659,0.092443273951714,0.9998676621731294,1140.0,7.4246871023584236,0.6220620036453685,9.268524739187612,-0.22669935253041748,0.034,0.9999999999985063,-156.15809521364756,1.1027272899585412,222,2026-10-08 01:32:09.108243,96.6,0.44718397576991614,1.57799214616148,2.6639235394828793
0312,cdot_cos,S,R-S,223,44,53071,-0.00393617204153744,-0.059210108270476715,-0.08209643029224499,0.0003594718443804408,1140.0,7.441417167954986,0.6220624234290492,9.289382590246895,-0.042178720685651414,0.047,0.9999999999984684,439561.2319535684,1.1076944127436574,223,2026-10-08 01:32:09.155244,96.6,0.012591506542215487,0.6706946894333025,0.3559588424800587
0312,cdot_cos,T,S-T,224,44,53317,-0.00818427180292346,0.007249138163993397,-0.00424809976138602,0.3988242597007054,1140.0,7.487732403165154,0.6225280491893377,9.317156340055229,-0.11720520777355006,0.246,0.9999999999984444,-161.13044742500645,1.1126618735806786,224,2026-10-08 01:32:09.401243,96.6,0.527224251881735,0.2760039771818132,0.1882733138624702
0312,cdot_cos,P,T-P,225,45,54019,0.030560978468275216,0.004372450364845961,0.03874525027119868,0.9768602385217257,1181.0,7.577211124728438,0.6236675735154904,9.355023398545072,-0.2282214095403265,0.702,0.9999999999984395,-97.42328374997592,1.1176301218958684,225,2026-10-08 01:32:10.103244,96.6,0.614810747802152,0.07822922183716095,0.12746256632946495
0312,cdot_cos,Q,P-Q,226,45,54163,-0.0005195331843925471,-0.0005013050820009769,-0.031080511652667762,0.04731858451702975,1181.0,7.597566230624528,0.6237227368434628,9.376619077577583,-0.05229253972257772,0.144,0.9999999999983944,3189.2359704219402,1.1225974098960008,226,2026-10-08 01:32:10.247243,96.6,0.03458550473471547,0.388202417175758,0.14135490205617762
0312,cdot_cos,R,Q-R,227,45,54196,0.061830095517563126,0.08313171395926673,0.06234962870195567,0.9975833999323261,1181.0,7.689013420875057,0.6248849565748565,9.414851573482132,-0.23636845851424865,0.033,0.9999999999983881,-158.3830611539572,1.1275645059930108,227,2026-10-08 01:32:10.280244,96.6,0.4589716454674474,1.644139408509947,2.771126977288749
0312,cdot_cos,S,R-S,228,45,54248,-0.002583457194302183,-0.0200142814165406,-0.0644135527118653,0.001980646835802521,1181.0,7.7060794315861845,0.6248872626719922,9.435601145077834,-0.044424479762495174,0.052,0.9999999999983473,83233.25838303666,1.1325316367772091,228,2026-10-08 01:32:10.332243,96.6,0.013290837450816132,0.37895167269443353,0.3281925136755344
0312,cdot_cos,T,S-T,229,45,54475,-0.02893978029008835,0.02315955711345882,-0.026356323095786168,0.0726942660624121,1181.0,7.728424394835278,0.6249718977864472,9.457551370464296,-0.058309737246357546,0.227,0.9999999999983095,-164.0602434731152,1.1374990772626237,229,2026-10-08 01:32:10.559244,96.6,0.7881007753675726,0.2521000324512799,0.0984359614497502
0312,cdot_cos,P,T-P,230,46,55200,0.04213593894446531,0.0009670481943666033,0.07107571923455366,0.9989583576859615,1149.0,7.8205328463190655,0.6261341706688551,9.49580541556402,-0.24184003996052464,0.725,0.9999999999983051,-157.90637938136018,1.142467409879519,230,2026-10-08 01:32:11.284243,96.6,0.4681852155477016,0.07597712652022819,0.1270461399776383
0312,cdot_cos,Q,P-Q,231,46,55291,-0.0017453618864156414,-0.0008991678713041987,-0.04388130083088095,0.01421789918508836,1149.0,7.838591228289609,0.6261507025119669,9.516677881071828,-0.047749218077643776,0.091,0.9999999999982554,11740.422442339424,1.1474346076185409,231,2026-10-08 01:32:11.375243,96.6,0.01716649403071531,0.6078963337747627,0.19844375791805607
0312,cdot_cos,R,Q-R,232,46,55351,0.08045254980910108,0.08746279165124168,0.08219791169551671,0.9996440336305912,1149.0,7.931169979066072,0.6273122969174322,9.554947396790128,-0.24621219365910552,0.06,0.9999999999982498,-170.8539354594861,1.152401750828472,232,2026-10-08 01:32:11.435244,96.6,0.44661213350174883,0.9139581596416517,1.5429791796077286
0312,cdot_cos,S,R-S,233,46,55403,-0.004068750476084612,-0.019591479565256188,-0.08452130028518569,0.0002844246833924285,1149.0,7.948266207446607,0.627312627212892,9.575522855980285,-0.045783463096098764,0.052,0.9999999999982062,606816.4867930945,1.1573688807419678,233,2026-10-08 01:32:11.487243,96.6,0.012553524424265834,0.5784295013012611,0.32877362270258625
0312,cdot_cos,T,S-T,234,46,55640,-0.010821054388258458,0.009352486768792297,-0.006752303912173846,0.3424776044796428,1149.0,7.9913266472014035,0.6277102518332699,9.602131665134948,-0.11570185360184329,0.237,0.9999999999981771,-175.84019430010167,1.1623363516957252,234,2026-10-08 01:32:11.724244,96.6,0.5464579443055728,0.2861775725134595,0.1816896192185514
0312,cdot_cos,P,T-P,235,47,56349,0.038978378267991186,-0.0005065021587137491,0.04979943265624964,0.9919230018246739,1164.0,8.083914376817987,0.6288609216757959,9.640266735257729,-0.25058003984461885,0.709,0.9999999999981719,-117.21710368865385,1.1673047057726793,235,2026-10-08 01:32:12.433243,96.6,0.5837608479465208,0.0785262460462691,0.13058918140561795
0312,cdot_cos,Q,P-Q,236,47,56462,-0.0009527688521211156,-0.0006670136924879803,-0.0399311471201123,0.02068693942478348,1164.0,8.102676864095013,0.6288849038370767,9.661125142298628,-0.05112933131088848,0.113,0.9999999999981204,8316.627771699124,1.1722719473746184,236,2026-10-08 01:32:12.546243,96.6,0.02022358325019894,0.4971330479969531,0.16603971041616328
0312,cdot_cos,R,Q-R,237,47,56496,0.0812025149093531,0.08159954619375073,0.08215528376147421,0.9996425653143267,1164.0,8.196266445665298,0.6300430205563123,9.699401002491726,-0.2564794769935361,0.034,0.999999999998114,-177.31385988295372,1.1772390413372007,237,2026-10-08 01:32:12.580243,96.6,0.44903725355607094,1.630600827730621,2.7526347520672045
0312,cdot_cos,S,R-S,238,47,56545,-0.005377278010445741,-0.014695749544148894,-0.08657979291979884,0.00023314705403321544,1164.0,8.213557720380695,0.6300432904904621,9.71984647710419,-0.04770861183775216,0.049,0.9999999999980689,773414.0541407658,1.1822061651551523,238,2026-10-08 01:32:12.629244,96.6,0.012576092922148318,0.4464126808464895,0.35288315745708704
0312,cdot_cos,T,S-T,239,47,56812,-0.025996343514263928,0.026351197288823618,-0.020619065503818187,0.12006637879893198,1164.0,8.240014888388254,0.6301822907312173,9.742393800299256,-0.07318159618034553,0.267,0.9999999999980278,-183.25856274922722,1.187173706627831,239,2026-10-08 01:32:12.896243,96.6,0.7060430239995317,0.22544304722089756,0.09909051688224234
0312,cdot_cos,P,T-P,240,48,57513,0.03359650147686509,-0.0004812797134315922,0.05959284499112902,0.9968483383733965,1139.0,8.333944307596655,0.6313355017454283,9.780619737543862,-0.2613747674503236,0.701,0.9999999999980229,-163.19057739727114,1.192142090874881,240,2026-10-08 01:32:13.597243,96.6,0.4867460384042759,0.08105747315727023,0.13399346534721912
0312,cdot_cos,Q,P-Q,241,48,57626,-0.002145855911251098,-0.0015021075127807254,-0.03574235738811619,0.030688092781563595,1139.0,8.353657465754747,0.6313709797567004,9.80152618167855,-0.05522920177662267,0.113,0.999999999997969,5810.516381329811,1.1971093359002016,241,2026-10-08 01:32:13.710243,96.6,0.023931814990358152,0.5055728605883281,0.17445272706276344
0312,cdot_cos,R,Q-R,242,48,57660,0.0767639709469668,0.08018904589311864,0.0789098268582179,0.9995110148217492,1139.0,8.448203774089617,0.6325257197380624,9.839803816861782,-0.2663491504506389,0.034,0.999999999997962,-182.82899361032943,1.2020764276720022,242,2026-10-08 01:32:13.744244,96.6,0.45264659701258664,1.6473820000111197,2.780773774554996
0312,cdot_cos,S,R-S,243,48,57704,-0.0018943277433675426,-0.05227710211703335,-0.07865829869033435,0.000501005847706148,1139.0,8.465679441755503,0.6325262981727432,9.860122025446179,-0.049559452294300275,0.044,0.9999999999979131,374786.82614420785,1.20704354048521,243,2026-10-08 01:32:13.788243,96.6,0.012596503075560268,0.7083580149344374,0.39717426513377874
0312,cdot_cos,T,S-T,244,48,57973,-0.008125674203797858,0.006878384664273122,-0.006231346460430316,0.3538981330667656,1139.0,8.510539279403847,0.6329347947130095,9.886770413430373,-0.1276277585634688,0.269,0.9999999999978816,-191.1113034599345,1.2120111017259192,244,2026-10-08 01:32:14.057244,96.6,0.5424347304487481,0.25924238200979727,0.16676519571875176
0312,cdot_cos,P,T-P,245,49,58652,0.04290383240764463,-0.0005719842528594109,0.05102950661144249,0.9928214279935375,1135.0,8.605151843276774,0.6340797654091342,9.924931273579917,-0.2710302545765706,0.679,0.9999999999978761,-125.24555999420889,1.2169794932841598,245,2026-10-08 01:32:14.736243,96.6,0.5891341085293695,0.08337810311052839,0.13934103663170355
0312,cdot_cos,Q,P-Q,246,49,58760,-0.0013529915174803643,-0.0009175183959586918,-0.04425682392512499,0.013718328609621588,1135.0,8.623766743427945,0.6340955754898954,9.94541416064088,-0.05367667822762312,0.108,0.9999999999978185,13747.784064670472,1.221946732686876,246,2026-10-08 01:32:14.844243,96.6,0.017434378647987657,0.5286090738938898,0.17236018658491523
0312,cdot_cos,R,Q-R,247,49,58795,0.09092089933546207,0.09113416747858187,0.09227389085294244,0.9998654792890682,1135.0,8.719331403237854,0.6352471192988439,9.98370587535178,-0.2770190375334741,0.035,0.9999999999978123,-193.95037997710202,1.2269138247505678,247,2026-10-08 01:32:14.879244,96.6,0.44653624986389945,1.6172179837727132,2.7304188517116956
0312,cdot_cos,S,R-S,248,49,58840,-0.004118340418454907,-0.011254925267521216,-0.09503923975391698,0.00010298846626665095,1135.0,8.736972002292035,0.6352472378310944,10.00389723643747,-0.05146968717585976,0.045,0.9999999999977615,1902852.1730042903,1.2318809386827143,248,2026-10-08 01:32:14.924243,96.6,0.01249810332971281,0.5348009347377669,0.3920133123151241
0312,cdot_cos,T,S-T,249,49,59092,-0.020940701671629234,0.019576804414624793,-0.016822361253174326,0.16451095159833562,1135.0,8.767463487364253,0.6354365570505925,10.027033484706841,-0.08919003946177004,0.252,0.9999999999977192,-199.24206525833628,1.236848481001221,249,2026-10-08 01:32:15.176243,96.6,0.655130301113005,0.25090095129010764,0.12099795663578745
0312,cdot_cos,P,T-P,250,50,59787,0.04296763048626491,-0.0008106942015606883,0.06390833215789414,0.9979204974119089,1145.0,8.863426081742249,0.6365840643163374,10.065291765041282,-0.2823450053067071,0.695,0.9999999999977144,-168.32570181554146,1.2418169520639817,250,2026-10-08 01:32:15.871244,96.6,0.5045392049194904,0.08264362252510996,0.13807567536402277
0312,cdot_cos,Q,P-Q,251,50,59896,-0.00017631232973786752,-0.00012024521512442374,-0.04314394281600278,0.015251553222878661,1145.0,8.882338122674156,0.636601590035378,10.08568053505697,-0.05600520106126389,0.109,0.9999999999976542,12914.722855109374,1.2467841970641438,251,2026-10-08 01:32:15.980243,96.6,0.0175727324915083,0.5294869165717268,0.17350496267804602
0312,cdot_cos,R,Q-R,252,50,59930,0.09140281067526854,0.09017493149015654,0.09157912300500641,0.9998561424738863,1145.0,8.978854229554885,0.6377497419869893,10.123977936901388,-0.287285291199475,0.034,0.9999999999976472,-201.43683056378524,1.2517512850604648,252,2026-10-08 01:32:16.014244,96.6,0.4470639131318506,1.6812334352865952,2.8387090259038064
0312,cdot_cos,S,R-S,253,50,59983,-0.0011704310543130042,-0.002095227724923036,-0.09257324172958153,0.0001306869425164181,1145.0,8.996661996273644,0.6377498919546747,10.144047667061757,-0.05334507003019959,0.053,0.9999999999975944,1559937.5330409457,1.2567184149277217,253,2026-10-08 01:32:16.067244,96.6,0.012457728579206304,0.3548521250550406,0.335995598467152
0312,cdot_cos,T,S-T,254,50,60230,-0.03875187646291178,0.03775420385714245,-0.03758144540859878,0.025821989189855954,1145.0,9.01646855481072,0.6377795230341511,10.164547657225404,-0.059454712304878074,0.247,0.9999999999975423,-206.1903373970768,1.2616859602268164,254,2026-10-08 01:32:16.314244,96.6,0.902342355907863,0.23647784739406663,0.08018849610151922
0312,cdot_cos,P,T-P,255,51,60932,0.04044617061576028,0.0004994112530880434,0.07919804707867206,0.9995244350184468,1130.0,9.113482052886313,0.638925684103107,10.202839845623707,-0.29269808036301176,0.702,0.9999999999975373,-203.49964274270923,1.2666544909316422,255,2026-10-08 01:32:17.016243,96.6,0.4507359520648161,0.08274871997382512,0.1381958662045494
0312,cdot_cos,Q,P-Q,256,51,61020,-0.0018740332102463377,-0.000970292345852038,-0.04232020382600662,0.016493924900141017,1130.0,9.13264775765397,0.6389445845706669,10.223128886209135,-0.05819385392020908,0.088,0.9999999999974746,12407.324088640207,1.271621693305197,256,2026-10-08 01:32:17.104243,96.6,0.017779524558573827,0.6624628626303762,0.21779209963246338
0312,cdot_cos,R,Q-R,257,51,61080,0.08317862031217559,0.08994439779540646,0.08505265352242192,0.9997298022783327,1130.0,9.23007551670926,0.6400893744761182,10.261428858343013,-0.2973029461646594,0.06,0.9999999999974682,-208.86722629702749,1.2765888362306075,257,2026-10-08 01:32:17.164243,96.6,0.4474185558177732,0.961568419427102,1.6237959842548242
0312,cdot_cos,S,R-S,258,51,61135,-0.0023744470857965327,-0.03189856616408301,-0.08555306739797212,0.0002574503185594136,1130.0,9.248035967985222,0.6400896690777694,10.281378077253159,-0.055151140899956104,0.055,0.9999999999974117,821963.5032274432,1.2815559695722591,258,2026-10-08 01:32:17.219244,96.6,0.012392121196697697,0.4716801073391705,0.32655365956295995
0312,cdot_cos,T,S-T,259,51,61365,-0.016699886738031924,0.014636279757153158,-0.014325439652235391,0.20039339227289246,1130.0,9.281960328516568,0.6403189481795087,10.304973847702497,-0.10443479442170625,0.23,0.9999999999973669,-214.95048239409766,1.28652349095524,259,2026-10-08 01:32:17.449243,96.6,0.6238106705789702,0.2861970918427929,0.14749721970150415
0312,cdot_cos,P,T-P,260,52,62062,0.04224082080369588,-0.0005054890911692713,0.0589407075417278,0.996644095330863,1147.0,9.379686630232907,0.6414583006116958,10.343220111953004,-0.30256149003436705,0.697,0.9999999999973614,-173.89412618564094,1.2914920604237983,260,2026-10-08 01:32:18.146244,96.6,0.5195297655110402,0.08384394857747665,0.14020990203204992
0312,cdot_cos,Q,P-Q,261,52,62154,-0.0017533137400013367,-0.0009933431032187207,-0.043994134543697216,0.01406593732215118,1147.0,9.39883879283357,0.6414743692480349,10.363352087395784,-0.05966550689846967,0.092,0.9999999999972964,15116.154103585495,1.296459274012114,261,2026-10-08 01:32:18.238244,96.6,0.017060976011037517,0.6387240658942984,0.20817568044199627
0312,cdot_cos,R,Q-R,262,52,62207,0.08678652033518595,0.08793280624740522,0.08853983407518728,0.9998070618580415,1147.0,9.497211858357458,0.6426157126610933,10.401660538969136,-0.30794853122865323,0.053,0.9999999999972898,-217.53577537620868,1.3014264010558274,262,2026-10-08 01:32:18.291244,96.6,0.4465301103106725,1.0989890175870618,1.856095575922401
0312,cdot_cos,S,R-S,263,52,62257,-0.003914081105661923,-0.03521278952581194,-0.09070060144084788,0.0001565970349517875,1147.0,9.5153316286978,0.6426158913003144,10.421495020429838,-0.05707213912738713,0.05,0.9999999999972315,1404374.641701369,1.3063935226634542,263,2026-10-08 01:32:18.341243,96.6,0.012329297693047506,0.5382600215259359,0.3623954068068258
0312,cdot_cos,T,S-T,264,52,62504,-0.017107616571975712,0.015994938878131217,-0.013193535466313789,0.21848866348189977,1147.0,9.551037860510052,0.6428650952294437,10.445338020326707,-0.11274789446673217,0.247,0.9999999999971856,-223.41443625656683,1.31136109653143,264,2026-10-08 01:32:18.588243,96.6,0.6102982572155672,0.27109495233438485,0.1445596429645842
0312,cdot_cos,P,T-P,265,53,63209,0.031711637745812926,-0.0002205042729035972,0.048819254317788635,0.9911279694757652,1132.0,9.649252535150985,0.6439945847015657,10.483489090435251,-0.3118653200280139,0.705,0.9999999999971801,-176.2897578737023,1.316329734931096,265,2026-10-08 01:32:19.293243,96.6,0.5280984871217018,0.08473340438376087,0.13931159523536712
0312,cdot_cos,Q,P-Q,266,53,63312,-0.0017786610673682153,-0.0012050912697034917,-0.03349029881318114,0.03786371420001256,1132.0,9.670511960691154,0.6440377025225488,10.503954557423453,-0.06792241282751522,0.103,0.999999999997113,5657.5889420788035,1.3212969766329419,266,2026-10-08 01:32:19.396243,96.6,0.027557141853306773,0.5852218688335509,0.20640218971037883
0312,cdot_cos,R,Q-R,267,53,63358,0.08063867668376434,0.08609699793376496,0.08241733775113255,0.9996514968853898,1132.0,9.769808240130697,0.6451752225658016,10.542267562802259,-0.3187660555507831,0.046,0.9999999999971064,-220.5179980881534,1.3262640865255126,267,2026-10-08 01:32:19.442244,96.6,0.45524442326537573,1.2782261488327005,2.158614770424836
0312,cdot_cos,S,R-S,268,53,63417,-0.004320112016153828,-0.023063264540437604,-0.08495878869991817,0.0002726581667628663,1132.0,9.788108766383763,0.6451755326049812,10.561996246431326,-0.05910472058409086,0.059,0.9999999999970453,837511.3601513737,1.3312312285908914,268,2026-10-08 01:32:19.501244,96.6,0.012360592389474326,0.36662624330490245,0.3101784110689152
0312,cdot_cos,T,S-T,269,53,63662,-0.029263314736539224,0.024265349474909048,-0.024943202720385395,0.08245012426316992,1132.0,9.813070136840675,0.6452692809201227,10.583220699862036,-0.08078575568651705,0.245,0.9999999999969897,-231.26853074314013,1.3361988119978445,269,2026-10-08 01:32:19.746243,96.6,0.7646194997805611,0.25454364115411104,0.1018831447220918
0312,cdot_cos,P,T-P,270,54,64341,0.042794174531552896,6.216849741321494e-05,0.07205748926809212,0.9990525168412787,1142.0,9.912835150549277,0.6464043460614095,10.62152506818818,-0.32446693471331256,0.679,0.9999999999969845,-214.6847525865677,1.3411674369349087,270,2026-10-08 01:32:20.425244,96.6,0.4718849529128497,0.08779136430976903,0.14692932799499545
0312,cdot_cos,Q,P-Q,271,54,64456,-0.0015493315393061906,-0.0011033164649579565,-0.04434350607085909,0.013605494186341544,1142.0,9.932290809573342,0.6464197924780433,10.641431347654882,-0.06365710813216663,0.115,0.999999999996914,16884.811070753836,1.3461347105592387,271,2026-10-08 01:32:20.540244,96.6,0.016620730496928488,0.52029083463276,0.16917964368751678
0312,cdot_cos,R,Q-R,272,54,64489,0.08586850901933434,0.09095060347565193,0.08741784055864052,0.9997849797700161,1142.0,10.032502042514812,0.6475540173539249,10.679753055206332,-0.329377406471289,0.033,0.9999999999969071,-234.27479328785765,1.3511017875025473,272,2026-10-08 01:32:20.573244,96.6,0.4463128794085963,1.7977586807671406,3.0367040285294054
0312,cdot_cos,S,R-S,273,54,64534,-0.002695929866027773,-0.005336004480744252,-0.08856443888536211,0.00019248019453784376,1142.0,10.050942882503973,0.6475542355571117,10.69937051731884,-0.060972204280111394,0.045,0.9999999999968435,1230070.037928323,1.3560688950796451,273,2026-10-08 01:32:20.618243,96.6,0.012251692700875593,0.671936622328949,0.4097964442035757
0312,cdot_cos,T,S-T,274,54,64800,-0.012088747966775172,0.01052998781032682,-0.009392818100747399,0.2875431877850057,1142.0,10.092976338524418,0.6478801371412665,10.72434312796839,-0.13933763884560402,0.266,0.999999999996798,-240.45736006079198,1.3610365449023407,274,2026-10-08 01:32:20.884243,96.6,0.5698318455343805,0.26747594431130783,0.15802051135505452
0312,cdot_cos,P,T-P,275,55,65483,0.04050136873148804,-0.0004011114358424616,0.05259011669826321,0.9938198000243353,1175.0,10.193240084877589,0.6490054714708222,10.762557038540647,-0.33422405371598524,0.683,0.9999999999967927,-173.1809025565913,1.3660052316499853,275,2026-10-08 01:32:21.567244,96.6,0.5581647526726902,0.08804211705168571,0.14679904297682467
0312,cdot_cos,Q,P-Q,276,55,65595,-0.0009204213217922436,-0.0006113786694389285,-0.04142179005328028,0.01796247044350565,1175.0,10.21324187041702,0.6490257957677841,10.782445941187751,-0.06706849418271578,0.112,0.9999999999967194,13144.639641637103,1.3709725024863355,276,2026-10-08 01:32:21.679244,96.6,0.018623626663144766,0.5407739715554654,0.1785873708877807
0312,cdot_cos,R,Q-R,277,55,65631,0.08342728581947462,0.0828731297349575,0.08434770714126687,0.9997107669474836,1175.0,10.314373454506013,0.6501561014265027,10.820773762461526,-0.34061302072012023,0.036,0.9999999999967131,-242.00934006426826,1.3759395848254825,277,2026-10-08 01:32:21.715244,96.6,0.44794055567951885,1.6631981977157653,2.8092106691386896
0312,cdot_cos,S,R-S,278,55,65689,-0.004122009895385933,-0.027547748978915737,-0.08754929571486054,0.0002123076202289044,1175.0,10.332992140652555,0.6501563412899078,10.840292219111193,-0.06307395015641924,0.058,0.9999999999966465,1157071.3356789427,1.3809067241257384,278,2026-10-08 01:32:21.773243,96.6,0.012274675458948843,0.45463579816591665,0.3210118301127978
0312,cdot_cos,T,S-T,279,55,65919,-0.019305732386107933,0.020074268431578793,-0.015183722490722,0.18743746728639005,1175.0,10.36711120709326,0.6503680769511762,10.86330832087836,-0.11584683740795468,0.23,0.9999999999965928,-249.2394853820224,1.3858742996481528,279,2026-10-08 01:32:22.003244,96.6,0.6341053548674405,0.2938884667091758,0.1483437671334959
0312,cdot_cos,P,T-P,280,56,66658,0.0314953995823414,-0.0009927249487741963,0.050801131968449334,0.9926624767373144,1140.0,10.468180835338776,0.6514884320137088,10.90150649947536,-0.34489599136044446,0.739,0.9999999999965877,-204.44336051350987,1.3908431799979086,280,2026-10-08 01:32:22.742244,96.6,0.5147310212890005,0.08330842456552748,0.1367653968139605
0312,cdot_cos,Q,P-Q,281,56,66768,-0.0012444543209056767,-0.0008640847211829995,-0.032739853903247074,0.04059494186288403,1140.0,10.490241058601109,0.6515342134167091,10.921724374586237,-0.07571994423576026,0.11,0.9999999999965123,5879.593666503905,1.3958104495017227,281,2026-10-08 01:32:22.852243,96.6,0.028584528643968453,0.5640025578253908,0.20054748420302557
0312,cdot_cos,R,Q-R,282,56,66802,0.07742499815385069,0.07714922122206787,0.07866945247475637,0.9994995334031185,1140.0,10.592261398060362,0.6526605261813199,10.96005482441095,-0.3517178116046325,0.034,0.9999999999965055,-245.0454936149658,1.4007775243220664,282,2026-10-08 01:32:22.886244,96.6,0.4562502010916231,1.7766055813960355,3.0005982193897984
0312,cdot_cos,S,R-S,283,56,66853,-0.006573268161698343,-0.05440787409807692,-0.08399826631554903,0.0002991600836803847,1140.0,10.61105023813604,0.6526608630429696,10.979475983055847,-0.06514626182436203,0.051,0.9999999999964364,850709.9280895737,1.4057446448642337,283,2026-10-08 01:32:22.937243,96.6,0.012290916810297791,0.6785294972045267,0.3684086289348485
0312,cdot_cos,T,S-T,284,56,67097,-0.011703373554892328,0.010774815305805882,-0.005130105393193985,0.3785827265565435,1140.0,10.661471406775224,0.6530870339865024,11.006039181732575,-0.17529420602370016,0.244,0.9999999999963928,-258.45953571177205,1.410712271684615,284,2026-10-08 01:32:23.181243,96.6,0.5334657341480488,0.31185371919138166,0.20664413376714935
0312,cdot_cos,P,T-P,285,57,67798,0.03576952749279173,-0.00025412832701166417,0.04747290104768406,0.9899081324932001,1136.0,10.763234853101434,0.6542002139025297,11.044191818198588,-0.355783681194638,0.701,0.9999999999963871,-162.13863776402044,1.4156811124768802,285,2026-10-08 01:32:23.882244,96.6,0.6021184075163984,0.08762587304135133,0.1451689676550782
0312,cdot_cos,Q,P-Q,286,57,67910,-0.0015743721285836141,-0.0011009103721270734,-0.03734389962137535,0.02640554800526387,1136.0,10.784322880779198,0.6542298846397768,11.064053212551427,-0.07414746565058321,0.112,0.9999999999963086,9492.053170039117,1.4206483920746076,286,2026-10-08 01:32:23.994244,96.6,0.022408261280217067,0.5538185529495825,0.18828596140861376
0312,cdot_cos,R,Q-R,287,57,67943,0.08537206555497384,0.08815874401308221,0.08694643768355746,0.999774964173913,1136.0,10.88729020896214,0.6553524024241685,11.102395773669668,-0.36356723923478074,0.033,0.9999999999963015,-257.8309026444943,1.4256154621678585,287,2026-10-08 01:32:24.027244,96.6,0.4511047516001776,1.8474559517059996,3.1202220661497497
0312,cdot_cos,S,R-S,288,57,67989,-0.004715068292186896,-0.010945439835628755,-0.09008713384716074,0.00016615602532253605,1136.0,10.906254973591794,0.6553525888356788,11.121724236330822,-0.06733950551505916,0.046,0.9999999999962296,1589106.451533585,1.4305825687151943,288,2026-10-08 01:32:24.073244,96.6,0.012289395447753986,0.5970580020366202,0.41227749194900526
0312,cdot_cos,T,S-T,289,57,68236,-0.01894507128147537,0.01731373973124899,-0.014230002989288476,0.20187471707801016,1136.0,10.94221954514951,0.6555790380513875,11.144865666099673,-0.12798374674485552,0.247,0.9999999999961723,-267.80503981877547,1.4355502196370393,289,2026-10-08 01:32:24.320243,96.6,0.6226048055121948,0.2816483685395503,0.14560555286524218
0312,cdot_cos,P,T-P,290,58,68934,0.03831998438552763,-0.0008557846422317642,0.057265055667003004,0.9960567712093108,1159.0,11.045389267650332,0.6566953105164565,11.183140431964315,-0.3689077790008266,0.698,0.9999999999961671,-215.82905589370438,1.4405191057671567,290,2026-10-08 01:32:25.018244,96.6,0.5204435377993367,0.08883578335859618,0.1478076253593453
0312,cdot_cos,Q,P-Q,291,58,69044,-0.0012489647926978713,-0.0008467188144275425,-0.0395689491782255,0.021407782738372926,1159.0,11.06623429871811,0.6567192830887713,11.202814889699793,-0.07495434749804626,0.11,0.9999999999960851,12262.072990866554,1.4454863841405898,291,2026-10-08 01:32:25.128243,96.6,0.019806081025542308,0.5668099667789018,0.18950028243433856
0312,cdot_cos,R,Q-R,292,58,69078,0.0835418681216234,0.08160017752362989,0.08479083291432127,0.9997228832373247,1159.0,11.17008746034169,0.6578378876940266,11.241161957099171,-0.3749534379629794,0.034,0.9999999999960778,-268.190466099901,1.4504534546848282,292,2026-10-08 01:32:25.162244,96.6,0.4492854177348334,1.808514857175957,3.0545047536347396
0312,cdot_cos,S,R-S,293,58,69129,-0.0055933319574221025,-0.02394188506094201,-0.0891352000790455,0.000182156836845218,1159.0,11.189213309006075,0.6578380913526247,11.260397521871756,-0.0694343145681312,0.051,0.9999999999960032,1500153.3264482268,1.4554205739314068,293,2026-10-08 01:32:25.213243,96.6,0.012275900801436522,0.5016836239369991,0.37501664047811645
0312,cdot_cos,T,S-T,294,58,69376,-0.023367325076753827,0.023160526664693135,-0.017773993119331723,0.15226215092401704,1159.0,11.221259189983265,0.6580083061495782,11.282515408496785,-0.1165774016315379,0.247,0.9999999999959398,-276.9623317548557,1.460388240227412,294,2026-10-08 01:32:25.460243,96.6,0.6673817778873322,0.27593890830472617,0.12974040881453427
0312,cdot_cos,P,T-P,295,59,70093,0.04510869363136211,-0.0007313501420450056,0.06847601870811593,0.9986613891940438,1159.0,11.32552712970861,0.6591237059741707,11.320844905166561,-0.38101583726716437,0.717,0.9999999999959347,-237.0795026189206,1.4653572322022541,295,2026-10-08 01:32:26.177243,96.6,0.49955614434230927,0.08673983141607997,0.14542251007718934
0312,cdot_cos,Q,P-Q,296,59,70182,-0.0015360634300579906,-0.0008277015604040034,-0.0466447570614201,0.01092319441427338,1159.0,11.345644108233923,0.6591358963243068,11.340227159182554,-0.07391582764293796,0.089,0.9999999999958485,25192.058160376055,1.4703244548729368,296,2026-10-08 01:32:26.266243,96.6,0.01569008990023315,0.7013262633519011,0.22603346657656082
0312,cdot_cos,R,Q-R,297,59,70241,0.08014808297833237,0.0820892582394319,0.08168414640839036,0.9996259281567985,1159.0,11.450363204585248,0.660250592119683,11.378577115704326,-0.3862744695044513,0.059,0.9999999999958415,-280.2187315653311,1.4752915942785332,297,2026-10-08 01:32:26.325243,96.6,0.4454615763748482,1.0508802245274125,1.7748999381580421
0312,cdot_cos,S,R-S,298,59,70287,-0.004422360545437685,-0.012226778860064876,-0.08457044352377005,0.00028307803323864423,1159.0,11.469647974728158,0.6602509075330643,11.397722314799644,-0.07152224636316304,0.046,0.9999999999957637,997903.8360448584,1.480258698000299,298,2026-10-08 01:32:26.371244,96.6,0.012268015716526722,0.6139235105084464,0.4192341335415259
0312,cdot_cos,T,S-T,299,59,70532,-0.0181880417484943,0.017550059048405748,-0.013765681203056615,0.2091982720147859,1159.0,11.506844167552025,0.6604839631573628,11.420859874605329,-0.13824483127614123,0.245,0.9999999999957017,-286.29467799287255,1.4852263739169853,299,2026-10-08 01:32:26.616243,96.6,0.6171515136997825,0.29063012348745665,0.15182119519945667
0312,cdot_cos,P,T-P,300,60,71252,0.05932763788664475,-0.000750651529600672,0.07751567963513906,0.9994405599858711,1160.0,11.612056735237012,0.6615963076752834,11.459208946731662,-0.3928319285482715,0.72,0.9999999999956966,-228.87432191246177,1.4901954302628018,300,2026-10-08 01:32:27.336244,96.6,0.5230482938874785,0.08668773938665078,0.14612856622914844
0312,cdot_cos,Q,P-Q,301,60,71365,-8.499583315390205e-05,-5.950067217608397e-05,-0.05941263371979866,0.003206829899269576,1160.0,11.631674512268802,0.6615998739065774,11.478354527963337,-0.0736420889759416,0.113,0.9999999999956062,89503.4038074938,1.4951627249700565,301,2026-10-08 01:32:27.449243,96.6,0.013110526364488926,0.5541457612493246,0.17360864629902867
0312,cdot_cos,R,Q-R,302,60,71399,0.09807893086338673,0.10013547256137477,0.09816392669654063,0.9999238428415881,1160.0,11.737293677279359,0.6627109660057783,11.516714505166648,-0.39797191202452414,0.034,0.9999999999955991,-291.90183539405933,1.500129790372295,302,2026-10-08 01:32:27.483244,96.6,0.44265855308553764,1.8388555433431175,3.1064460297222682
0312,cdot_cos,S,R-S,303,60,71448,-6.141197299487826e-06,-1.1000782526373047e-05,-0.09808507206068622,7.673944514827807e-05,1160.0,11.756716689216134,0.662711051208122,11.53576760051613,-0.07357742772236112,0.049,0.999999999995518,3807342.2640550826,1.5050969014582396,303,2026-10-08 01:32:27.532243,96.6,0.012168727851559737,0.426978390920119,0.3963879987096912
0312,cdot_cos,T,S-T,304,60,71691,-0.034322872370382215,0.03626921227254749,-0.034316731173082725,0.0350602981326548,1160.0,11.77913755958953,0.6627499768835423,11.555466515275514,-0.08508021122459644,0.243,0.99999999999544,-295.50633041134256,1.510064586016337,304,2026-10-08 01:32:27.775244,96.6,0.8735418128504088,0.264331243264035,0.09226695626912261
0312,cdot_cos,P,T-P,305,61,72412,0.0406362892340541,-0.0007322331150818154,0.07495916160443632,0.999283957696589,1177.0,11.885181673442455,0.6638585021002734,11.593816389383639,-0.40394477925078454,0.721,0.9999999999954347,-287.64755479940993,1.5150336966891698,305,2026-10-08 01:32:28.496243,96.6,0.4541277973006253,0.08810940878073291,0.14707921477520697
0312,cdot_cos,Q,P-Q,306,61,72518,-0.0009436683690563185,-0.0006270446630769134,-0.04157995760311042,0.017694927561212492,1177.0,11.906191327051348,0.6638781152218971,11.613151116135201,-0.08045777371269427,0.106,0.9999999999953422,16493.397213600314,1.5200009739184308,306,2026-10-08 01:32:28.602243,96.6,0.017942535234367934,0.6012045331220348,0.19820427932917567
0312,cdot_cos,R,Q-R,307,61,72559,0.08363459071465745,0.08225586718303457,0.08457825908371377,0.9997171355448021,1177.0,12.012637034464326,0.6649852860823215,11.651510594812539,-0.4091548480482108,0.041,0.9999999999953343,-296.88017096973397,1.524968057718774,307,2026-10-08 01:32:28.643244,96.6,0.44782346456920225,1.5367559132006716,2.5962367661702137
0312,cdot_cos,S,R-S,308,61,72604,-0.00323610400700101,-0.006811065234188109,-0.08687069472165847,0.00022668802525505836,1177.0,12.032205311933803,0.6649855369304993,11.6704759412083,-0.07561271463842469,0.045,0.9999999999952502,1329657.3901979665,1.5299351551206417,308,2026-10-08 01:32:28.688244,96.6,0.012140708988241945,0.5076803628696978,0.434850610432807
0312,cdot_cos,T,S-T,309,61,72849,-0.02914552216388739,0.030610788286717552,-0.02590941815688638,0.0756586401957768,1177.0,12.058328267122599,0.6650692539755556,11.690877750854266,-0.101119497812506,0.245,0.9999999999951732,-304.6784935724316,1.534902859934881,309,2026-10-08 01:32:28.933243,96.6,0.7770551398623292,0.2713435021410497,0.10662430689304686
0312,cdot_cos,P,T-P,310,62,73589,0.03929422530956291,-0.00019874912024988025,0.0684397474734503,0.9986566970528332,1163.0,12.165163627982917,0.6661733028197848,11.72921875441627,-0.4151487894222359,0.74,0.9999999999951678,-284.4342378972995,1.5398720820847795,310,2026-10-08 01:32:29.673243,96.6,0.4693409099023911,0.08650699815395019,0.14437210927069982
0312,cdot_cos,Q,P-Q,311,62,73701,-0.0020495307337957814,-0.0014063158875391015,-0.041343756043358694,0.01809592520775706,1163.0,12.186358624390445,0.6661932917305852,11.748475108306867,-0.08279407190001974,0.112,0.9999999999950716,16626.954857209657,1.5448393807232734,311,2026-10-08 01:32:29.785243,96.6,0.018056794029951202,0.573595614154178,0.18924103935293232
0312,cdot_cos,R,Q-R,312,62,73735,0.08304593901122921,0.08353005815218455,0.08509546974502499,0.9997309172208066,1163.0,12.293649045553453,0.6672966735230887,11.786837806151956,-0.4206222880885126,0.034,0.9999999999950631,-306.17526814717456,1.549806440465166,312,2026-10-08 01:32:29.819244,96.6,0.44791002724898266,1.867569813449651,3.155600622441396
0312,cdot_cos,S,R-S,313,62,73783,-0.0043619688496713115,-0.04574175190201537,-0.08740790786090052,0.00021522659617833717,1163.0,12.313353371705022,0.6672969108672199,11.805716015478053,-0.07764988006955605,0.048,0.9999999999949762,1445042.7166287082,1.5547735452351745,313,2026-10-08 01:32:29.867244,96.6,0.0120714948133715,0.7945423347628008,0.41050679482435015
0312,cdot_cos,T,S-T,314,62,74030,-0.0077274178908765855,0.007507247963578521,-0.003365449041205274,0.41943276516832334,1163.0,12.369925109690682,0.6677592847923941,11.832753194330465,-0.22346988500168607,0.247,0.9999999999949242,-315.3724658612235,1.5597412725829614,314,2026-10-08 01:32:30.114244,96.6,0.520728532440312,0.33065063783990645,0.2290353764601622
0312,cdot_cos,P,T-P,315,63,74752,0.037801374112488066,0.000554284063437701,0.045528792003364654,0.9878485549843405,1172.0,12.476694786797935,0.6688469906694486,11.870885270346825,-0.4238521548055691,0.722,0.9999999999949176,-184.2246824541488,1.5647105030264816,315,2026-10-08 01:32:30.836244,96.6,0.6232768094692173,0.08907656459962024,0.14788043920672259
0312,cdot_cos,Q,P-Q,316,63,74858,-0.0008376330872433373,-0.0005319341152268844,-0.0386390071997314,0.023372890264823303,1172.0,12.498551668972533,0.6688727044494827,11.890171113083518,-0.08721293199478625,0.106,0.9999999999948194,13091.782785938069,1.5696777877301749,316,2026-10-08 01:32:30.942244,96.6,0.02106865048826273,0.6133558095988407,0.20619700164715013
0312,cdot_cos,R,Q-R,317,63,74901,0.08427209078822445,0.08524151617876471,0.0851097238754678,0.9997312873796056,1172.0,12.60672621843289,0.6699716175236552,11.928535422495127,-0.4331531226255378,0.043,0.9999999999948108,-314.8021429185734,1.5746448739007528,317,2026-10-08 01:32:30.985244,96.6,0.4499334237175578,1.4891073157954504,2.5156871967524728
0312,cdot_cos,S,R-S,318,63,74955,-0.002619269793999358,-0.005968187803416762,-0.08689136058222381,0.00022623603662244249,1172.0,12.626614898130942,0.669971865994783,11.947339734779682,-0.08004473740686352,0.054,0.9999999999947207,1421124.4113873357,1.5796119968929474,318,2026-10-08 01:32:31.039244,96.6,0.012138319986424239,0.4082977049281548,0.3683088832972669
0312,cdot_cos,T,S-T,319,63,75205,-0.03326294908445105,0.033636484368369454,-0.03064367929045169,0.04925760295954905,1172.0,12.65082237056513,0.67002596250822,11.96707629643246,-0.09758840730803858,0.25,0.999999999994635,-324.3031535036011,1.584579749869183,319,2026-10-08 01:32:31.289243,96.6,0.8354606170076823,0.2654489398443758,0.09682988973675322
0312,cdot_cos,P,T-P,320,64,75924,0.0326289498665557,-0.0005539426287610517,0.06589189895100675,0.9982824843656205,1145.0,12.75933936805313,0.671121341740075,12.005413772060084,-0.4390212600657098,0.719,0.9999999999946293,-311.70287223673796,1.5895490240635437,320,2026-10-08 01:32:32.008243,96.6,0.4594552595555853,0.09137736150006737,0.1509276738358826
0312,cdot_cos,Q,P-Q,321,64,76034,-0.0022593029464738853,-0.0015494609016557046,-0.03488825281302958,0.033239713441040396,1145.0,12.782223016402227,0.6711577825714282,12.024811505352096,-0.09305277184586055,0.11,0.999999999994528,9493.979016731097,1.5945163247506242,321,2026-10-08 01:32:32.118243,96.6,0.02428293247491474,0.5994124572198974,0.20803316680997533
0312,cdot_cos,R,Q-R,322,64,76069,0.07755632504703752,0.07838788474873581,0.07981562799351141,0.9995519643712268,1145.0,12.891210108641507,0.6722526318059076,12.063173564331462,-0.4447073522299343,0.035,0.9999999999945199,-321.18995868075524,1.5994833824878634,322,2026-10-08 01:32:32.153243,96.6,0.45350225335192085,1.8431337101720653,3.11391692112229
0312,cdot_cos,S,R-S,323,64,76113,-0.005042278422024616,-0.05711574244138257,-0.08259860346906214,0.0003424559198602399,1145.0,12.911242376114272,0.6722530065914329,12.081897372745889,-0.08214991309966195,0.044,0.999999999994426,967373.1095962273,1.6044504713315526,323,2026-10-08 01:32:32.197243,96.6,0.012114361426134227,0.8530542093899999,0.45527880619919164
0312,cdot_cos,T,S-T,324,64,76349,-0.00957740043133746,0.00863435331304624,-0.004535122009312845,0.392195513861302,1145.0,12.966278879067827,0.6726820831407108,12.108308875911417,-0.22620225487013038,0.236,0.999999999994368,-335.7264385875294,1.609418195176754,324,2026-10-08 01:32:32.433243,96.6,0.5289666871862241,0.34574080236369176,0.2332055209896422
0312,cdot_cos,P,T-P,325,65,77069,0.03339048851576162,0.0004751259979646297,0.042967888947099075,0.984490905587524,1172.0,13.074432034829934,0.6737578804145276,12.146374574382637,-0.4465596515339215,0.72,0.9999999999943612,-204.83171135207576,1.6143875366660183,325,2026-10-08 01:32:33.153243,96.6,0.6105130068917474,0.09094137010603835,0.15021271633625963
0312,cdot_cos,Q,P-Q,326,65,77185,-0.0025623058877209696,-0.0016915476325223733,-0.035952794403482584,0.030089137714366963,1172.0,13.097234452020523,0.6737907314365634,12.16564115471344,-0.09461892052294729,0.116,0.9999999999942568,10713.235363778107,1.6193548624756342,326,2026-10-08 01:32:33.269243,96.6,0.024244638521059052,0.5718660200766543,0.19657256198783005
0312,cdot_cos,R,Q-R,327,65,77219,0.0826813692523099,0.08495926059820398,0.08524367514003087,0.9997347411224968,1172.0,13.207104951487718,0.6748812601767317,12.20400604307015,-0.457426567741885,0.034,0.9999999999942488,-332.6896704831146,1.6243219145997476,327,2026-10-08 01:32:33.303244,96.6,0.45241766586469373,1.9127427744922578,3.2314852784469266
0312,cdot_cos,S,R-S,328,65,77272,-0.005904564305469845,-0.03807924727867916,-0.08858593355777974,0.00019208102280894305,1172.0,13.227300960685996,0.6748814695206236,12.222656104510262,-0.08449847743202243,0.053,0.9999999999941519,1781413.7634788,1.6292890325923461,328,2026-10-08 01:32:33.356243,96.6,0.012113561064570275,0.6504099270130153,0.3810567773260004
0312,cdot_cos,T,S-T,329,65,77522,-0.013830018355190531,0.013176277736254578,-0.007925454049720686,0.31743192902502426,1172.0,13.276048403751098,0.6752273344634888,12.24754741313966,-0.20437411616137605,0.25,0.9999999999940851,-346.59667365031055,1.6342568207092596,329,2026-10-08 01:32:33.606244,96.6,0.5562430141685136,0.31688740873831733,0.19498977226040637
0312,cdot_cos,P,T-P,330,66,78241,0.03640787670944922,-0.00011703324079192472,0.05023789506463975,0.9922553689212608,1155.0,13.385744665055155,0.6763072348262638,12.285764201917358,-0.46185080556154073,0.719,0.9999999999940788,-238.4263384619531,1.6392262207007378,330,2026-10-08 01:32:34.325243,96.6,0.5726452394651057,0.09195838993125087,0.1525678182253923
0312,cdot_cos,Q,P-Q,331,66,78353,-0.0014724020628423345,-0.0010188559504744552,-0.037880278772291553,0.02510568074940341,1155.0,13.408284568472236,0.6763345337806975,12.304862676566954,-0.09536574706525376,0.112,0.9999999999939698,13424.875278117632,1.6441935377571664,331,2026-10-08 01:32:34.437243,96.6,0.021430454761916528,0.5949310703654406,0.20124913765251495
0312,cdot_cos,R,Q-R,332,66,78387,0.08551301632160643,0.08553455300499807,0.08698541838444877,0.9997758097713141,1155.0,13.519009224817014,0.6774206744044463,12.343226513509395,-0.4699757838475809,0.034,0.9999999999939612,-344.90012489300847,1.6491605872245167,332,2026-10-08 01:32:34.471244,96.6,0.4506412546825204,1.9276710678723026,3.256607539552265
0312,cdot_cos,S,R-S,333,66,78431,-0.006469089849672469,-0.018520831176813565,-0.0919821061712789,0.000138365775599109,1155.0,13.539366201087553,0.6774208245906848,12.361804427773064,-0.0868269211948037,0.044,0.9999999999938609,2551158.2593596675,1.6541276730176775,333,2026-10-08 01:32:34.515244,96.6,0.012121327574248298,0.654795051997039,0.4626585516031719
0312,cdot_cos,T,S-T,334,66,78681,-0.021700940958955865,0.02001154901631108,-0.015231851109283396,0.18673039747562947,1155.0,13.576631189392753,0.6776234738094414,12.384055291531913,-0.15922907197443892,0.25,0.9999999999937795,-357.2782131796355,1.659095478240686,334,2026-10-08 01:32:34.765243,96.6,0.634635573782513,0.2963630814960858,0.14905995322079946
0312,cdot_cos,P,T-P,335,67,79396,0.037153300101710474,0.0004450544323059835,0.058854241060666335,0.9966160424530395,1122.0,13.687547741835596,0.6787039213126516,12.42235613784367,-0.47568341346204224,0.715,0.999999999993773,-292.8919179760088,1.664064922787718,335,2026-10-08 01:32:35.480243,96.6,0.5141385436080268,0.09328114186531103,0.15512804537460567
0312,cdot_cos,Q,P-Q,336,67,79508,-0.0018489257984175488,-0.0013605353981718759,-0.03900222590012802,0.022585228266768,1122.0,13.710023222260148,0.6787283842214112,12.441332688473292,-0.09685762788978934,0.112,0.999999999993661,15485.721231835443,1.6690322440899392,336,2026-10-08 01:32:35.592243,96.6,0.020017245719011086,0.5983036958279017,0.20067393236206893
