record_id,input,event,transition,event_index,k,peak,value_cos,value_sin,value_return,x_input,rr,knowledge,decision,decision_norm,entropy,delta_t,cosine_similarity,delta_h_over_delta_d,frobenius_norm,matrix_size,timestamp,scale,P,zdot,zdot_back
0465,cdot_cos,Q,P-Q,1,0,1546,-0.011149021779776001,-0.014090636501523781,-0.0402235384729711,0.2678440828943075,1058.0,0.0013304194677391634,0.5003326048178751,0.5003326048178751,,,1.0,,0.004967141530112327,1,2026-10-07 19:16:17.630244,25.0,,,
0465,cdot_cos,R,Q-R,2,0,1574,0.10776044078776338,0.1908527276075347,0.11890946256753938,0.9513271469557341,1058.0,0.00856418890219727,0.5015139443853314,0.7092478218689617,-1.2907550767963077e-05,,0.9999999999999999,,0.009934283060224654,2,2026-10-07 19:16:17.658243,25.0,,,
0465,cdot_cos,S,R-S,3,0,1593,-0.001736333467781123,-0.004160701455241981,-0.10949677425554451,0.06080110231622397,1058.0,0.011012039082309013,0.5015894455781246,0.8687784042816161,-8.641597033196267e-06,0.019,1.0,0.056501805825123534,0.014901424593137121,3,2026-10-07 19:16:17.677243,25.0,0.6103923099663654,0.10952498535228652,0.1288342200058812
0465,cdot_cos,T,S-T,4,0,1896,-0.27567128491743764,0.09895348698189606,-0.2739349514496565,0.001060055086742025,1058.0,0.012726138345584158,0.5015907619257226,1.0031815238517696,-7.337759879492004e-06,0.303,1.0,0.9904960936235168,0.01986856617534667,4,2026-10-07 19:16:17.980243,25.0,0.8372029882713915,0.023627264588429227,0.005657093278135792
0465,cdot_cos,P,T-P,5,1,2453,0.032867877106327256,0.0004485112422260114,0.3085391620237649,0.9995534350552595,942.0,0.025330161422897124,0.5028319678538257,1.1243664613887208,-8.649806028186473e-05,0.557,0.9999999999999999,-0.06377692743004669,0.024835707900310172,5,2026-10-07 19:16:18.537244,25.0,0.40044914323726355,0.016298349277269347,0.022628407679197424
0465,cdot_cos,Q,P-Q,6,1,2601,-0.00946293628750097,-0.01457348282230189,-0.04233081339382823,0.25764013468372965,942.0,0.030882499440462213,0.5031518901403859,1.232465393984135,-5.628301249526862e-05,0.148,1.0,0.09444496071676843,0.029802849503199568,6,2026-10-07 19:16:18.685244,25.0,0.5845918667399218,0.06857070858981602,0.03751579741598033
0465,cdot_cos,R,Q-R,7,1,2626,0.09631900118208654,0.22252773091728215,0.10578193746958751,0.933674190302352,942.0,0.045627091165482664,0.5043112480043271,1.3342821456299507,-0.0002034233919984795,0.025,0.9999999999999999,-0.1269154107455672,0.03476999101845641,7,2026-10-07 19:16:18.710243,25.0,0.485138508842099,0.38022352436289447,0.589783669000818
0465,cdot_cos,S,R-S,8,1,2647,-0.001672606761978838,-0.005937004114782611,-0.09799160794406538,0.07945389290829104,942.0,0.04989367565860694,0.5044099051825163,1.4266866578492126,-7.34901135003045e-05,0.021,0.9999999999999998,1.317017989801863,0.03973713254763506,8,2026-10-07 19:16:18.731244,25.0,0.170667591012019,0.17369780302168397,0.20317069014877495
0465,cdot_cos,T,S-T,9,1,2934,-0.35515159313411326,0.024110828017665703,-0.35347898637213443,0.00014524045040677995,942.0,0.05292239889239339,0.5044100855259542,1.5132302566226354,-5.6152794263564194e-05,0.287,0.9999999999999998,96.13501568317042,0.04470427457659314,9,2026-10-07 19:16:19.018244,25.0,0.7343624548362755,0.037626728755991906,0.010553042626433633
0465,cdot_cos,P,T-P,10,2,3395,0.025051182461565995,0.00019167487496688803,0.3802027755956793,0.9999255322089122,1117.0,0.07149141796454629,0.5056516520899842,1.5990109233761682,-0.00041656870204222554,0.461,1.0000000000000002,-0.29029124834740955,0.04967141715685256,10,2026-10-07 19:16:19.479244,25.0,0.42096667692547446,0.02885805648165861,0.04027986783547267
0465,cdot_cos,Q,P-Q,11,2,3547,-0.013502197377092287,-0.016064221789455303,-0.03855337983865828,0.2761111221165124,1117.0,0.07952952696848263,0.5059944763275906,1.678193824285323,-0.00021888358780573043,0.152,1.0000000000000002,0.5766369251389639,0.05463855903195019,11,2026-10-07 19:16:19.631244,25.0,0.4052902361031956,0.09179845702761717,0.05288229607852855
0465,cdot_cos,R,Q-R,12,2,3576,0.10359146330737252,0.1713312273000744,0.1170936606844648,0.9491815937877714,1117.0,0.09939814890094191,0.507172951249228,1.7568986399814956,-0.0006409740237615636,0.029,0.9999999999999997,-0.3581666679587755,0.05960570050530542,12,2026-10-07 19:16:19.660243,25.0,0.5176198918629695,0.43227051675422434,0.6851248942227337
0465,cdot_cos,S,R-S,13,2,3599,-0.0037868853077147545,-0.008553440495586893,-0.10737834861508729,0.06389666419547671,1117.0,0.10460121694022764,0.5072522806817672,1.828924108010379,-0.00019137336659505794,0.023,1.0,5.667513844176398,0.06457284199291723,13,2026-10-07 19:16:19.683244,25.0,0.09543234999802054,0.20101273014096138,0.22622034953416228
0465,cdot_cos,T,S-T,14,2,3893,-0.21466511889294343,0.11146997701183448,-0.21087823358522867,0.005107341481558018,1117.0,0.10864473448742613,0.5072586215683044,1.8979879688252181,-0.00015546518262278032,0.294,0.9999999999999999,5.662959550179956,0.0695399849659405,14,2026-10-07 19:16:19.977243,25.0,0.7937612835562269,0.04602417921833193,0.013753461044892829
0465,cdot_cos,P,T-P,15,3,4512,0.04096459490923762,-0.0011081884464509881,0.255629713802181,0.9983257976740074,956.0,0.13166343432060681,0.5084980195313927,1.9694043620225916,-0.0009972600116648685,0.619,1.0000000000000002,-0.6791965568060828,0.07450713023781277,15,2026-10-07 19:16:20.596244,25.0,0.4299408343815382,0.025389693153678842,0.037186914108530984
0465,cdot_cos,Q,P-Q,16,3,4661,-0.012968791791315708,-0.018053131219276645,-0.05393338670055333,0.20614276664426548,956.0,0.14007717461168054,0.5087539284113678,2.03501571526315,-0.0004121877267036037,0.149,0.9999999999999996,2.2862523763078264,0.0794742724738468,16,2026-10-07 19:16:20.745243,25.0,0.24185144587757862,0.1079741664544558,0.05646805564479009
0465,cdot_cos,R,Q-R,17,3,4683,0.10462173574478631,0.21743317536370269,0.11759052753610202,0.9497774320376655,956.0,0.16383973592403464,0.5099329357438126,2.1025073579039373,-0.0013018508733269644,0.022,0.9999999999999999,-0.7545866103975322,0.08444141373599215,17,2026-10-07 19:16:20.767244,25.0,0.5049058511072251,0.6789641820283391,1.080116423288823
0465,cdot_cos,S,R-S,18,3,4703,-0.0022718816947824606,-0.006946812369889547,-0.10689361743956877,0.06462534755514933,956.0,0.16995159862092746,0.5100131546280685,2.16380256263937,-0.0003677553411936875,0.02,0.9999999999999994,11.644334632645322,0.08940855504797686,18,2026-10-07 19:16:20.787244,25.0,0.0788670505520572,0.2708061462072392,0.30559313484464085
0465,cdot_cos,T,S-T,19,3,4991,-0.23554395423250254,0.014635849283599841,-0.2332720725377201,0.0029242117871528146,956.0,0.1746719817723242,0.510016784414672,2.223111624626646,-0.00029324624332435106,0.288,1.0,20.527129004579933,0.09437569925642542,19,2026-10-07 19:16:21.075244,25.0,0.7756268599075855,0.054620624249635465,0.016390219275683165
0465,cdot_cos,P,T-P,20,4,5468,0.07137807067304662,0.00036027721609642715,0.30692202490554915,0.9995350197893322,781.0,0.20141307818871748,0.5112574299925473,2.286412737553958,-0.0018127154456067658,0.477,0.9999999999999996,-1.2247407554417242,0.09934284603798386,20,2026-10-07 19:16:21.552243,25.0,0.4324761068321537,0.03620179434020351,0.05606099877650582
0465,cdot_cos,Q,P-Q,21,4,5618,-0.0068419200559639085,-0.017706626597564806,-0.07821999072901054,0.12395490169779787,781.0,0.20920849357287835,0.5114112762786763,2.3435808887581877,-0.0005769514981278451,0.15,0.9999999999999996,8.03245875199453,0.1043099889026681,21,2026-10-07 19:16:21.702244,25.0,0.11743323429081501,0.10512296221929027,0.0519694358944058
0465,cdot_cos,R,Q-R,22,4,5641,0.050568792986894484,0.29298839716999897,0.05741071304285839,0.8077207773618638,781.0,0.23294996685450456,0.512413722453973,2.403433403753489,-0.001891918284431979,0.023,0.9999999999999994,-1.3117579962983976,0.10927713002208234,22,2026-10-07 19:16:21.725244,25.0,0.4990524010317342,0.7438510097682008,1.0322379687663568
0465,cdot_cos,S,R-S,23,4,5662,-6.331342026515451e-05,-0.0065461714937375,-0.050632106407159636,0.21997661406938285,781.0,0.2434256400222156,0.5126867140891429,2.4587591094112513,-0.0008993656862331476,0.021,0.9999999999999991,3.635835206382942,0.11424427119873416,23,2026-10-07 19:16:21.746243,25.0,0.3316702456143562,0.37413207924964775,0.49884157941481094
0465,cdot_cos,T,S-T,24,4,5949,-0.3704587446065538,-0.3891686824383057,-0.37039543118628865,9.515713869656944e-05,781.0,0.24866351418298976,0.5126868321778104,2.511642277764866,-0.00046451923988644647,0.287,0.9999999999999994,3682.3723690976162,0.11921141706918902,24,2026-10-07 19:16:22.033243,25.0,0.3921458283569592,0.061325095541016394,0.018250432615937895
0465,cdot_cos,P,T-P,25,5,6249,0.054497204756126474,-0.0025712037635510798,0.4249559493626803,0.99997567298414,876.0,0.278626244862759,0.5139277071352188,2.5696385414151557,-0.0028469390457012784,0.3,0.9999999999999989,-1.919951556432821,0.12417856355556267,25,2026-10-07 19:16:22.333244,25.0,0.4330788130348827,0.06618077113582865,0.09987576893256411
0465,cdot_cos,Q,P-Q,26,5,6397,-0.009805523834242963,-0.017913106713355453,-0.06430272859036944,0.16692650876564719,876.0,0.28837197686448696,0.5141348307911033,2.6215835419709355,-0.0009957114420145435,0.148,0.999999999999999,8.937789340292191,0.12914570728994462,26,2026-10-07 19:16:22.481244,25.0,0.15579707893566885,0.13066539632592514,0.06584954055221594
0465,cdot_cos,R,Q-R,27,5,6425,0.08181776237082955,0.2501255587565269,0.09162328620507251,0.9080940478423631,876.0,0.31730320217523283,0.5152615137668374,2.6773773710038022,-0.0031570855789755927,0.028,0.9999999999999988,-1.9183516423978129,0.13411284846215585,27,2026-10-07 19:16:22.509243,25.0,0.5042865789844284,0.6733131781194307,1.0332580468123527
0465,cdot_cos,S,R-S,28,5,6443,-0.0008791523428480745,-0.0049779843480578165,-0.08269691471367763,0.1123037003474301,876.0,0.3260775148391751,0.5154008397446675,2.727244902917936,-0.0010170761459317584,0.018,0.9999999999999987,15.359730226708484,0.13907998948624986,28,2026-10-07 19:16:22.527244,25.0,0.12195784114797027,0.4042375362235226,0.48746181466345784
0465,cdot_cos,T,S-T,29,5,6728,-0.33372002189701044,-0.037645796412683494,-0.33284086955416237,0.00024328789657005444,876.0,0.33185575347927965,0.5154011415693894,2.7755200970972247,-0.0006849354230019811,0.285,0.9999999999999987,1100.4424053089328,0.1440471375143929,29,2026-10-07 19:16:22.812243,25.0,0.6157448025313882,0.0678151712554092,0.02027452154422657
0465,cdot_cos,P,T-P,30,6,7125,0.03196413261721685,-0.0022493975298605983,0.3656841545142273,0.9998929496120549,1161.0,0.3647321624547583,0.5166415185345323,2.8297621485215827,-0.004125375656406378,0.397,0.9999999999999984,-2.7737053573935415,0.14901428913578374,30,2026-10-07 19:16:23.209243,25.0,0.4343215289717852,0.057037099317867726,0.08281211328835936
0465,cdot_cos,Q,P-Q,31,6,7275,-0.016195818069161077,-0.016158878501673288,-0.048159950686377934,0.23076462201443215,1161.0,0.3771432103376666,0.5169277557375737,2.8781319496463684,-0.0016585397537495674,0.15,0.9999999999999986,8.618152624628026,0.15398143392718025,31,2026-10-07 19:16:23.359244,25.0,0.22596975865095045,0.15171808248812166,0.08274031921938874
0465,cdot_cos,R,Q-R,32,6,7298,0.11460904527327884,0.15448465913792067,0.1308048633424399,0.9633894602446244,1161.0,0.4102475872011948,0.5181226083985948,2.9309440933964597,-0.004694500497329692,0.023,0.9999999999999981,-2.5408662026877162,0.15894857478366536,32,2026-10-07 19:16:23.382244,25.0,0.5237683307349676,0.8879509070964121,1.4393207331968776
0465,cdot_cos,S,R-S,33,6,7318,-0.004551659871632272,-0.007860461734127279,-0.1191607051449111,0.048382838942342056,1161.0,0.4179889520641016,0.5181826103096536,2.9767324816148726,-0.00115473351610229,0.02,0.9999999999999982,58.9942373295013,0.1639157156538552,33,2026-10-07 19:16:23.402244,25.0,0.046633291566186216,0.3709857484777604,0.3870682431453387
0465,cdot_cos,T,S-T,34,6,7606,-0.1463770441235578,0.10686203578497032,-0.1418253842519255,0.028041307743590753,1161.0,0.4250870171403052,0.518217385458902,3.021700660049941,-0.001077740822837875,0.288,0.9999999999999974,2.2140147469856877,0.168882866411944,34,2026-10-07 19:16:23.690243,25.0,0.9310530989352389,0.07369963983445085,0.024646059292373755
0465,cdot_cos,P,T-P,35,7,8286,0.04575716949197843,-0.0010523057695340837,0.19213421361553623,0.9918645487124649,956.0,0.46043994460874527,0.5194473204299438,3.0730918083854846,-0.00563708038116083,0.68,0.9999999999999978,-3.706976113103652,0.17385003310219088,35,2026-10-07 19:16:24.370244,25.0,0.44538676885561695,0.0350299580687338,0.05198959921829418
0465,cdot_cos,Q,P-Q,36,7,8434,-0.01142987824741986,-0.017158205650449797,-0.05718704773939829,0.19314914205259834,956.0,0.4727277601137832,0.5196868028815304,3.1181208430016993,-0.002064643785195536,0.148,0.999999999999997,14.917320965682807,0.1788171787116153,36,2026-10-07 19:16:24.518244,25.0,0.17723265291803492,0.15889984642579197,0.08302578043944552
0465,cdot_cos,R,Q-R,37,7,8461,0.09469246782461539,0.2119029517109197,0.10612234607203525,0.9341992587904615,956.0,0.5074742991507797,0.5208449715434784,3.1681763044413813,-0.00613135175373033,0.027,0.9999999999999967,-3.5113262015693776,0.18378431921346644,37,2026-10-07 19:16:24.545243,25.0,0.5151668232327156,0.8163717338233127,1.286908853222092
0465,cdot_cos,S,R-S,38,7,8479,-0.0016723122406464147,-0.005559064593763432,-0.09636478006526181,0.08247992710153958,956.0,0.5168118337402421,0.5209472150213841,3.211334334574882,-0.0017217700532816413,0.018,0.999999999999996,43.128244370925536,0.188751459444394,38,2026-10-07 19:16:24.563244,25.0,0.07722170666243086,0.44716546120185696,0.5187519216368003
0465,cdot_cos,T,S-T,39,7,8783,-0.35585581819408435,0.008598652600745063,-0.35418350595343795,0.00014270509011017637,956.0,0.5235722557540465,0.520947391919449,3.2533154472428327,-0.001266161574854334,0.304,0.9999999999999957,2575.5424656226014,0.19371861374157442,39,2026-10-07 19:16:24.867244,25.0,0.6977918775408505,0.07375496678784174,0.022238230308567256
0465,cdot_cos,P,T-P,40,8,9242,0.023984610161720023,-0.00010677743332895288,0.3798404283558044,0.999924854615221,1298.0,0.5616548535472499,0.5221867731091558,3.302599166329367,-0.007438335754161285,0.459,0.9999999999999957,-4.980045066495766,0.19868577670981036,40,2026-10-07 19:16:25.326244,25.0,0.4361457004773905,0.05910938800013353,0.08296862264314452
0465,cdot_cos,Q,P-Q,41,8,9393,-0.01195953395752255,-0.010885906731615054,-0.03594414411924257,0.2893375418994084,1298.0,0.5778346739381691,0.5225453492876002,3.345922830946179,-0.0033180634931691735,0.151,0.9999999999999944,11.490646921575522,0.20365292385230474,41,2026-10-07 19:16:25.477243,25.0,0.2888724124122325,0.1786252187325714,0.1071511284166838
0465,cdot_cos,R,Q-R,42,8,9421,0.11078070047350846,0.13014391961479918,0.12274023443103102,0.9555747869477653,1298.0,0.6155996696044864,0.5237294265586594,3.3941546519396684,-0.008109484328092555,0.028,0.9999999999999944,-4.046544049137402,0.20862006417274506,42,2026-10-07 19:16:25.505243,25.0,0.5538609496324919,0.8361310054256716,1.348749845225618
0465,cdot_cos,S,R-S,43,8,9441,-0.003414045170700974,-0.004944579730988278,-0.11419474564420944,0.05443019592164654,1298.0,0.6246580102420067,0.5237968645100148,3.434765780651757,-0.002021437235826143,0.02,0.9999999999999933,90.27627574536476,0.2135872041770382,43,2026-10-07 19:16:25.525243,25.0,0.04920589546496491,0.43626306046207486,0.4529170318760156
0465,cdot_cos,T,S-T,44,8,9726,-0.13546878476649032,0.16420229526556937,-0.13205473959578934,0.03552427184929346,1298.0,0.6330501920229694,0.5238408779222749,3.474767326229674,-0.0018991130287857095,0.285,0.9999999999999929,2.779248432677563,0.218554361105331,44,2026-10-07 19:16:25.810244,25.0,0.9376193425692616,0.08488413500295063,0.029446251863026955
0465,cdot_cos,P,T-P,45,9,10540,0.03337241107448448,0.0002527642169392097,0.1688411958409748,0.9855289713332267,1080.0,0.6730419671936886,0.525061766062787,3.5222214526516273,-0.009395860825151928,0.814,0.9999999999999921,-6.1404051260761,0.2235215541422275,45,2026-10-07 19:16:26.624243,25.0,0.4502835889756703,0.03409485866810298,0.04912994492717343
0465,cdot_cos,Q,P-Q,46,9,10690,-0.012786113237229287,-0.015368169565594664,-0.046158524311713765,0.2397659498942978,1080.0,0.6885566219346411,0.5253587469882072,3.563156449755658,-0.0037997690430540444,0.15,0.9999999999999906,18.84327006584744,0.22848870232824983,46,2026-10-07 19:16:26.774244,25.0,0.22929514949993499,0.18461577559329018,0.1034310316063499
0465,cdot_cos,R,Q-R,47,9,10717,0.10690251813022718,0.1764120652793418,0.11968863136745647,0.9522212204693218,1080.0,0.7284266998716756,0.5265380161529603,3.6097628442581913,-0.010159473736505317,0.027,0.9999999999999899,-5.392920364184098,0.2334558418131016,47,2026-10-07 19:16:26.801243,25.0,0.5347330593925663,0.919507555595313,1.4766695532235024
0465,cdot_cos,S,R-S,48,9,10736,-0.002951276633481485,-0.006452163194674803,-0.10985379476370866,0.06029341046947538,1080.0,0.738210029936788,0.5266126761169772,3.6484797153565256,-0.0025802497176759757,0.019,0.9999999999999887,101.51657744053874,0.23842298089303918,48,2026-10-07 19:16:26.820243,25.0,0.05300338932558392,0.46115875857556154,0.5149121086901232
0465,cdot_cos,T,S-T,49,9,11041,-0.24082388230734036,0.09827163884598894,-0.23787260567385887,0.0026073370030124422,1080.0,0.745950732697547,0.5266159046964881,3.686311404319686,-0.002065920066493947,0.305,0.9999999999999876,159.3052453674699,0.24339014285465413,49,2026-10-07 19:16:27.125243,25.0,0.779611839704074,0.08263342759653095,0.025379353313963935
0465,cdot_cos,P,T-P,50,10,11620,0.04091612127545595,0.0016917476822261095,0.28174000358279633,0.999127696177177,1137.0,0.7886164207706718,0.5278529252430079,3.73248390954848,-0.011770622470388277,0.579,0.999999999999987,-7.845223291721109,0.24835732847320932,50,2026-10-07 19:16:27.704243,25.0,0.43846071418040866,0.04993497967985412,0.07368858043717595
0465,cdot_cos,Q,P-Q,51,10,11773,-0.013021190145605228,-0.015119537977821696,-0.053937311421061174,0.2061267102979053,1137.0,0.803775439166818,0.5281080887837781,3.7714462169822207,-0.004339412383531964,0.153,0.9999999999999845,29.123322495148205,0.2533244785311847,51,2026-10-07 19:16:27.857243,25.0,0.18041559064917728,0.18604608612271642,0.09907855160879867
0465,cdot_cos,R,Q-R,52,10,11801,0.1024995608414801,0.1627461932221064,0.11552075098708532,0.9472509742133592,1137.0,0.8455465231242231,0.5292804966240663,3.8166960422340424,-0.01238151571981034,0.028,0.9999999999999838,-6.859475909255058,0.2582916176452851,52,2026-10-07 19:16:27.885243,25.0,0.5222938353174236,0.9329861327428055,1.4918244270501797
0465,cdot_cos,S,R-S,53,10,11823,-0.00352999484906822,-0.007575723483939814,-0.10602955569054831,0.06594348286734436,1137.0,0.8560226626004152,0.5293621026690705,3.8538143816017474,-0.0032035770131662476,0.022,0.9999999999999818,112.46640743555344,0.26325875643513585,53,2026-10-07 19:16:27.907244,25.0,0.056988635444274564,0.4285535971697613,0.476188158008731
0465,cdot_cos,T,S-T,54,10,12117,-0.18993221293991444,0.11158958327141862,-0.18640221809084623,0.009377173739076742,1137.0,0.8644028813996926,0.5293737069342588,3.8900864985788375,-0.0025910413076003546,0.294,0.9999999999999805,52.785393613956316,0.2682259217905637,54,2026-10-07 19:16:28.201244,25.0,0.7894606992062372,0.09021485762878076,0.028504145575773528
0465,cdot_cos,P,T-P,55,11,12757,0.03332675941559153,0.001119026475269049,0.22325897235550596,0.9962471294024964,1198.0,0.9090689988861382,0.5306063807264434,3.9350823518370674,-0.014231697450872174,0.64,0.99999999999998,-9.443419838302558,0.27319312309545396,55,2026-10-07 19:16:28.841243,25.0,0.4413404516291824,0.04857916123970785,0.06979080857257135
0465,cdot_cos,Q,P-Q,56,11,12908,-0.010644113462059441,-0.011026940706072864,-0.043970872877650974,0.24987635790228283,1198.0,0.9265842077865186,0.530915499084903,3.9730079369376092,-0.005775997392251693,0.151,0.9999999999999769,27.35424741758196,0.2781602746811843,56,2026-10-07 19:16:28.992243,25.0,0.23132360723109485,0.20392078515071504,0.11599476092967143
0465,cdot_cos,R,Q-R,57,11,12937,0.1120278981986532,0.1544163494035894,0.12267201166071265,0.9555023264955872,1198.0,0.9706530760016542,0.5320973160967104,4.01724678467167,-0.015015669262658498,0.029,0.9999999999999756,-7.818191630425142,0.283127413335389,57,2026-10-07 19:16:29.021244,25.0,0.5404596300895609,0.9419987743611589,1.519616145349502
0465,cdot_cos,S,R-S,58,11,12958,-0.0015432299331929866,-0.0027330647124388513,-0.1135711281318462,0.05523819405096403,1198.0,0.9812201366994658,0.5321656268041927,4.052852813307908,-0.0037041562325420023,0.021,0.9999999999999736,165.58916525721568,0.288094551344479,58,2026-10-07 19:16:29.042243,25.0,0.04718234965891056,0.45971963456035264,0.5031933665624599
0465,cdot_cos,T,S-T,59,11,13256,-0.1926346284409489,0.15356656777951286,-0.19109139850775592,0.008348540486556658,1198.0,0.989961300653189,0.5321759509816313,4.087721187661014,-0.0030944124409047783,0.298,0.9999999999999717,59.05979389273365,0.29306172188055346,59,2026-10-07 19:16:29.340243,25.0,0.8211522761886504,0.09309386857182549,0.029332764945379706
0465,cdot_cos,P,T-P,60,12,13955,0.05102560845514474,-0.0006998433168510853,0.24366023689609362,0.9977431051438171,1059.0,1.0367040823682738,0.5334096037045757,4.131773182407823,-0.01700739393413271,0.699,0.999999999999971,-11.277875235440124,0.2980289420994917,60,2026-10-07 19:16:30.039244,25.0,0.44128918352265795,0.04458282958171192,0.06687093235348332
0465,cdot_cos,Q,P-Q,61,12,14104,-0.009646825131331567,-0.011201663954033754,-0.06067243358647631,0.17993161963675533,1059.0,1.0522880964084222,0.5336320359025992,4.167799629097995,-0.005844283713887402,0.149,0.9999999999999658,50.186575142615304,0.30299609516300247,61,2026-10-07 19:16:30.188244,25.0,0.14806700064558387,0.20696546962468892,0.10459069825602967
0465,cdot_cos,R,Q-R,62,12,14123,0.11628180061736108,0.1849365151121721,0.12592862574869265,0.9588383555912963,1059.0,1.0983797923164311,0.5348171281501264,4.211154478549732,-0.01778974007225355,0.019,0.9999999999999647,-10.079769219055951,0.3079632317596479,62,2026-10-07 19:16:30.207244,25.0,0.5109517605650501,1.4962492480358836,2.4258787320004673
0465,cdot_cos,S,R-S,63,12,14145,-0.0020969890168695085,-0.0044495517898650834,-0.1183787896342306,0.049290848758376776,1059.0,1.1091455678337858,0.5348780394896033,4.245463022566487,-0.004264981743676586,0.022,0.9999999999999617,222.0400740603719,0.3129303690580939,63,2026-10-07 19:16:30.229243,25.0,0.04195668427361837,0.4439783993455581,0.4893534326070315
0465,cdot_cos,T,S-T,64,12,14435,-0.4185488828048416,0.09925634934422119,-0.4164518937879721,3.0089706096283635e-05,1059.0,1.1179148418876357,0.5348780766727458,4.2790248130136375,-0.0035047883085782953,0.29,0.9999999999999589,20444.572054126293,0.31789754341153154,64,2026-10-07 19:16:30.519244,25.0,0.8050093521147607,0.09916406077410898,0.03023887604775815
0465,cdot_cos,P,T-P,65,13,15014,0.04087730597837854,-0.00023995317190180697,0.4594261887832201,0.9999897236456493,918.0,1.166660723082769,0.53611359034309,4.322286163706056,-0.019978204739673967,0.579,0.999999999999958,-13.333253064294912,0.3228647600061991,65,2026-10-07 19:16:31.098243,25.0,0.43842373410579977,0.05666040397378139,0.0841897775390904
0465,cdot_cos,Q,P-Q,66,13,15161,-0.01547247981100403,-0.023732855473674878,-0.05634978578938257,0.19643213435397575,918.0,1.1835275896892745,0.5363562358193635,4.357378908875291,-0.00711081485869743,0.147,0.9999999999999531,53.02958900611279,0.3278319148872307,66,2026-10-07 19:16:31.245243,25.0,0.16372745573439476,0.21714372364184276,0.11474058915990132
0465,cdot_cos,R,Q-R,67,13,15188,0.09159516086130769,0.22604070873653423,0.10706764067231171,0.9356371427165301,918.0,1.2305009778334708,0.5375117561490695,4.399723601536384,-0.02033421900687127,0.027,0.9999999999999521,-11.443679360914592,0.33279905202162446,67,2026-10-07 19:16:31.272243,25.0,0.5218876073691647,1.1052770335375526,1.7397551164517138
0465,cdot_cos,S,R-S,68,13,15207,-0.0024475552776094525,-0.00972091152485382,-0.09404271613891714,0.08698092720963002,918.0,1.2432125495003024,0.5376191581042243,4.4333214088428505,-0.005638554263344397,0.019,0.9999999999999483,136.82865197701855,0.33776618821311494,68,2026-10-07 19:16:31.291244,25.0,0.0738084244847853,0.5750348426784248,0.6690300877279772
0465,cdot_cos,T,S-T,69,13,15492,-0.289073893792209,-0.01527683949708465,-0.28662633851459957,0.0007720734773573712,918.0,1.252352301855251,0.5376201114263517,4.465808304684431,-0.004089990267174223,0.285,0.999999999999944,1624.3869220511026,0.34273336725376935,69,2026-10-07 19:16:31.576244,25.0,0.68480380010662,0.10478849053144598,0.03206930650859148
0465,cdot_cos,P,T-P,70,14,15932,0.04096803695938358,0.0002884226306497323,0.33004193075159255,0.9997390832637063,799.0,1.3029419891032266,0.5388543116761002,4.508378904255121,-0.023171650715108117,0.44,0.9999999999999435,-15.460749138417361,0.34770057308364516,70,2026-10-07 19:16:32.016243,25.0,0.43889651118043616,0.07808518775419018,0.11497656192721735
0465,cdot_cos,Q,P-Q,71,14,16080,-0.011672041099365529,-0.026153250729186082,-0.05264007805874911,0.21148423361461413,799.0,1.3210672670789383,0.539115333175194,4.542666850593665,-0.008524492304821343,0.148,0.9999999999999386,56.11475859704389,0.35266773072854457,71,2026-10-07 19:16:32.164243,25.0,0.17938085053510341,0.2131475998110843,0.12246809443048466
0465,cdot_cos,R,Q-R,72,14,16107,0.05675363461196213,0.27683129596596306,0.06842567571132765,0.8469195221421701,799.0,1.3660336786473075,0.5401604155534478,4.583413431097345,-0.02164939980610244,0.027,0.9999999999999372,-12.558730081365026,0.35763486759490487,72,2026-10-07 19:16:32.191243,25.0,0.545393296227836,1.1595843363322518,1.6654226506803416
0465,cdot_cos,S,R-S,73,14,16125,-0.0004309433925818695,-0.009805386288782747,-0.057184578004544004,0.19315876447940006,799.0,1.3836848212408799,0.5403987206305045,4.617169010981887,-0.008695631776425173,0.018,0.9999999999999335,54.357918805883415,0.3626020031570449,73,2026-10-07 19:16:32.209243,25.0,0.22544324930004855,0.7534702697680197,0.9806190329762426
0465,cdot_cos,T,S-T,74,14,16411,-0.29257648443868217,-0.16269932181636954,-0.2921455410461003,0.0006726325369039054,799.0,1.3931586083589562,0.5403995504428438,4.648693024459418,-0.00471319037192335,0.286,0.9999999999999295,4799.207261637077,0.36756918855525933,74,2026-10-07 19:16:32.495244,25.0,0.42957599295667737,0.10814402283715176,0.033125129783483705
0465,cdot_cos,P,T-P,75,15,16731,0.029067346943158864,6.0713834309502086e-05,0.32164383138184105,0.9996781476598928,1177.0,1.4455432023037307,0.5416325818871358,4.69067609506781,-0.026630935084844296,0.32,0.9999999999999291,-17.775495356897583,0.37253638162698816,75,2026-10-07 19:16:32.815244,25.0,0.43910434022909994,0.11434017028432858,0.1637018560774202
0465,cdot_cos,Q,P-Q,76,15,16883,-0.013111462335141249,-0.01387183350405152,-0.04217880927830012,0.25836761793701346,1177.0,1.4663363173409265,0.5419511775604938,4.724621197967164,-0.01084200075972901,0.152,0.9999999999999241,49.55790566362434,0.3775035431937968,76,2026-10-07 19:16:32.967244,25.0,0.23310297518937806,0.2367743477802968,0.13679680945523573
0465,cdot_cos,R,Q-R,77,15,16911,0.10794648504497999,0.153348501143978,0.12105794738012124,0.9537547887060839,1177.0,1.517522604028941,0.5431269630217874,4.765920137851707,-0.02733841551823919,0.028,0.9999999999999236,-14.030123097763791,0.3824706802559175,77,2026-10-07 19:16:32.995244,25.0,0.546940545697965,1.1355557737584923,1.8280816674290854
0465,cdot_cos,S,R-S,78,15,16931,-0.002922764399062557,-0.005477615488047823,-0.11086924944404254,0.05887102065595732,1177.0,1.529927440671402,0.5431995233956395,4.797408673224897,-0.006766406970205351,0.02,0.9999999999999194,283.5157463490643,0.38743781598495974,78,2026-10-07 19:16:33.015244,25.0,0.04781982429807589,0.5783946210665858,0.6202418321230585
0465,cdot_cos,T,S-T,79,15,17211,-0.15539398707364058,0.11830782685194724,-0.15247122267457802,0.021630552651353822,1177.0,1.5406583888716043,0.5432261832678077,4.828300309048984,-0.005897742111389682,0.28,0.9999999999999146,32.58323420813165,0.3924050070519295,79,2026-10-07 19:16:33.295244,25.0,0.8630456452143288,0.11532676779040596,0.03832481500072236
0465,cdot_cos,P,T-P,80,16,17908,0.04480750489942626,0.00246726496209044,0.20020149197306683,0.9933405542467658,918.0,1.5945104306340294,0.5444502161907232,4.869711181927,-0.030206587305487757,0.697,0.9999999999999143,-19.859633461653267,0.3973722903944762,80,2026-10-07 19:16:33.992243,25.0,0.4471983199848671,0.05221953509245115,0.07726261371940472
0465,cdot_cos,Q,P-Q,81,16,18059,-0.01027556488596723,-0.017580608198716156,-0.05508306978539349,0.20147889774013522,918.0,1.6134524207904812,0.544698421327394,4.902286271193363,-0.010870630876840278,0.151,0.9999999999999065,77.9031275823038,0.4023394540546388,81,2026-10-07 19:16:34.143244,25.0,0.1688518453629481,0.23148404713056214,0.1254436434202107
0465,cdot_cos,R,Q-R,82,16,18085,0.08343329427929291,0.22643292902542878,0.09370885916526014,0.91235395048214,918.0,1.6644186128674592,0.545822085302856,4.942629692652875,-0.029874159925831166,0.026,0.9999999999999047,-16.912110260700302,0.40730658956197285,82,2026-10-07 19:16:34.169244,25.0,0.5293426748990667,1.2683547513837985,1.960238156806844
0465,cdot_cos,S,R-S,83,16,18105,-0.0011779477716131915,-0.005429612092535803,-0.0846112420509061,0.10762043173916998,918.0,1.6794068678624388,0.5459546011241875,4.973883624166197,-0.008961795426984252,0.02,0.9999999999998992,157.81032248625735,0.4122737240211927,83,2026-10-07 19:16:34.189243,25.0,0.09695564634143007,0.6271245932946368,0.7494127497489789
0465,cdot_cos,T,S-T,84,16,18408,-0.33761215934916833,-0.030873463539979096,-0.33643421157755515,0.00022239005702064804,918.0,1.6895035965992447,0.5459548749520827,5.00375957390807,-0.0060823368164976,0.303,0.9999999999998933,10515.578070980382,0.41724092664053547,84,2026-10-07 19:16:34.492243,25.0,0.6228726393688563,0.10876771135046395,0.03332253708516797
0465,cdot_cos,P,T-P,85,17,18826,0.02554733453268949,0.0004807159486624261,0.3631594938818578,0.9998859759740211,1120.0,1.74532010094082,0.547185746614606,5.04480384470276,-0.0342662425863382,0.418,0.9999999999998916,-22.897517773757997,0.4222081590159365,85,2026-10-07 19:16:34.910244,25.0,0.43933296033272673,0.09375361052013204,0.13353230703726138
0465,cdot_cos,Q,P-Q,86,17,18981,-0.014733982134741282,-0.01810920198748151,-0.040281316667430775,0.26756091505875773,1120.0,1.767881614994075,0.5475150201102714,5.07744599351314,-0.014164983400694213,0.155,0.9999999999998846,61.04730398970838,0.42717532692837595,86,2026-10-07 19:16:35.065243,25.0,0.24193624775202913,0.246964514509573,0.14555815518229115
0465,cdot_cos,R,Q-R,87,17,19010,0.09846727485596685,0.1680373893063536,0.11320125699070813,0.9442772555940528,1120.0,1.8218791004387875,0.5486767594496353,5.117716706498728,-0.034624844671777344,0.029,0.9999999999998826,-17.611404363981837,0.43214246280731067,87,2026-10-07 19:16:35.094244,25.0,0.5538279659391874,1.1683877432668701,1.8619822567142241
0465,cdot_cos,S,R-S,88,17,19033,-0.004129643459125108,-0.009668793506775306,-0.10259691831509196,0.07143032244121457,1120.0,1.8356481041035535,0.548764618378222,5.147869023059041,-0.008995470202558555,0.023,0.9999999999998763,291.71052824691105,0.4371095974812646,88,2026-10-07 19:16:35.117243,25.0,0.05789395647543715,0.531165391169259,0.5986523332506942
0465,cdot_cos,T,S-T,89,17,19326,-0.2110224613381656,0.10700348888220543,-0.20689281787904049,0.005639410058248327,1120.0,1.8463127084325734,0.5487715546941225,5.177101086864127,-0.007013850644715535,0.293,0.9999999999998699,285.68761663356406,0.44207680542330346,89,2026-10-07 19:16:35.410244,25.0,0.7538744193062782,0.11614095709370982,0.03639796699324213
0465,cdot_cos,P,T-P,90,18,19946,0.04818108963357791,0.002107805091515636,0.2592035509717435,0.9984686740332122,1081.0,1.9037067049604675,0.549999341928816,5.217752529201821,-0.03842552727043507,0.62,0.9999999999998689,-25.58397394770149,0.447044105544151,90,2026-10-07 19:16:36.030244,25.0,0.4415478072568576,0.06233907151386648,0.09257096214176454
0465,cdot_cos,Q,P-Q,91,18,20097,-0.007893637691596804,-0.00975260968127548,-0.05607472732517471,0.19751982634246543,1081.0,1.9236131571097679,0.5502421545235594,5.248976334543617,-0.013600841118312258,0.151,0.9999999999998588,102.23804979458555,0.452011275197357,91,2026-10-07 19:16:36.181243,25.0,0.16118029674258552,0.25030838555226126,0.1318308089357644
0465,cdot_cos,R,Q-R,92,18,20127,0.10789972953439135,0.188218156605656,0.11579336722598815,0.9475904804501056,1081.0,1.9792998373972504,0.5514066996947806,5.2889080038673475,-0.0387801560364849,0.03,0.9999999999998559,-21.621587157300144,0.4569784103723032,92,2026-10-07 19:16:36.211244,25.0,0.5224199636494851,1.1565478726454674,1.8562226762494158
0465,cdot_cos,S,R-S,93,18,20147,-0.000645458866926603,-0.001537640288155515,-0.10854518840131795,0.06217387258313325,1081.0,1.993006029468496,0.5514830889678134,5.318311050085625,-0.009714379319161113,0.02,0.9999999999998475,380.495527230031,0.4619455429834396,93,2026-10-07 19:16:36.231244,25.0,0.050185134599170185,0.6098247172015125,0.6853096035622785
0465,cdot_cos,T,S-T,94,18,20445,-0.470708758961211,0.078810570035629,-0.4700633000942844,7.876787781253934e-06,1081.0,2.003692826085311,0.5514830986453919,5.346827756836935,-0.00762086966027593,0.298,0.9999999999998394,216325.7735757166,0.4669127597090923,94,2026-10-07 19:16:36.529243,25.0,0.7597943697804356,0.11699702361542741,0.035861733613472925
0465,cdot_cos,P,T-P,95,19,21027,0.02733935923139382,0.0014951800552178655,0.4980481181926048,0.9999960870025556,1075.0,2.0627362555432907,0.5527113971354018,5.387165103592857,-0.04281693355045264,0.582,0.9999999999998371,-28.65432480495188,0.4718800657256198,95,2026-10-07 19:16:37.111244,25.0,0.43954608164034936,0.07063037163621219,0.10144919150855637
0465,cdot_cos,Q,P-Q,96,19,21181,-0.015842022919320315,-0.02021974449634519,-0.04318138215071414,0.2535941081457705,1075.0,2.085906578669862,0.5530227859825976,5.418495443132488,-0.017140010428910384,0.154,0.9999999999998261,82.45935380403274,0.4768472393714072,96,2026-10-07 19:16:37.265243,25.0,0.22356137764774836,0.259651213287754,0.15045664367903372
0465,cdot_cos,R,Q-R,97,19,21207,0.09394183923834122,0.1683038138444612,0.10978386215766153,0.9396074571070442,1075.0,2.142708829235919,0.5541761679351339,5.458003173110053,-0.042807452763585184,0.026,0.999999999999823,-22.25406967590484,0.48181437237007113,97,2026-10-07 19:16:37.291244,25.0,0.54903000344541,1.378244244163355,2.1847019448483476
0465,cdot_cos,S,R-S,98,19,21231,-0.00468825855406408,-0.011881723999385268,-0.09863009779240531,0.0782942081336725,1075.0,2.1575752793663563,0.5542722490737084,5.487016221266801,-0.011393096491996959,0.024,0.9999999999998134,326.9565362948569,0.48678150515880186,98,2026-10-07 19:16:37.315244,25.0,0.0634619327773127,0.5789148456051366,0.6194354221015589
0465,cdot_cos,T,S-T,99,19,21521,-0.13256545500398137,0.04564435081859223,-0.1278771964499173,0.039281419264086494,1075.0,2.1704967418249654,0.5543204529445712,5.515419766104633,-0.009966307830269958,0.29,0.9999999999998037,29.599047466294408,0.49174872751097776,99,2026-10-07 19:16:37.605243,25.0,0.8666143530374817,0.12544111257001622,0.04455676709865223
0465,cdot_cos,P,T-P,100,20,22102,0.03338760541770714,-0.0010427005067532304,0.1659530604216885,0.9844623036035572,1158.0,2.2303311246569657,0.5555281917582373,5.555282865367772,-0.0469007782322061,0.581,0.9999999999998018,-30.581504861818186,0.49671605148803627,100,2026-10-07 19:16:38.186244,25.0,0.4549797834426167,0.07192132656419359,0.10298516838554263
0465,cdot_cos,Q,P-Q,101,20,22249,-0.009985901623811981,-0.010398073991933298,-0.04337350704151912,0.2526860297671068,1158.0,2.2540693232925584,0.5558380819034817,5.586104642372246,-0.01895772840905198,0.147,0.9999999999997883,90.17082424843082,0.5016832261261759,101,2026-10-07 19:16:38.333244,25.0,0.22901537384175566,0.28250608850150455,0.16148434445981413
0465,cdot_cos,R,Q-R,102,20,22276,0.11772570964475429,0.16194403493071394,0.12771161126856628,0.9605620594902776,1158.0,2.313387914676408,0.5570157016235355,5.625583906800116,-0.04822426485224191,0.027,0.9999999999997848,-24.852281211673795,0.5066503585111867,102,2026-10-07 19:16:38.360243,25.0,0.5450465718148192,1.3520396789751297,2.1969848660685054
0465,cdot_cos,S,R-S,103,20,22295,-0.0024801155652802932,-0.004325370248417514,-0.12020582521003459,0.047193951396947764,1158.0,2.3270794659572154,0.5570735435620566,5.653680065231444,-0.011308449855053153,0.019,0.9999999999997737,638.2188415715735,0.5116174884182366,103,2026-10-07 19:16:38.379244,25.0,0.038218132121317215,0.670083914907626,0.720607962147755
0465,cdot_cos,T,S-T,104,20,22582,-0.18661355004545543,0.13868081312568062,-0.18413343448017513,0.00991898807970028,1158.0,2.338851103442898,0.5570857002939023,5.681182789783985,-0.009776004806995699,0.287,0.9999999999997622,126.05732095743718,0.5165847180754036,104,2026-10-07 19:16:38.666244,25.0,0.8549128385635792,0.12832980452380124,0.0410161584866984
0465,cdot_cos,P,T-P,105,21,23260,0.0298603099640992,0.0001691149133275408,0.21647386000955463,0.995556442389692,919.0,2.4007407737538773,0.558305506023028,5.720930165220124,-0.05217921447279738,0.678,0.9999999999997594,-34.76226472242719,0.5215520976949719,105,2026-10-07 19:16:39.344243,25.0,0.44368269996348497,0.06382822253947418,0.09128269957371603
0465,cdot_cos,Q,P-Q,106,21,23410,-0.012143328965008103,-0.02034139115009085,-0.0420036389291073,0.25920763184375845,919.0,2.425402173206425,0.5586229854255353,5.751376919904164,-0.021168541811278203,0.15,0.9999999999997434,97.67774670295114,0.5265192765273228,106,2026-10-07 19:16:39.494244,25.0,0.23109153976313995,0.27721008801093,0.16440932968365018
0465,cdot_cos,R,Q-R,107,21,23437,0.08366065716041424,0.2219268748727896,0.09580398612542235,0.9164528634792856,919.0,2.4839038001571563,0.5597450776450814,5.790049406142397,-0.05105368212103696,0.027,0.9999999999997384,-26.633408368029272,0.5314864075777167,107,2026-10-07 19:16:39.521244,25.0,0.5569014461908516,1.398825240905465,2.1667269241011655
0465,cdot_cos,S,R-S,108,21,23456,-0.0017675677932380194,-0.008111808387109214,-0.08542822495365225,0.10567455330900993,919.0,2.50093873621532,0.5598744250826398,5.818387001943247,-0.01509397831042836,0.019,0.999999999999725,278.0086292344442,0.5364535358891852,108,2026-10-07 19:16:39.540244,25.0,0.09232988539032765,0.7526022660928845,0.8965755820086128
0465,cdot_cos,T,S-T,109,21,23741,-0.33582554630873357,-0.017709177146425212,-0.33405797851549557,0.00023599841025956033,919.0,2.512502686268686,0.5598747139395867,5.845264920067162,-0.010305139361875125,0.285,0.999999999999711,16578.583279720668,0.541420773171893,109,2026-10-07 19:16:39.825243,25.0,0.6283210932272195,0.1318505453555549,0.04057526334514375
0465,cdot_cos,P,T-P,110,22,24179,0.04196146564893318,0.0008901012773943685,0.37778701195766673,0.9999208965766601,918.0,2.576093547067986,0.5610982290240394,5.884849235592674,-0.05748353233637753,0.438,0.999999999999708,-38.55971501618629,0.5463880759893511,110,2026-10-07 19:16:40.263244,25.0,0.4401107660184739,0.09880354714569092,0.1451846136970327
0465,cdot_cos,Q,P-Q,111,22,24331,-0.00972162840876643,-0.016830372896136925,-0.05168309405769961,0.2155014050904841,918.0,2.599054593568311,0.5613618223610053,5.914315253965731,-0.021106114735898955,0.152,0.9999999999996917,138.00583132791303,0.551355259859926,111,2026-10-07 19:16:40.415244,25.0,0.17843181372382697,0.27075576797110457,0.15105951644950613
0465,cdot_cos,R,Q-R,112,22,24357,0.08127980713439688,0.23013360411161737,0.09100143554316331,0.9067883103825408,918.0,2.658403300531202,0.5624705911710345,5.952630711065145,-0.05539092947202165,0.026,0.999999999999687,-30.921518017105853,0.5563223899815427,112,2026-10-07 19:16:40.441243,25.0,0.5385037530535767,1.4830102563958216,2.282642575495802
0465,cdot_cos,S,R-S,113,22,24379,-0.0014432773247204907,-0.007869854074931388,-0.08272308445911737,0.11223849430784978,918.0,2.676171126900894,0.5626077868079321,5.9806043041892405,-0.01682501263596007,0.022,0.999999999999673,281.1016276329507,0.5612895188506463,113,2026-10-07 19:16:40.463244,25.0,0.10104618542043073,0.6725679889425216,0.8076284713496307
0465,cdot_cos,T,S-T,114,22,24676,-0.34523960494979544,-0.01839156706779712,-0.34379632762507495,0.00018501138039598487,918.0,2.687996292044673,0.5626080129501978,6.00701127390381,-0.011259803660778655,0.297,0.9999999999996574,24609.327045385817,0.5662567708789775,114,2026-10-07 19:16:40.760243,25.0,0.6100254930558665,0.1293801106822947,0.039815370854474987
0465,cdot_cos,P,T-P,115,23,25097,0.03433450368367781,0.0009063169094485004,0.37957410863347324,0.999924352666487,1236.0,2.753022912646177,0.5638298533943573,6.046403134896183,-0.06276535127929764,0.421,0.9999999999996545,-42.15407000539157,0.5712240812688993,115,2026-10-07 19:16:41.181243,25.0,0.4401653683928209,0.10702698170254142,0.154457531119962
0465,cdot_cos,Q,P-Q,116,23,25256,-0.010526472453870126,-0.011057853414601934,-0.044860976137547935,0.24572863185805285,1236.0,2.778113010638213,0.5641299992931825,6.075867713352734,-0.024614861005863166,0.159,0.9999999999996377,127.1064852885142,0.5761912727884659,116,2026-10-07 19:16:41.340243,25.0,0.21226991371845497,0.27750859913356357,0.1577993584404772
0465,cdot_cos,R,Q-R,117,23,25281,0.10995107379891751,0.1525646379291905,0.12047754625278764,0.9531105705911797,1236.0,2.84127064717065,0.5652937322930078,6.11458832525883,-0.06291136953449195,0.025,0.9999999999996335,-32.908329087838574,0.5811584018475425,117,2026-10-07 19:16:41.365243,25.0,0.544037293852374,1.566014856080491,2.5263054612974933
0465,cdot_cos,S,R-S,118,23,25304,-0.002967073115100511,-0.005259969754507915,-0.11291814691401802,0.056096332758814725,1236.0,2.8564137534422374,0.5653622027416458,6.141407219219687,-0.015293685574779503,0.023,0.9999999999996174,695.448692200966,0.5861255304718515,118,2026-10-07 19:16:41.388243,25.0,0.044442817692775874,0.5925689891445378,0.658395924851618
0465,cdot_cos,T,S-T,119,23,25595,-0.29431032585260125,0.19406126625655865,-0.2913432527375007,0.0006862505219642673,1236.0,2.868528820671299,0.5653630403546034,6.167384360014445,-0.012294066961748838,0.291,0.9999999999996005,3581.1511581754594,0.5910927899030981,119,2026-10-07 19:16:41.679244,25.0,0.7834961564998387,0.13495711072864836,0.04163253343320113
0465,cdot_cos,P,T-P,120,24,26333,0.04949119450321637,-0.0024978087227429647,0.3438015203558176,0.9998150126314594,1020.0,2.9349587918863107,0.5665829801862623,6.2066073712580865,-0.06829157418534121,0.738,0.9999999999995979,-45.901859887175945,0.5960602730361312,120,2026-10-07 19:16:42.417243,25.0,0.4404418677622809,0.060492289043035434,0.09001351113145233
0465,cdot_cos,Q,P-Q,121,24,26480,-0.007233463432544906,-0.008639561102409384,-0.05672465793576127,0.19495703489289976,1020.0,2.957815439298819,0.5668207665230424,6.2350304407139845,-0.023855594056117854,0.147,0.9999999999995742,186.8735635989179,0.6010274619207329,121,2026-10-07 19:16:42.564243,25.0,0.15525180683499845,0.29852802314127586,0.15548739736400327
0465,cdot_cos,R,Q-R,122,24,26499,0.1207307610847265,0.20280287817741424,0.1279642245172714,0.9608006059598915,1020.0,3.022726030689846,0.567992189901227,6.273680838203272,-0.0687123088033085,0.019,0.9999999999995683,-38.292487227551085,0.6059945859414319,122,2026-10-07 19:16:42.583244,25.0,0.5205760957877407,2.098999890075407,3.4163469153171904
0465,cdot_cos,S,R-S,123,24,26522,-0.0013103608213418081,-0.0030515794266442776,-0.1220411219060683,0.04517311047785497,1020.0,3.0375774351216847,0.5680472470688054,6.299950774519291,-0.01593041677806336,0.023,0.999999999999549,958.6743079385357,0.6109617126130825,123,2026-10-07 19:16:42.606244,25.0,0.03639668665464236,0.5907451020551603,0.6457132361669068
0465,cdot_cos,T,S-T,124,24,26814,-0.5829907271175442,0.06219199881160016,-0.5816803662962023,4.83599070135553e-07,1020.0,3.049900305384383,0.5680472476582089,6.325508486717338,-0.013277445002523043,0.292,0.9999999999995284,4501112.834545101,0.615928981590709,124,2026-10-07 19:16:42.898243,25.0,0.8188859881299735,0.13721028269800073,0.04220161048869355
0465,cdot_cos,P,T-P,125,25,27353,0.02294596440589799,-0.0011479600112594254,0.6059366915234422,0.999999736290456,1178.0,3.117708240217317,0.569265618413936,6.364585230430024,-0.07397182231205418,0.539,0.9999999999995243,-49.81601620379658,0.6208963853127724,125,2026-10-07 19:16:43.437243,25.0,0.44020853544174193,0.08436230143112831,0.12580321861397756
0465,cdot_cos,Q,P-Q,126,25,27501,-0.03461622303606119,-0.02694338268816628,-0.05756218744195918,0.19169177852764174,1178.0,3.1408428663271395,0.5694990748442956,6.3926135617345095,-0.02560636430386888,0.148,0.9999999999995,207.17123933435715,0.6258635787271278,126,2026-10-07 19:16:43.585243,25.0,0.15125227579217324,0.30442647945246454,0.15631504128258392
0465,cdot_cos,R,Q-R,127,25,27521,0.11074184349886586,0.14094693492752575,0.14535806653492706,0.9742680149697934,1178.0,3.2078184781352466,0.5706851308670087,6.431297146203128,-0.0751477252795561,0.02,0.9999999999994937,-41.76983213858971,0.6308307019631482,127,2026-10-07 19:16:43.605243,25.0,0.5172375829085555,2.053763382250351,3.3487805904053536
0465,cdot_cos,S,R-S,128,25,27543,-0.010775289317887352,-0.07578648498869534,-0.1215171328167532,0.04574151294529237,1178.0,3.2229934016171535,0.5707407959128219,6.457197333048464,-0.01724627799425649,0.022,0.999999999999472,1040.17604655494,0.6357978269080704,128,2026-10-07 19:16:43.627244,25.0,0.0348281244194862,0.7662989851311722,0.6897692491775894
0465,cdot_cos,T,S-T,129,25,27833,-0.09608941018014133,0.07306900907198124,-0.08531412086225398,0.10594444886425347,1178.0,3.241535633481018,0.5708697179312088,6.483835949357362,-0.021182128230785906,0.29,0.999999999999452,-30.5289219465865,0.6407651053722213,129,2026-10-07 19:16:43.917243,25.0,0.8304314015500418,0.1475251195329365,0.06393873056505038
0465,cdot_cos,P,T-P,130,26,28531,0.033169926455124746,0.0004400409630464195,0.12925933663526606,0.9620020150960714,1236.0,3.3085579709462567,0.5720399198675331,6.522261021139179,-0.07752489249983381,0.698,0.9999999999994464,-48.147898683216624,0.6457326235816369,130,2026-10-07 19:16:44.615244,25.0,0.4834680842473204,0.06708436788028987,0.09602054078114407
0465,cdot_cos,Q,P-Q,131,26,28681,-0.011859883015494453,-0.011513215907340757,-0.0450298094706192,0.24494715685127447,1236.0,3.335185411041903,0.5723377512222906,6.550707657069906,-0.031234897522440432,0.15,0.9999999999994187,155.42351145361428,0.6506998219520099,131,2026-10-07 19:16:44.765243,25.0,0.2271837637022286,0.3132338724537975,0.17751626730430736
0465,cdot_cos,R,Q-R,132,26,28710,0.11263559909914582,0.1438650474911037,0.12449548211464027,0.9574008168875487,1236.0,3.402528132682396,0.5735013505033272,6.589031597211543,-0.08005709101763504,0.029,0.9999999999994108,-41.95790964368861,0.6556669486243497,132,2026-10-07 19:16:44.794244,25.0,0.5434366099315127,1.4358644802602254,2.322162815189419
0465,cdot_cos,S,R-S,133,26,28730,-0.0021678556894087517,-0.003511850886600915,-0.11480345478855457,0.05365226652809829,1236.0,3.418465550896996,0.5735665340825451,6.614694683031041,-0.019179851116706198,0.02,0.9999999999993855,933.9352123854019,0.6606340703982664,133,2026-10-07 19:16:44.814244,25.0,0.04183506305871808,0.7546251672364446,0.7968709107299965
0465,cdot_cos,T,S-T,134,26,29029,-0.14920234196037177,0.13517794403517944,-0.14703448627096302,0.024701920413667165,1236.0,3.4327131393718537,0.5735965442498022,6.639862768529362,-0.017221795836759986,0.299,0.9999999999993603,65.24639676846654,0.6656013647198953,134,2026-10-07 19:16:45.113244,25.0,0.8925289335924331,0.14077518775493728,0.04765079757477543
0465,cdot_cos,P,T-P,135,27,29767,0.035659256602317904,0.0007857132498777619,0.1848615985626897,0.990258201469903,1100.0,3.5026491131744484,0.5747991524523864,6.678565467105982,-0.08551149665322566,0.738,0.9999999999993542,-56.78466242764814,0.6705689368059355,135,2026-10-07 19:16:45.851244,25.0,0.44995730974583187,0.0651968144668473,0.09476419214443718
0465,cdot_cos,Q,P-Q,136,27,29919,-0.012589435492364168,-0.01508794370975001,-0.04824869209468207,0.2303710399533707,1100.0,3.5289436375249204,0.575078797698171,6.706516730551887,-0.03259112061869259,0.152,0.9999999999993205,189.24110755415356,0.6755361400966509,136,2026-10-07 19:16:46.003244,25.0,0.19715467825654248,0.31007710879854106,0.17299029177942085
0465,cdot_cos,R,Q-R,137,27,29945,0.10219825868147842,0.16793809489983297,0.11478769417384259,0.9463277243347914,1100.0,3.596912554249205,0.5762270301485466,6.74456763874551,-0.08531369740215364,0.026,0.999999999999311,-45.91629226836219,0.6805032628802069,137,2026-10-07 19:16:46.029243,25.0,0.5390295421982325,1.6343007126020916,2.6141891047801735
0465,cdot_cos,S,R-S,138,27,29965,-0.003131362932384335,-0.00708621331516572,-0.10532962161386275,0.06702951379370371,1100.0,3.613927274580229,0.5763083297574704,6.770093136121309,-0.021610261041714037,0.02,0.9999999999992822,783.5638720004582,0.6854703823525895,138,2026-10-07 19:16:46.049243,25.0,0.05245325945191489,0.7549819386286849,0.8507360165512123
0465,cdot_cos,T,S-T,139,27,30268,-0.2526097839465072,0.11601247645618157,-0.24947842101412285,0.0019519734229831553,1100.0,3.6271118317943523,0.5763106972299331,6.79460608015072,-0.016815708287888163,0.303,0.9999999999992518,2025.177833865693,0.6904376900267927,139,2026-10-07 19:16:46.352243,25.0,0.7519214242211218,0.1401473313775626,0.04351339014562096
0465,cdot_cos,P,T-P,140,28,30867,0.028931249956460008,-0.0012484027692288952,0.2815410339029672,0.9991233501305137,1257.0,3.698856557395032,0.5775220328560693,6.8333361327428594,-0.0925064728099925,0.599,0.9999999999992445,-62.48537803146819,0.6954051996358208,140,2026-10-07 19:16:46.951244,25.0,0.4412157565685065,0.08183901621170642,0.11977416627826343
0465,cdot_cos,Q,P-Q,141,28,31016,-0.021164668579069172,-0.01727082039956574,-0.05009591853552918,0.22228531592107967,1257.0,3.7251549732159766,0.5777914050204407,6.860896337783581,-0.03435665509394131,0.149,0.9999999999992087,215.87166532870654,0.7003724053552077,141,2026-10-07 19:16:47.100243,25.0,0.1840524853447412,0.32513019694049905,0.17649943503989596
0465,cdot_cos,R,Q-R,142,28,31035,0.11762834186456966,0.13310500722351748,0.13879301044363884,0.9698169039632611,1257.0,3.7957453560833008,0.5789661155883793,6.8991811048831755,-0.09335337869068894,0.019,0.9999999999991998,-50.22234855712208,0.7053395218102334,142,2026-10-07 19:16:47.119244,25.0,0.5315425525700295,2.2782978331550763,3.715283308806538
0465,cdot_cos,S,R-S,143,28,31057,-0.005042722987141608,-0.007084575864494956,-0.12267106485171127,0.04449867991714691,1257.0,3.8117302908758695,0.579019994185141,6.924075654709472,-0.021382131664820902,0.022,0.999999999999167,1335.8040363247064,0.7103066410456884,143,2026-10-07 19:16:47.141243,25.0,0.034529099370306036,0.714763429641143,0.7265879451167584
0465,cdot_cos,T,S-T,144,28,31347,-0.13626803220418007,0.14774187106331446,-0.13122530921703845,0.036241609781849954,1257.0,3.827194946987511,0.5790638738059654,6.948770072359589,-0.020771111138309685,0.29,0.9999999999991346,13.924927222086827,0.7152739514720934,144,2026-10-07 19:16:47.431243,25.0,0.9710116201727998,0.1514071499002259,0.05332640038497106
0465,cdot_cos,P,T-P,145,29,32124,0.0396353765865369,0.0016276664020687705,0.17590340879071698,0.9878425986109591,1140.0,3.8995464378180005,0.5802594235055963,6.987252438757679,-0.09821809103709407,0.777,0.9999999999991273,-64.77938970056128,0.7202416164940786,145,2026-10-07 19:16:48.208243,25.0,0.4545167480038298,0.06393242474851056,0.0931164618153017
0465,cdot_cos,Q,P-Q,146,29,32279,-0.009566699186141074,-0.011363987971685934,-0.049202075772677975,0.22617234314041806,1140.0,3.9265459350466965,0.5805330196585161,7.014611237147882,-0.037116741949982726,0.155,0.999999999999085,223.32678451450204,0.7252088304111353,146,2026-10-07 19:16:48.363244,25.0,0.19278228908310616,0.3149124085352313,0.17419030470126445
0465,cdot_cos,R,Q-R,147,29,32308,0.10802663457848528,0.1760900404146456,0.11759333376462636,0.9497807783779422,1140.0,3.997169284463922,0.581681408176443,7.052516401047302,-0.09822317805594118,0.029,0.9999999999990727,-53.210594804858395,0.7301759517261225,147,2026-10-07 19:16:48.392244,25.0,0.5368061184133629,1.5151880416695935,2.435287910938817
0465,cdot_cos,S,R-S,148,29,32329,-0.0013455877820732665,-0.0029223040710591626,-0.10937222236055855,0.06097915698317436,1140.0,4.014426841463533,0.5817551085268475,7.077360484054079,-0.024266868524031225,0.021,0.9999999999990353,1003.472970290594,0.7351430676964991,148,2026-10-07 19:16:48.413243,25.0,0.04747154656915302,0.7334271743232577,0.821788428552892
0465,cdot_cos,T,S-T,149,29,32624,-0.3638182310763586,0.14525217523651981,-0.3624726432942853,0.00011599864038728302,1140.0,4.027973225785499,0.5817552487211176,7.101231927407522,-0.019121608361347735,0.295,0.999999999998997,36700.93049937291,0.7401103927239651,149,2026-10-07 19:16:48.708243,25.0,0.7640814159683126,0.14893713356120017,0.04591994685412233
0465,cdot_cos,P,T-P,150,30,33264,0.034359724681022934,-0.0002783932088834475,0.3981779557573815,0.9999524864872569,1100.0,4.102299750264641,0.5829632836684431,7.139817184439055,-0.10597633760053436,0.64,0.9999999999989885,-71.89753030860498,0.7450779868319947,150,2026-10-07 19:16:49.348243,25.0,0.4406223188824449,0.08007555196814231,0.11613519449865939
0465,cdot_cos,Q,P-Q,151,30,33411,-0.012221869933512963,-0.01372013839654399,-0.0465815946145359,0.23784334690620795,1100.0,4.130469932304721,0.5832504744017041,7.1671064050581546,-0.04066402092643417,0.147,0.9999999999989438,227.41791119960715,0.7500451992465005,151,2026-10-07 19:16:49.495244,25.0,0.2006596542712573,0.3417324462608115,0.1916338914291167
0465,cdot_cos,R,Q-R,152,30,33436,0.11250115769864392,0.17073877830543327,0.12472302763215688,0.9576322223618424,1100.0,4.20276908946532,0.5844062212994761,7.2050484335355565,-0.10555416934993103,0.025,0.9999999999989316,-56.14563928191407,0.7550123158670704,152,2026-10-07 19:16:49.520243,25.0,0.5407723693067208,1.7882057781642935,2.891966286423937
0465,cdot_cos,S,R-S,153,30,33456,-0.0021415009931350063,-0.004215507691733135,-0.11464265869177893,0.05385673845426428,1100.0,4.219880221212936,0.584471192462843,7.2295140288596595,-0.02524853727510913,0.02,0.9999999999988904,1236.0196110592308,0.7599794291686681,153,2026-10-07 19:16:49.540244,25.0,0.04156048995260633,0.7743511970243366,0.8555565873808124
0465,cdot_cos,T,S-T,154,30,33743,-0.2610893499764023,0.14667628903056845,-0.25894784898326734,0.0015411312649395716,1100.0,4.233743137346293,0.5844730515944441,7.253124465191804,-0.020530792763884278,0.287,0.9999999999988484,2537.6065408190784,0.7649467598942973,154,2026-10-07 19:16:49.827244,25.0,0.7947014923392086,0.15574353433503646,0.048302843670234206
0465,cdot_cos,P,T-P,155,31,34364,0.043133748954195035,0.001820660689777688,0.30422309893059735,0.999502579601617,1096.0,4.309277009921247,0.5856782849766138,7.29164062765319,-0.11295213554997718,0.621,0.9999999999988395,-76.68335789016403,0.7699143684637341,155,2026-10-07 19:16:50.448243,25.0,0.4412098896948652,0.08313125597257943,0.12163264504823462
0465,cdot_cos,Q,P-Q,156,31,34514,-0.006795299780523514,-0.008251853952386196,-0.04992904873471855,0.2230073399391757,1096.0,4.336992157264237,0.5859470552604906,7.318481492567487,-0.0419377066148927,0.15,0.999999999998792,264.2197936123985,0.7748815881235993,156,2026-10-07 19:16:50.598243,25.0,0.18390586702552897,0.3361893090766088,0.18476764895326644
0465,cdot_cos,R,Q-R,157,31,34544,0.1128730617047355,0.19100181943150824,0.11966836148525901,0.9521981602376193,1096.0,4.410133802644229,0.5870940747849963,7.356272857220786,-0.1118750795799485,0.03,0.9999999999987785,-60.973132079155796,0.779848707398313,157,2026-10-07 19:16:50.628243,25.0,0.5351875222520689,1.5099620536815905,2.438054845999756
0465,cdot_cos,S,R-S,158,31,34566,-0.0008878908784199855,-0.002035933836546221,-0.1137609525831555,0.0549910572260817,1096.0,4.427589880485132,0.5871602883668684,7.380495567475575,-0.026975515195018198,0.022,0.9999999999987342,1282.2076979454218,0.7848158205521099,158,2026-10-07 19:16:50.650244,25.0,0.04296873990156704,0.7146795449795624,0.7934580836773978
0465,cdot_cos,T,S-T,159,31,34860,-0.4604322611823921,0.10831494362637854,-0.4595443703039721,1.0246037590162196e-05,1096.0,4.44157970262333,0.5871603007036142,7.403814863070302,-0.021695908096383096,0.294,0.9999999999986883,427957.8394551077,0.7897831694152644,159,2026-10-07 19:16:50.944243,25.0,0.7840003962021035,0.15436307728390808,0.047584429041489774
0465,cdot_cos,P,T-P,160,32,35460,0.04613796838176506,0.002793260230463785,0.5065702295641572,0.9999968378516421,879.0,4.51835536992807,0.5883638237886006,7.4422844451494505,-0.12018005353343869,0.6,0.9999999999986792,-81.82987652303257,0.7947507892618655,160,2026-10-07 19:16:51.544243,25.0,0.4406644229288926,0.0860879882508551,0.12795944550789992
0465,cdot_cos,Q,P-Q,161,32,35612,-0.010009664702724094,-0.019363203803445573,-0.056147633084489154,0.19723108606731718,879.0,4.544885288524356,0.5886010724489916,7.468516037455581,-0.041999885862815334,0.152,0.9999999999986268,329.5283840245164,0.799718015656584,161,2026-10-07 19:16:51.696243,25.0,0.15544899273973417,0.31746378092259003,0.17453893813346166
0465,cdot_cos,R,Q-R,162,32,35638,0.07121521476734452,0.24236592139129057,0.08122487947006861,0.8839748861736922,879.0,4.6148643593285374,0.5896638956997634,7.505201869378642,-0.1118769119519439,0.026,0.9999999999986108,-65.74661030268811,0.8046851299044507,162,2026-10-07 19:16:51.722244,25.0,0.5354817651839069,1.7923303945991826,2.6915027232377384
0465,cdot_cos,S,R-S,163,32,35659,-0.0007587056502671954,-0.006226290414043294,-0.07197392041761172,0.14193044969374563,879.0,4.638086469043514,0.5898344642318781,7.53050808896567,-0.03749865791248777,0.021,0.999999999998566,436.06082034774045,0.8096522403651402,163,2026-10-07 19:16:51.743244,25.0,0.1375880649010867,0.8914758153902276,1.1058147483322043
0465,cdot_cos,T,S-T,164,32,35958,-0.3363187403009612,-0.07583899571239194,-0.335560034650694,0.0002273026440501731,879.0,4.652306343574927,0.5898347373813021,7.553575962732644,-0.023054919351202626,0.299,0.9999999999985165,52878.52469702658,0.8146196066548614,164,2026-10-07 19:16:52.042243,25.0,0.5344630423912151,0.15414790884644317,0.047558108800713275
0465,cdot_cos,P,T-P,165,33,36339,0.031459961025113704,0.0019027138808542694,0.36777870132607493,0.9998984103733506,896.0,4.730266918533687,0.5910357761163434,7.5919979360476555,-0.12753826505130794,0.381,0.9999999999985072,-86.99415152210977,0.8195870520031213,165,2026-10-07 19:16:52.423244,25.0,0.44077032020839874,0.14107132525006985,0.20462093165028802
0465,cdot_cos,Q,P-Q,166,33,36506,-0.01511782055161867,-0.031895699821772476,-0.046577781576732376,0.23786062744285263,896.0,4.75980269341548,0.5913213256286943,7.618648498721367,-0.0488616071261685,0.167,0.9999999999984591,275.5272011406805,0.8245542990963658,166,2026-10-07 19:16:52.590244,25.0,0.19984887522220243,0.2983116908625676,0.17686092743588913
0465,cdot_cos,R,Q-R,167,33,36526,0.06058998055627694,0.23794807951107086,0.07570780110789561,0.869062510626611,896.0,4.829903023281784,0.5923641021011147,7.655037491682898,-0.11709299414623231,0.02,0.9999999999984441,-65.43241895522881,0.8295214071002229,167,2026-10-07 19:16:52.610244,25.0,0.5583824838028805,2.3954897395851216,3.505016493315205
0465,cdot_cos,S,R-S,168,33,36548,-0.001376327710486592,-0.013837954247443104,-0.06196630826676353,0.1752079547835439,896.0,4.855622282998885,0.5925742313815844,7.680646119849107,-0.04338277939795753,0.022,0.9999999999984006,350.7850718543784,0.8344885178177858,168,2026-10-07 19:16:52.632244,25.0,0.18285419102477266,0.9151930994068475,1.1690572598682165
0465,cdot_cos,T,S-T,169,33,36835,-0.2529880641666472,-0.05730037485287978,-0.25161173645616064,0.001850784065873519,896.0,4.870171519655686,0.5925764508714803,7.7035001018438525,-0.024643382849582732,0.287,0.9999999999983494,8443.109645703358,0.8394558874047643,169,2026-10-07 19:16:52.919244,25.0,0.46746861878564566,0.1631596186561608,0.05069420437909591
0465,cdot_cos,P,T-P,170,34,37235,0.03574028949015858,0.0011982586313153169,0.28872835365680577,0.9992674226952823,1179.0,4.949275904107521,0.5937742345054294,7.741875254403028,-0.13515148620967832,0.4,0.9999999999983431,-92.26048864580194,0.8444233713181165,170,2026-10-07 19:16:53.319244,25.0,0.4414630168217166,0.13638695089538522,0.1977609611295894
0465,cdot_cos,Q,P-Q,171,34,37402,-0.010773464414704143,-0.012389597375243122,-0.046513753904862724,0.2381509273218807,1179.0,4.979281080371994,0.594059532948893,7.768343093553149,-0.0518225865502282,0.167,0.9999999999982929,292.0762505670138,0.8493906259278012,171,2026-10-07 19:16:53.486243,25.0,0.20029482165910853,0.31863509939052365,0.17967171415851743
0465,cdot_cos,R,Q-R,172,34,37421,0.10692980359171748,0.16655432391441607,0.11770326800642163,0.9499117054781979,1179.0,5.055700027303956,0.5951968684242082,7.8059405270883575,-0.1332804678329385,0.019,0.9999999999982839,-71.62168335612641,0.8543577320200603,172,2026-10-07 19:16:53.505243,25.0,0.5427120275492687,2.5013062747701933,4.0220498385243415
0465,cdot_cos,S,R-S,173,34,37444,-0.002749576149154848,-0.0055988446448456165,-0.10967937974087233,0.060540935314261246,1179.0,5.074330718813261,0.5952693199817516,7.829552253957909,-0.032799246774215626,0.023,0.9999999999982326,1386.8745471550694,0.8593248429968603,173,2026-10-07 19:16:53.528243,25.0,0.04672283727853114,0.7280884601554752,0.8100300656219501
0465,cdot_cos,T,S-T,174,34,37735,-0.2310438279769962,0.15806015413617827,-0.22829425182784135,0.003310446402940573,1179.0,5.089192096471108,0.5952732815946922,7.852200646908652,-0.02624980874150392,0.291,0.9999999999981795,1653.2251209140866,0.8642922310538314,174,2026-10-07 19:16:53.819244,25.0,0.7791869933206945,0.16339737193778722,0.05107002631562546
0465,cdot_cos,P,T-P,175,35,38414,0.03880881025592988,-0.0014216768687249199,0.2698526382329261,0.9988261783280752,859.0,5.169427989281053,0.5964680083572128,7.890537039917597,-0.14291149267479197,0.679,0.9999999999981748,-97.64716719591598,0.8692600275159386,175,2026-10-07 19:16:54.498244,25.0,0.4420548899678528,0.07984173988802948,0.11816773609712096
0465,cdot_cos,Q,P-Q,176,35,38561,-0.01566696861029495,-0.02623218372655328,-0.05447577886622483,0.20393257351764826,859.0,5.197617179239052,0.5967117983008283,7.916284030209286,-0.050729686468946746,0.147,0.9999999999981138,378.11980608694535,0.874227266662011,176,2026-10-07 19:16:54.645243,25.0,0.16249344742081018,0.3538741292086654,0.19176319699318983
0465,cdot_cos,R,Q-R,177,35,38580,0.08462678937023073,0.2392045920971147,0.10029375798052567,0.9246550571567964,859.0,5.273466983268401,0.597816570653675,7.953439724364795,-0.13774714834900675,0.019,0.9999999999981007,-78.76506110588457,0.8791943701147388,177,2026-10-07 19:16:54.664243,25.0,0.5316771738000354,2.565808728284865,3.99209494891309
0465,cdot_cos,S,R-S,178,35,38602,-0.002277809027652726,-0.012171321779391118,-0.08690459839788345,0.10223677111006062,859.0,5.295117910913877,0.5979386618079463,7.977504294936947,-0.03968138103685303,0.022,0.9999999999980469,803.2176278244837,0.8841614776247432,178,2026-10-07 19:16:54.686244,25.0,0.08447247867471137,0.8301436212321066,0.984133074794371
0465,cdot_cos,T,S-T,179,35,38894,-0.32207572616113705,-0.06853607110012526,-0.3197979171334843,0.0003370480577403145,859.0,5.309993302602614,0.5979390642906681,7.9998869903797445,-0.027357536469955663,0.292,0.9999999999979883,30619.561782052988,0.889128880001068,179,2026-10-07 19:16:54.978244,25.0,0.6373263210248588,0.16493275989367812,0.05094312222170044
0465,cdot_cos,P,T-P,180,36,39273,0.03712214220966859,-0.0005694174470097699,0.35919786837080564,0.9998741062940857,878.0,5.391438642691785,0.5991324712720427,8.03821334209549,-0.15099975594743562,0.379,0.9999999999979812,-103.604404370976,0.8940963812870472,180,2026-10-07 19:16:55.357243,25.0,0.44094992048962806,0.14679588964436996,0.21489535643580865
0465,cdot_cos,Q,P-Q,181,36,39426,-0.012922141937175285,-0.02510990056205011,-0.05004428414684388,0.2225085527165904,878.0,5.421264586953046,0.5993978886504759,8.064081874718225,-0.05586005566428376,0.153,0.999999999997925,358.4531685331586,0.8990636338705074,181,2026-10-07 19:16:55.510243,25.0,0.18210360874568393,0.34046459349082003,0.19494081216510425
0465,cdot_cos,R,Q-R,182,36,39452,0.06927274597561929,0.23822714716698143,0.08219488791279457,0.8864390022230199,878.0,5.495620808299976,0.6004546893751125,8.100584757166457,-0.14047748051427913,0.026,0.9999999999979113,-80.06942356998975,0.9040307443741687,182,2026-10-07 19:16:55.536243,25.0,0.5475202685394108,1.9085908387870447,2.859854667189615
0465,cdot_cos,S,R-S,183,36,39474,-0.001365632851702267,-0.011578233195399605,-0.07063837882732156,0.14604552818643324,878.0,5.520511310569972,0.6006287134809407,8.125162756134642,-0.04744497046419749,0.022,0.9999999999978582,534.5955355283318,0.9089978511352742,183,2026-10-07 19:16:55.558244,25.0,0.14073862432404713,0.9090233690973726,1.1313864668180156
0465,cdot_cos,T,S-T,184,36,39754,-0.2948615212104409,-0.06202550917870707,-0.29349588835873863,0.0006503188743842405,878.0,5.53561783654026,0.600629488327448,8.147342894419362,-0.02889980367374697,0.28,0.9999999999977983,23933.98772011592,0.9139652552093446,184,2026-10-07 19:16:55.838243,25.0,0.5263938236001556,0.17441190409186455,0.053951878465314476
0465,cdot_cos,P,T-P,185,37,40151,0.03182156065469891,0.0012526395719516536,0.32668308186513983,0.9997162340708659,1321.0,5.6181819768614165,0.6018200395078258,8.185645850182144,-0.15918594171817935,0.397,0.9999999999977931,-109.43346257746562,0.9189327983528573,185,2026-10-07 19:16:56.235244,25.0,0.44111373327774395,0.14587397834596383,0.20797012675354182
0465,cdot_cos,Q,P-Q,186,37,40321,-0.008551944548859113,-0.008751644627505535,-0.04037350520355802,0.2671094976248572,1321.0,5.651441775346956,0.6021379341291235,8.212075202591548,-0.06477418650294132,0.17,0.9999999999977383,296.99072865664414,0.9239000782250401,186,2026-10-07 19:16:56.405244,25.0,0.23280544915355986,0.3319995331408672,0.19564587344434806
0465,cdot_cos,R,Q-R,187,37,40344,0.10823881396076025,0.14052696845372642,0.11679075850961937,0.9488150799162449,1321.0,5.731061818129311,0.6032664478065827,8.249553370624795,-0.15646336043992298,0.023,0.9999999999977293,-81.24772944127767,0.9288671844594686,187,2026-10-07 19:16:56.428244,25.0,0.5565431840819175,2.151320915349883,3.4617409905372036
0465,cdot_cos,S,R-S,188,37,40364,-0.0023335994600810457,-0.003721864538460139,-0.1105724134208413,0.059283525784923574,1321.0,5.75040253745305,0.603336922866269,8.272547868602715,-0.03833505388451086,0.02,0.999999999997669,1676.1717844736995,0.9338342878883922,188,2026-10-07 19:16:56.448243,25.0,0.04589176046548344,0.8784831540753268,0.9670359661869465
0465,cdot_cos,T,S-T,189,37,40651,-0.19671842781311094,0.21735888762451727,-0.1943848283530299,0.007693771068521146,1321.0,5.766201144292324,0.6033460687517613,8.294645852970156,-0.031409859871502424,0.287,0.999999999997607,757.1922936116874,0.9388017155782367,189,2026-10-07 19:16:56.735244,25.0,0.8021350065613411,0.1728909160011376,0.05504741058980538
0465,cdot_cos,P,T-P,190,38,41472,0.025784611093255503,0.0018430662239390164,0.22250303890636644,0.9961758057894171,1055.0,5.849641923237703,0.6045296494115716,8.332875154388582,-0.16714945347222043,0.821,0.9999999999976026,-114.68554548912302,0.9437698014021126,190,2026-10-07 19:16:57.556243,25.0,0.44393142461129415,0.07162720771753942,0.10163310468377446
0465,cdot_cos,Q,P-Q,191,38,41637,-0.013235709458152084,-0.019263312932468357,-0.039020320551407583,0.27378400062006186,1055.0,5.883813019364524,0.6048547249841298,8.359268339276888,-0.06912530911998642,0.165,0.9999999999975319,301.5426338583926,0.9487370806154625,191,2026-10-07 19:16:57.721244,25.0,0.24218231639594406,0.3436865069309238,0.207097552283763
0465,cdot_cos,R,Q-R,192,38,41662,0.08894292066495595,0.18943220236409705,0.10217863012310803,0.9278729556412895,1055.0,5.963058470524908,0.6059557376783032,8.396378848829107,-0.16169934179631096,0.025,0.9999999999975159,-84.08080412354003,0.9537041857193339,192,2026-10-07 19:16:57.746243,25.0,0.5641093458229659,2.0224461872820143,3.169818046415358
0465,cdot_cos,S,R-S,193,38,41682,-0.0024980218424378777,-0.007573290644834831,-0.09144094250739382,0.0922871172898577,1055.0,5.984935328728625,0.6060651868361662,8.419736510213152,-0.0450161246455173,0.02,0.9999999999974493,1066.095157140677,0.9586712853336832,193,2026-10-07 19:16:57.766243,25.0,0.07486778481755747,0.9369098251075014,1.0938429101858382
0465,cdot_cos,T,S-T,194,38,41988,-0.2585255583385952,0.06461379259782335,-0.25602753649615734,0.0016576614262047713,1055.0,6.000534863529208,0.6060671526649402,8.441548466745344,-0.03219987656173124,0.306,0.9999999999973775,6519.513933960649,0.9636387505957946,194,2026-10-07 19:16:58.072243,25.0,0.6716474845658377,0.1639437864874515,0.050978871897331024
0465,cdot_cos,P,T-P,195,39,42527,0.01474109087723032,5.9301998696353494e-05,0.2732666492158255,0.9989221044539944,1237.0,6.085268926058945,0.6072511526805306,8.479810971421918,-0.17618184227792702,0.539,0.9999999999973682,-121.60638836173344,0.9686065199274178,195,2026-10-07 19:16:58.611244,25.0,0.44165113859221644,0.1102879216025611,0.15720605293086648
0465,cdot_cos,Q,P-Q,196,39,42681,-0.025643555475884858,-0.02340864052572237,-0.04038464635311518,0.2670549758149967,1237.0,6.119425243016769,0.6075674741212864,8.505955250450464,-0.07169713957546903,0.154,0.9999999999972976,330.31179439755044,0.9735737919761405,196,2026-10-07 19:16:58.765243,25.0,0.23286266201759137,0.3790185929317853,0.22179426595989507
0465,cdot_cos,R,Q-R,197,39,42710,0.1024088038612049,0.13930011377038518,0.12805235933708975,0.960883506861573,1237.0,6.202006652681935,0.6087048736672678,8.543590763715798,-0.17482316873775094,0.029,0.9999999999972831,-90.66825244184902,0.9785409006529354,197,2026-10-07 19:16:58.794244,25.0,0.5543895637640965,1.771055240693695,2.8476348160402076
0465,cdot_cos,S,R-S,198,39,42732,-0.005424328124678285,-0.009510920272649452,-0.1078331319858832,0.06321996780311612,1237.0,6.222146446977003,0.6087796660198951,8.566299952333926,-0.04298806127259115,0.022,0.9999999999972096,1762.6816490463927,0.9835080008786389,198,2026-10-07 19:16:58.816243,25.0,0.046570675897658294,0.8975339198848157,0.9154451952303769
0465,cdot_cos,T,S-T,199,39,43028,-0.1213698753182811,0.10180942156673659,-0.11594554719360281,0.05222089903418887,1237.0,6.241498145156867,0.6088414420762029,8.588776205350086,-0.04143484004942137,0.296,0.9999999999971368,25.142770775611055,0.988475469559768,199,2026-10-07 19:16:59.112243,25.0,0.9632080232069681,0.17555914085404695,0.0653773587157554
0465,cdot_cos,P,T-P,200,40,43764,0.03653048818902742,-0.0013967482370691065,0.15790036350730852,0.9810628158924171,1080.0,6.326077458362599,0.6100013653104522,8.626733040003163,-0.182412183913285,0.736,0.9999999999971257,-121.54023619942801,0.9934435391434405,200,2026-10-07 19:16:59.848243,25.0,0.46169513815891766,0.07939160215352925,0.11491754511648397
0465,cdot_cos,Q,P-Q,201,40,43914,-0.01087857392120554,-0.01234574112260943,-0.047409062110232957,0.23411374980422553,1080.0,6.358362583526862,0.6102779777774742,8.65219535922336,-0.07025881050967583,0.15,0.9999999999970409,405.4530680091052,0.9984108111722995,201,2026-10-07 19:16:59.998244,25.0,0.20264712761736284,0.3861480040692615,0.21523416776175236
0465,cdot_cos,R,Q-R,202,40,43936,0.11608377098750285,0.1807890335042252,0.1269623449087084,0.9598463017655139,1080.0,6.441921859583378,0.6114113218421221,8.689799466808207,-0.18330831939787917,0.022,0.9999999999970223,-99.74862216560989,1.0033779072960711,202,2026-10-07 19:17:00.020243,25.0,0.5397129636143607,2.339685966005746,3.7981489116597995
0465,cdot_cos,S,R-S,203,40,43956,-0.002621511983484403,-0.005378098327694437,-0.11870528297098724,0.048909755617654045,1080.0,6.461308766031115,0.6114690401898325,8.712104641309534,-0.04286981019492342,0.02,0.9999999999969399,2433.169256812419,1.0083450015140787,203,2026-10-07 19:17:00.040244,25.0,0.037781705410000005,0.8822047543357581,0.9693453223868609
0465,cdot_cos,T,S-T,204,40,44245,-0.374947060285617,0.1175424267656446,-0.37232554830213255,9.06749534091444e-05,1080.0,6.477210049756808,0.6114691471923406,8.733538157683265,-0.035258298625495135,0.289,0.9999999999968554,71133.95476676927,1.0133124751029774,204,2026-10-07 19:17:00.329243,25.0,0.8058331372465263,0.17798239415735,0.05502174299547788
0465,cdot_cos,P,T-P,205,41,44844,0.02389390582256957,0.0001949914795377929,0.39884096610818653,0.9999532675085254,1155.0,6.564182589854063,0.6126485034685807,8.771803783071366,-0.19416323399167817,0.599,0.9999999999968424,-134.7387032803914,1.0182803932065352,205,2026-10-07 19:17:00.928244,25.0,0.4411329453576029,0.10287146918703871,0.14519622720743772
0465,cdot_cos,Q,P-Q,206,41,44996,-0.013019069372466031,-0.014608905683761029,-0.0369129751950356,0.2843827571294629,1155.0,6.60045006984288,0.6129836673698917,8.79798351179936,-0.08170500463010814,0.152,0.9999999999967594,335.53204543111514,1.0232476744065861,206,2026-10-07 19:17:01.080243,25.0,0.25248753370308996,0.3948077158004744,0.23860184203169202
0465,cdot_cos,R,Q-R,207,41,45024,0.10314991003584335,0.15714607189690305,0.11616897940830939,0.9480548736465919,1155.0,6.684204135457407,0.6141002385070463,8.835376747619737,-0.19020160090530158,0.028,0.9999999999967389,-97.16944372364998,1.028214777038761,207,2026-10-07 19:17:01.108243,25.0,0.5652826209436564,1.8665261268920714,2.991216629090251
0465,cdot_cos,S,R-S,208,41,45050,-0.0035963425580360434,-0.007341264501193704,-0.1067462525938794,0.06484840619764326,1155.0,6.704975532948836,0.6141765699816806,8.857793362345172,-0.047538556225813496,0.026,0.9999999999966516,1868.9936931397078,1.0331818776953776,208,2026-10-07 19:17:01.134243,25.0,0.0497374762576479,0.720108944405158,0.7988999035164992
0465,cdot_cos,T,S-T,209,41,45344,-0.19630089761918362,0.12397960882760142,-0.1927045550611476,0.00802119859115316,1155.0,6.7216498005664755,0.614186011148472,8.879197061999628,-0.038268025878974744,0.294,0.9999999999965616,981.9263393605235,1.0381493746199857,209,2026-10-07 19:17:01.428244,25.0,0.7848578649840157,0.1775878114240661,0.05671519597836476
0465,cdot_cos,P,T-P,210,42,45999,0.023302740338760904,0.0002902993224256849,0.21960363795794452,0.9958894972036743,1238.0,6.809397166066187,0.6153575304604139,8.917391011172581,-0.2027190066690814,0.655,0.9999999999965472,-140.3741100242949,1.0431174136095744,210,2026-10-07 19:17:02.083244,25.0,0.44431289070290964,0.0959044275748089,0.1339654435110101
0465,cdot_cos,Q,P-Q,211,42,46149,-0.010469788766747938,-0.010020940696649076,-0.03377252910550884,0.3006271467723969,1238.0,6.847284600689475,0.6157109126021026,8.94373156061172,-0.08831197591244494,0.15,0.9999999999964576,323.74876163773985,1.0480846979813332,211,2026-10-07 19:17:02.233243,25.0,0.2737644650916765,0.41188916889918364,0.25258289748858687
0465,cdot_cos,R,Q-R,212,42,46176,0.11726802954938723,0.14548343356700905,0.12773781831613518,0.9605868717728349,1238.0,6.932963916735942,0.6168392462862619,8.98132907307988,-0.20129373755940588,0.027,0.9999999999964357,-100.131515378051,1.0530517967209438,212,2026-10-07 19:17:02.260243,25.0,0.5704794818136468,1.9530154504039223,3.173308001721002
0465,cdot_cos,S,R-S,213,42,46194,-0.002567170708086686,-0.003930798249696417,-0.1198352002574739,0.047612348162810375,1238.0,6.952747435011287,0.6168951405384008,9.003302248638496,-0.04683226284126398,0.018,0.9999999999963404,2763.4590106731844,1.058018882540253,213,2026-10-07 19:17:02.278244,25.0,0.036950164905319584,1.0201155213501858,1.0990843486302637
0465,cdot_cos,T,S-T,214,42,46483,-0.19156549266805378,0.18608384542473966,-0.1889983219599671,0.008793081867145568,1238.0,6.969688075504549,0.616905462790079,9.02456297127623,-0.04020815485594767,0.289,0.9999999999962432,641.7309121919058,1.0629863881023391,214,2026-10-07 19:17:02.567244,25.0,0.8481096173244659,0.18295541570060778,0.05861813319467799
0465,cdot_cos,P,T-P,215,43,47237,0.029095239729141922,-0.0005122366005966448,0.2206607323971957,0.9959962748807191,1101.0,7.058495665286238,0.6180739846255934,9.062757998451193,-0.2121365150035522,0.754,0.9999999999962272,-147.13320275433043,1.0679546237002893,215,2026-10-07 19:17:03.321243,25.0,0.44465305894232193,0.08278552074768743,0.11778194931258534
0465,cdot_cos,Q,P-Q,216,43,47388,-0.010904847968062308,-0.01278165241342575,-0.04000008769720423,0.2689409903122919,1101.0,7.094528640792062,0.6183892778800698,9.088444453810657,-0.08681128689459053,0.151,0.9999999999961239,397.4878191322955,1.0729219151723701,216,2026-10-07 19:17:03.472243,25.0,0.23606423926984033,0.40428096392509727,0.23862897685975692
0465,cdot_cos,R,Q-R,217,43,47415,0.10855881826713697,0.17237421947516107,0.11946366623519927,0.9519646935476201,1101.0,7.180588516391618,0.6195045119616887,9.12588675687918,-0.20889043272058308,0.027,0.9999999999960967,-109.46504221677462,1.0778890107847225,217,2026-10-07 19:17:03.499244,25.0,0.5574306803590219,1.9796469452928949,3.1874027999835586
0465,cdot_cos,S,R-S,218,43,47433,-0.002334521843149929,-0.004832832862391668,-0.1108933401102869,0.05883766080118277,1101.0,7.201429575837878,0.6195733995129101,9.14790705207123,-0.05096214638518448,0.018,0.9999999999959938,2292.5518984940554,1.0828560928754167,218,2026-10-07 19:17:03.517244,25.0,0.04509728744730631,1.0390995119359876,1.1578366359033472
0465,cdot_cos,T,S-T,219,43,47737,-0.2813829710970091,0.13803459899947193,-0.2790484492538592,0.0009329633589454878,1101.0,7.217996098821313,0.6195744917942685,9.168880601515742,-0.040615053561829664,0.304,0.9999999999958865,9472.9189911997,1.0878236380514907,219,2026-10-07 19:17:03.821243,25.0,0.7751024663094961,0.17542352393885488,0.054495141392879295
0465,cdot_cos,P,T-P,220,44,48338,0.013981261132897443,0.0006127436846747338,0.29536423222990654,0.9993793397075064,1201.0,7.308087078392702,0.6207438335534002,9.20713473304803,-0.22223837669884333,0.601,0.9999999999958662,-155.32099295921105,1.0927916719153283,220,2026-10-07 19:17:04.422244,25.0,0.4416464762908117,0.10995902224061296,0.1499017962918277
0465,cdot_cos,Q,P-Q,221,44,48496,-0.011636563221105073,-0.012701603852965189,-0.025617824354002516,0.34514581585174353,1201.0,7.35016684355453,0.6211473527642561,9.234035780767353,-0.10470435714258658,0.158,0.9999999999957676,291.27242618004385,1.0977589818196491,221,2026-10-07 19:17:04.580243,25.0,0.3254546117754272,0.40877211584410533,0.26632762760650835
0465,cdot_cos,R,Q-R,222,44,48522,0.10815150434739024,0.15877358260214525,0.1197880675684953,0.9523341920657563,1201.0,7.437259066999439,0.6222598815488443,9.271480112427527,-0.21836398294174175,0.026,0.9999999999957399,-102.16331242272925,1.1027260736356024,222,2026-10-07 19:17:04.606244,25.0,0.5942201708555076,2.0805730985554463,3.3497009017272683
0465,cdot_cos,S,R-S,223,44,48545,-0.0027254522915782986,-0.005175456647745695,-0.11087695663896853,0.05886034609184104,1201.0,7.458356644679413,0.6223286008498874,9.293364519729817,-0.05328062990453094,0.023,0.9999999999956304,2402.2851008569032,1.107693161415767,223,2026-10-07 19:17:04.629244,25.0,0.04512248264735176,0.8280744627484143,0.9172859860858358
0465,cdot_cos,T,S-T,224,44,48837,-0.22443629427035164,0.17183771950940915,-0.22171084197877333,0.003900388698539057,1201.0,7.475350492285866,0.6223331543699313,9.31424646062945,-0.04302646668879051,0.292,0.9999999999955159,2251.920078718705,1.1126607047065202,224,2026-10-07 19:17:04.921243,25.0,0.7879487544845419,0.18494877198024823,0.05819810824127685
0465,cdot_cos,P,T-P,225,45,49539,0.021267834624307452,0.001377167855767545,0.2457041288946591,0.9978552885055031,1173.0,7.566366727515878,0.6234973923347974,9.352477924132003,-0.23182647733793393,0.702,0.999999999995496,-162.16616907082167,1.1176289517388163,225,2026-10-07 19:17:05.623244,25.0,0.44290398285022925,0.09318163611122665,0.12965275673790902
0465,cdot_cos,Q,P-Q,226,45,49703,-0.011080875952082443,-0.0124425647849058,-0.0323487105763899,0.30816379961545115,1173.0,7.606177509386028,0.6238566521236122,9.378639936961646,-0.10224487333166869,0.164,0.999999999995383,360.690531032595,1.1225962788218813,226,2026-10-07 19:17:05.787244,25.0,0.28157250595989514,0.3898878652604615,0.24274866993993952
0465,cdot_cos,R,Q-R,227,45,49721,0.10861509116313703,0.16386616694985356,0.11969596711521947,0.9522295634509697,1173.0,7.6942499473213095,0.6249659067182549,9.416078980707134,-0.22783201418427626,0.018,0.9999999999953509,-113.21759806914035,1.1275633536240657,227,2026-10-07 19:17:05.805243,25.0,0.5762423696604301,3.03726008118119,4.892913218626739
0465,cdot_cos,S,R-S,228,45,49743,-0.0029854872768925946,-0.005848620589123784,-0.11160057844002963,0.05786616689120171,1173.0,7.715518872308551,0.6250332730227647,9.437813605485049,-0.055409210425275655,0.022,0.9999999999952321,2559.4814056337336,1.1325304364811886,228,2026-10-07 19:17:05.827244,25.0,0.04452040615065152,0.8740152233025792,0.9667693176018879
0465,cdot_cos,T,S-T,229,45,50035,-0.22562745523331137,0.1508225172992446,-0.22264196795641877,0.00381098548919884,1173.0,7.732706617146623,0.6250377095042249,9.458555010155353,-0.04488857770143748,0.292,0.9999999999951091,2371.3911166350554,1.1374979965923395,229,2026-10-07 19:17:06.119244,25.0,0.7910673608509954,0.18704562799696933,0.05886213985641079
0465,cdot_cos,P,T-P,230,46,50712,0.022972767103608425,-0.00010387594260563583,0.2486002223369198,0.9980047836091077,1120.0,7.824753519058781,0.6261987917171196,9.496793398129208,-0.2417936407022236,0.677,0.9999999999950864,-169.58752861253828,1.1424662465155617,230,2026-10-07 19:17:06.796243,25.0,0.4429263822935731,0.09642826081297513,0.1359629274921095
0465,cdot_cos,Q,P-Q,231,46,50861,-0.013805183993191037,-0.014811341433770612,-0.03677795109679946,0.2850702230113008,1120.0,7.863270482287391,0.6265301773258921,9.522453759955074,-0.10199103522065442,0.149,0.9999999999949641,421.8728930305609,1.147433554015589,231,2026-10-07 19:17:06.945244,25.0,0.2539204492225239,0.430197077535723,0.258503108916847
0465,cdot_cos,R,Q-R,232,46,50883,0.11399005701108565,0.16617686755106595,0.1277952410042767,0.9606411860425466,1120.0,7.952952248164427,0.6276460182720696,9.560038975928517,-0.23912322022787075,0.022,0.9999999999949308,-122.8958172551311,1.1524006328139194,232,2026-10-07 19:17:06.967244,25.0,0.563561300348635,2.514891007283597,4.076443903501603
0465,cdot_cos,S,R-S,233,46,50904,-0.0031140729348778633,-0.005873334350515147,-0.11710412994596352,0.05080578284119756,1120.0,7.97392568660787,0.6277049944292068,9.581520534173245,-0.05631025741247386,0.021,0.9999999999948026,3099.777464136833,1.1573677108252567,233,2026-10-07 19:17:06.988243,25.0,0.038908972274600634,0.9102453060176979,0.9987351639734768
0465,cdot_cos,T,S-T,234,46,51195,-0.24856944278971313,0.1457234368140061,-0.24545536985483526,0.0021580620902508178,1120.0,7.99118255101717,0.6277074994577004,9.602097991261413,-0.04644296058192242,0.291,0.9999999999946705,3938.99584600009,1.1623352862775629,234,2026-10-07 19:17:07.279244,25.0,0.8085922167149874,0.189634799402783,0.05930193955086014
0465,cdot_cos,P,T-P,235,47,51832,0.01976972429256951,-7.748686485869331e-05,0.2683391670822826,0.9987809689434503,1196.0,8.08429313986029,0.6288661232443326,9.640355136242613,-0.25199721187874424,0.637,0.9999999999946463,-177.41242124359098,1.167303508047154,235,2026-10-07 19:17:07.916243,25.0,0.44232936784581084,0.1048416468296958,0.14617046914147472
0465,cdot_cos,Q,P-Q,236,47,51982,-0.01317963501005623,-0.012443916445993533,-0.03294935930262574,0.30497161440416826,1196.0,8.124750809078202,0.6292196073557978,9.666275991989167,-0.11036247503278282,0.15,0.9999999999945202,400.68204553478637,1.1722708242870836,236,2026-10-07 19:17:08.066243,25.0,0.27710478614593437,0.4382552634989286,0.26971779478608704
0465,cdot_cos,R,Q-R,237,47,52003,0.11997766710874651,0.15024875347505437,0.13315730211880275,0.9654081397432288,1196.0,8.215769718909968,0.6303376712929493,9.703946243905426,-0.2499884685017436,0.021,0.9999999999944861,-124.88193995836917,1.177237898443578,237,2026-10-07 19:17:08.087244,25.0,0.5720495093075078,2.6588705913695945,4.334233801512644
0465,cdot_cos,S,R-S,238,47,52023,-0.003569025334796476,-0.005613859047106657,-0.12354669244354298,0.04357714522703173,1196.0,8.236423373915725,0.6303881062336586,9.725175170841059,-0.05711091266064758,0.02,0.9999999999943492,3824.2843776241093,1.1822049717471514,238,2026-10-07 19:17:08.107244,25.0,0.03414137785960752,0.9773939377126784,1.0326827502878722
0465,cdot_cos,T,S-T,239,47,52312,-0.1707692004748653,0.1410795345301391,-0.16720017514006882,0.015067924829625405,1196.0,8.254865476418475,0.630405544756307,9.745854331987962,-0.05111578128737703,0.289,0.9999999999942116,343.7866552209268,1.1871725613079884,239,2026-10-07 19:17:08.396243,25.0,0.8893314023451071,0.19417739238097653,0.06381350346972212
0465,cdot_cos,P,T-P,240,48,53028,0.03826669670208935,0.0018846475238308226,0.20903589717695464,0.994653208226465,1041.0,8.34865790671193,0.6315559294489201,9.784043911809142,-0.26139388399346464,0.716,0.9999999999941852,-182.78937824565764,1.1921409806573928,240,2026-10-07 19:17:09.112243,25.0,0.4473342472672618,0.09018812930828604,0.13099501437633346
0465,cdot_cos,Q,P-Q,241,48,53180,-0.009360821127216807,-0.01244271206580519,-0.04762751782930615,0.2331359198030241,1041.0,8.38401487758794,0.6318253513578932,9.808589792820921,-0.0992739895071007,0.152,0.999999999994039,601.7324096036206,1.1971083071143602,241,2026-10-07 19:17:09.264243,25.0,0.19533190386114796,0.41273726249908316,0.23261165050007146
0465,cdot_cos,R,Q-R,242,48,53207,0.10166426287013727,0.19361441737377436,0.11102508399735408,0.941344459957868,1041.0,8.474130034511651,0.6329123716017185,9.845828699540396,-0.25460381849917313,0.027,0.9999999999939988,-142.8950655467554,1.2020753895729732,242,2026-10-07 19:17:09.291244,25.0,0.5433049884131326,2.0952895177633755,3.3375984045818674
0465,cdot_cos,S,R-S,243,48,53227,-0.0008599243359433579,-0.002259756529495598,-0.10252418720608063,0.07155101924419166,1041.0,8.497160511547163,0.6329949402496965,9.867437416677618,-0.06549896846867395,0.02,0.9999999999938548,2290.274270701274,1.2070424592338764,243,2026-10-07 19:17:09.311244,25.0,0.05573525346919935,1.012422069369201,1.1515238517755932
0465,cdot_cos,T,S-T,244,48,53528,-0.4631764734990568,0.0552332180379735,-0.46231654916311343,9.559995619435128e-06,1041.0,8.514626917286419,0.6329949512812458,9.887720053607776,-0.04979323238012395,0.301,0.9999999999937038,1423710.8137326858,1.21201008935849,244,2026-10-07 19:17:09.612243,25.0,0.7294830904988093,0.18711956632720816,0.058027926044040445
0465,cdot_cos,P,T-P,245,49,54069,0.014898579466062038,0.0006082717897837892,0.4780750529651188,0.9999935529169595,1200.0,8.609806490476142,0.6341481079815342,9.926011212880402,-0.2727720722569998,0.541,0.9999999999936757,-193.363867912414,1.2169782058293233,245,2026-10-07 19:17:10.153243,25.0,0.4415540687626542,0.12962608186138452,0.17593266763349932
0465,cdot_cos,Q,P-Q,246,49,54222,-0.009295985271050475,-0.009740831028493855,-0.02419456473711251,0.3532316501979751,1200.0,8.654882337860437,0.6345550755788039,9.952631620647448,-0.130178115602153,0.153,0.9999999999935449,350.38159699078795,1.2219455423002952,246,2026-10-07 19:17:10.306243,25.0,0.33441391280714616,0.4485047356741199,0.2946133815966989
0465,cdot_cos,R,Q-R,247,49,54249,0.11339305073640053,0.15908124621012953,0.12268903600745101,0.9555204188599521,1200.0,8.747048939592423,0.6356549919988588,9.990126716505193,-0.26794719469474054,0.027,0.9999999999935073,-125.25413438751042,1.22691262302613,247,2026-10-07 19:17:10.333244,25.0,0.5979996942483885,2.1121365016656815,3.413577841925399
0465,cdot_cos,S,R-S,248,49,54272,-0.0013754571586731689,-0.002500350875999281,-0.1147685078950737,0.05369664340841636,1200.0,8.768937708950384,0.6357167612367436,10.011301909399394,-0.06404764919444556,0.023,0.9999999999933549,3300.988525720981,1.2318796966141317,248,2026-10-07 19:17:10.356243,25.0,0.041437866000915764,0.8601513441892735,0.951685624259175
0465,cdot_cos,T,S-T,249,49,54568,-0.3390228550218276,0.19402335851085462,-0.33764739786315445,0.00021574773688241763,1200.0,8.78661590142513,0.6357170094103384,10.031469540024588,-0.051844137638006216,0.296,0.9999999999931974,49173.28762142481,1.2368473366688013,249,2026-10-07 19:17:10.652243,25.0,0.7902638065902099,0.19228603273345657,0.059723623225491754
0465,cdot_cos,P,T-P,250,50,55269,0.018501424594201572,0.0007693981005332513,0.3575242796160292,0.9998687278975591,1036.0,8.88277104032859,0.6368663764031393,10.069766367510057,-0.28343445918222193,0.701,0.9999999999931701,-201.49379875600513,1.2418158274419302,250,2026-10-07 19:17:11.353244,25.0,0.44171695496883434,0.09924411241013985,0.13716852910622074
0465,cdot_cos,Q,P-Q,251,50,55420,-0.011532735407947109,-0.015064725952680408,-0.03003416000214868,0.3206352469692414,1036.0,8.925756147024146,0.6372346222285886,10.095721085034596,-0.1276483641566203,0.151,0.9999999999930215,423.0491814414956,1.2467831666794913,251,2026-10-07 19:17:11.504243,25.0,0.295102778347255,0.4478576945584336,0.2846695807652671
0465,cdot_cos,R,Q-R,252,50,55447,0.10212676722096188,0.1918164031795278,0.11365950262890899,0.9448769925706841,1036.0,9.018024064085237,0.6383188650948936,10.133024058968353,-0.2757223954801914,0.027,0.9999999999929791,-136.56906208495832,1.2517502442695305,252,2026-10-07 19:17:11.531244,25.0,0.584475581404322,2.14150843203851,3.4173302615219114
0465,cdot_cos,S,R-S,253,50,55468,-0.0015897799538566538,-0.004278413392710364,-0.10371654717481854,0.06959587869466836,1036.0,9.041397602354225,0.6383986705950656,10.154378688327016,-0.07029017629553036,0.021,0.9999999999928176,2574.1611636009297,1.2567173101241216,253,2026-10-07 19:17:11.552243,25.0,0.05379199650744049,0.9826311606615723,1.1130256318565672
0465,cdot_cos,T,S-T,254,50,55767,-0.299166683272177,0.08038710785749355,-0.2975769033183203,0.0005872793042987778,1036.0,9.059294572833023,0.6383993439949668,10.174437508590447,-0.05394371935815337,0.299,0.9999999999926497,24274.51638895539,1.2616849752710992,254,2026-10-07 19:17:11.851244,25.0,0.7385784220778463,0.192323706688741,0.05985608855785326
0465,cdot_cos,P,T-P,255,51,56305,0.024837831201561255,2.7511184837513423e-05,0.32400451447373824,0.9996965872052392,1098.0,9.156407178954092,0.6395448493713317,10.21273894351865,-0.2941626859580346,0.538,0.9999999999926193,-209.7056649023996,1.266653163534058,255,2026-10-07 19:17:12.389244,25.0,0.44192308156272747,0.12771030482807047,0.18050670282726575
0465,cdot_cos,Q,P-Q,256,51,56454,-0.012664733047705535,-0.014504792694833369,-0.03750256424926679,0.2813926442735505,1098.0,9.196710860828027,0.6398669983415969,10.237899631068917,-0.12295643125343898,0.149,0.9999999999924639,531.45057258346,1.2716205065501698,256,2026-10-07 19:17:12.538244,25.0,0.24847476515090722,0.45017604353831553,0.2704945092210393
0465,cdot_cos,R,Q-R,257,51,56478,0.10789830283964187,0.16703924447958232,0.1205630358873474,0.9532059931741409,1098.0,9.29055963992851,0.6409573274665608,10.275355492377193,-0.2880185120458965,0.024,0.9999999999924228,-151.38739029641772,1.2765875756783815,257,2026-10-07 19:17:12.562243,25.0,0.5637776247541993,2.4286448122299666,3.9103657958534654
0465,cdot_cos,S,R-S,258,51,56498,-0.0032250880200165523,-0.006557165542857447,-0.11112339085965843,0.0585199866410379,1098.0,9.313285811815065,0.6410242185361823,10.296401414477316,-0.07017993329776474,0.02,0.9999999999922543,3256.616764847947,1.2815546370397188,258,2026-10-07 19:17:12.582243,25.0,0.04486932343370959,1.0302239832482574,1.1363085943277618
0465,cdot_cos,T,S-T,259,51,56785,-0.2100530947097257,0.10395473372925194,-0.20682800668970913,0.0056485032320699345,1098.0,9.33176859925844,0.6410306747482217,10.316440217696917,-0.05720207664775383,0.287,0.9999999999920803,2010.1348237561172,1.2865222954961992,259,2026-10-07 19:17:12.869244,25.0,0.7970185154913009,0.20271017698578614,0.06439995624869359
0465,cdot_cos,P,T-P,260,52,57403,0.02580607540156203,0.00032948324384441606,0.2358591701112877,0.9972584301579984,1038.0,9.429641453404907,0.6421697337550236,10.354704143279626,-0.30436759003518715,0.618,0.9999999999920512,-216.99096527175905,1.2914907035479886,260,2026-10-07 19:17:13.487243,25.0,0.4439414813493359,0.11303351125046239,0.1583703141528579
0465,cdot_cos,Q,P-Q,261,52,57551,-0.008941375272389345,-0.011387398956563696,-0.03474745067395138,0.2955277360532081,1038.0,9.471478019164012,0.6425069752317455,10.380047350927148,-0.1310186013179755,0.148,0.9999999999918886,514.0203702173175,1.2964580517731552,261,2026-10-07 19:17:13.635243,25.0,0.26631196634607773,0.4616746014113537,0.2826794983723333
0465,cdot_cos,R,Q-R,262,52,57579,0.11221768547427868,0.19921856033413035,0.12115906074666803,0.9538661550571086,1038.0,9.566297135422667,0.6435945157502895,10.417517019996815,-0.29868440306848665,0.028,0.9999999999918465,-154.16970576414457,1.3014251274384716,262,2026-10-07 19:17:13.663244,25.0,0.5704397656938316,2.0982859283099144,3.386397009237691
0465,cdot_cos,S,R-S,263,52,57597,-0.0013858010729170481,-0.0033320357967878676,-0.11360348654719574,0.05519599207356493,1038.0,9.588982031149367,0.643657401709709,10.438398625123012,-0.07189391451958164,0.018,0.9999999999916684,3606.3771729397786,1.306392181171298,263,2026-10-07 19:17:13.681243,25.0,0.04265905193685192,1.1362738929574512,1.2602719848166584
0465,cdot_cos,T,S-T,264,52,57883,-0.3673312949907115,0.11373696991678597,-0.36594549391779446,0.00010635332980548157,1038.0,9.607202995569136,0.6436575228755227,10.45822655501593,-0.05786997229064264,0.286,0.9999999999914844,115741.74099838232,1.3113598561725786,264,2026-10-07 19:17:13.967244,25.0,0.7847929227321614,0.20499417102381082,0.063709665803386
0465,cdot_cos,P,T-P,265,53,58441,0.030250292130710926,0.0006159190108600992,0.39758158712142244,0.9999517728253506,922.0,9.706238696974987,0.6447959293799292,10.496547442043635,-0.3160060423892138,0.558,0.999999999991455,-226.75210401502108,1.3163281702311527,265,2026-10-07 19:17:14.525243,25.0,0.44181206572104625,0.12491834123878945,0.17748333585278026
0465,cdot_cos,Q,P-Q,266,53,58591,-0.00903755010769466,-0.014906054139569927,-0.03928784223840559,0.27245625554618214,922.0,9.746611864391625,0.6451058270983195,10.521388926798688,-0.12970295533214252,0.15,0.9999999999912845,601.1760526175776,1.3212955311143038,266,2026-10-07 19:17:14.675244,25.0,0.23778633863926738,0.4453493414585985,0.26915444944425104
0465,cdot_cos,R,Q-R,267,53,58617,0.09040619297551467,0.22986860729552308,0.09944374308320933,0.9231611596276641,922.0,9.839843499412567,0.6461549449026336,10.558290308964557,-0.3011706406168932,0.026,0.9999999999912375,-163.43987737093317,1.326262600099251,267,2026-10-07 19:17:14.701244,25.0,0.5659003254990529,2.29054266504617,3.585832116190073
0465,cdot_cos,S,R-S,268,53,58636,-0.0012524002597914894,-0.005118298212482608,-0.09165859323530616,0.09183231123405056,922.0,9.865720082974025,0.6462592301540494,10.579751067039696,-0.08408759026222012,0.019,0.9999999999910589,2081.6275303312304,1.3312296535259702,268,2026-10-07 19:17:14.720243,25.0,0.07565058876975769,1.1650227076266804,1.3619254506031022
0465,cdot_cos,T,S-T,269,53,58924,-0.38498383055626423,-0.007005574954255599,-0.3837314302964727,6.81803648426197e-05,922.0,9.88411436230238,0.6462593075748592,10.59947222427228,-0.059907695294427965,0.288,0.9999999999908666,312317.77401667205,1.336197352660066,269,2026-10-07 19:17:15.008243,25.0,0.6678984206130233,0.2054968287635696,0.06386902544567678
0465,cdot_cos,P,T-P,270,54,59363,0.0146350979855954,0.0006681642075700211,0.39961892854185965,0.9999541675887086,1059.0,9.984086256341842,0.6473939582813444,10.63780025151654,-0.32706833395066126,0.439,0.9999999999908377,-235.45628370849977,1.3411654209104003,270,2026-10-07 19:17:15.447244,25.0,0.441828131442308,0.16519276044115289,0.22772641011266778
0465,cdot_cos,Q,P-Q,271,54,59528,-0.01456337608099759,-0.020164319026575925,-0.02919847406659299,0.32520309886307763,1059.0,10.029153605969713,0.6477626098772247,10.66355127594041,-0.14844809496329875,0.165,0.9999999999906785,484.52316762889086,1.3461328277381415,271,2026-10-07 19:17:15.612243,25.0,0.30021678070076174,0.4255921924660813,0.27313545229012764
0465,cdot_cos,R,Q-R,272,54,59547,0.09451373309947478,0.18744749788334628,0.10907710918047236,0.9385970124659846,1059.0,10.124531679855648,0.6488256194324825,10.700739413211378,-0.31593479433498506,0.019,0.9999999999906358,-157.55897822673924,1.3510998783205201,272,2026-10-07 19:17:15.631244,25.0,0.5885281079370471,3.16977409703535,5.019898625575568
0465,cdot_cos,S,R-S,273,54,59570,-0.0037541666009605888,-0.010640231403650571,-0.09826789970043537,0.07895015200649581,1059.0,10.149605021657056,0.6489149674598788,10.721868032925263,-0.08354086094367769,0.023,0.9999999999904512,2600.9968005301976,1.356066939988949,273,2026-10-07 19:17:15.654243,25.0,0.06192696339962689,0.9575817722790471,1.0901452957133706
0465,cdot_cos,T,S-T,274,54,59861,-0.21621774976092267,0.06274605681237362,-0.21246358315996208,0.004909851786368841,1059.0,10.168580441380485,0.6489205236032798,10.7415791058016,-0.06336038130311453,0.291,0.9999999999902557,3632.102014648986,1.3610346678003118,274,2026-10-07 19:17:15.945244,25.0,0.7272368031065392,0.20555187935759084,0.06520762791556235
0465,cdot_cos,P,T-P,275,55,60422,0.01456988654258719,0.0006639400503355767,0.23078763630350987,0.9968889866510814,995.0,10.269236215443174,0.6500477970148932,10.779856887767693,-0.33757541263939383,0.561,0.9999999999902288,-243.2551220593409,1.3660030755740526,275,2026-10-07 19:17:16.506243,25.0,0.44383275039737247,0.13074427407336503,0.17942205715274367
0465,cdot_cos,Q,P-Q,276,55,60587,-0.013433356921101234,-0.020696976040021693,-0.028003243463688425,0.33179425013567493,995.0,10.3152755168908,0.6504226163030645,10.805666956760813,-0.15543616821852035,0.165,0.9999999999900596,485.93882483880236,1.3709704920161994,276,2026-10-07 19:17:16.671244,25.0,0.30981049239667924,0.42813021619865826,0.27902606937955365
0465,cdot_cos,R,Q-R,277,55,60605,0.08778169669297554,0.20551919662995422,0.10121505361407677,0.9262440675876598,995.0,10.410519186788731,0.6514679855396458,10.842623363642275,-0.32331557461832927,0.018,0.9999999999900138,-160.59340616224173,1.3759375371084395,277,2026-10-07 19:17:16.689243,25.0,0.5949706646218397,3.384649842005495,5.291314994329493
0465,cdot_cos,S,R-S,278,55,60628,-0.0025963252634718698,-0.009518823080002632,-0.09037802195644741,0.09453739152658258,995.0,10.437122911202998,0.6515745997287209,10.863954778600899,-0.09082753328825811,0.023,0.9999999999898234,2180.648217155392,1.3809045962083233,278,2026-10-07 19:17:16.712243,25.0,0.07733065605752613,0.9881579291548247,1.1566836701855197
0465,cdot_cos,T,S-T,279,55,60922,-0.27265034311383834,0.029281544753227428,-0.2700540178503665,0.0011679338135779402,995.0,10.455974451529853,0.6515759167668204,10.8834986533402,-0.0645011408660608,0.294,0.9999999999896182,19989.08948254226,1.3858723523772902,279,2026-10-07 19:17:17.006243,25.0,0.6648765441462158,0.20519018942369616,0.06412088546549316
0465,cdot_cos,P,T-P,280,56,61417,0.03291032090663742,0.00038339158631266965,0.30556066402047577,0.9995189300086367,980.0,10.557774742584131,0.6527021884288063,10.921832341055724,-0.3497946818319111,0.495,0.9999999999895909,-253.30792791393358,1.3908406333792422,280,2026-10-07 19:17:17.501244,25.0,0.44237256070164266,0.1439326071529005,0.20565715364500675
0465,cdot_cos,Q,P-Q,281,56,61569,-0.008422640367974982,-0.012478882988359963,-0.041332961274612404,0.2624401789501373,980.0,10.598467732611224,0.6529976271890597,10.946271733421545,-0.1407168276790036,0.152,0.9999999999894051,707.6859311675354,1.3958080259538774,281,2026-10-07 19:17:17.653243,25.0,0.22631993812319728,0.4511457514315464,0.2677170396519286
0465,cdot_cos,R,Q-R,282,56,61595,0.09533241984716598,0.21040317594118454,0.10375506021514096,0.9304664406662763,980.0,10.694923051019321,0.6540441375557812,10.983305872398683,-0.3352295131456611,0.026,0.999999999989361,-185.86790121920924,1.4007750897047107,282,2026-10-07 19:17:17.679244,25.0,0.5597654885922473,2.3526768340984723,3.7098199387729602
0465,cdot_cos,S,R-S,283,56,61614,-0.0007404931161544768,-0.002408320689839556,-0.09607291296332046,0.08303380261562324,980.0,10.720806927984345,0.6541374547378687,11.004332351429529,-0.09046465939225605,0.019,0.999999999989162,2622.934472280952,1.4057421361289413,283,2026-10-07 19:17:17.698244,25.0,0.06682750158988629,1.1796083948409568,1.36230931394861
0465,cdot_cos,T,S-T,284,56,61901,-0.3409029910195059,0.05171047019941397,-0.3401624979033514,0.0002026024100688099,980.0,10.739748170023278,0.6541376824172089,11.023761243231263,-0.06633860920739736,0.287,0.9999999999889494,105965.03905996276,1.4107098946550822,284,2026-10-07 19:17:17.985244,25.0,0.6951133357689693,0.2119880536412898,0.06599735902067168
0465,cdot_cos,P,T-P,285,57,62397,0.024316332861852464,0.0004723452877395572,0.36521932388135836,0.9998916984838389,1080.0,10.842488070774445,0.6552604727833111,11.06210763006094,-0.3613134192410399,0.496,0.9999999999889235,-262.71583631204396,1.4156782164739616,285,2026-10-07 19:17:18.481244,25.0,0.44202185866003624,0.14804649778517712,0.20713689667574106
0465,cdot_cos,Q,P-Q,286,57,62564,-0.009776504278916418,-0.01327432371890351,-0.034092837140768883,0.2989462165531714,1080.0,10.886610295826173,0.6555958275276558,11.08717029399793,-0.156151966184689,0.167,0.9999999999887393,611.774416542925,1.4206456585719363,286,2026-10-07 19:17:18.648243,25.0,0.2687811940446894,0.4256113584085431,0.26420494042950976
0465,cdot_cos,R,Q-R,287,57,62583,0.09957386507356566,0.19177910603281345,0.10935036935248209,0.9389895525494836,1080.0,10.984642264482899,0.6566481674204707,11.12436454491989,-0.34870398062565605,0.019,0.9999999999886966,-182.9751164577653,1.4256127013724342,287,2026-10-07 19:17:18.667244,25.0,0.5756857521802043,3.244338112770765,5.159577297722382
0465,cdot_cos,S,R-S,288,57,62605,-0.002230914565970839,-0.0059998641310612996,-0.1018047796395365,0.07275504728159793,1080.0,11.009895144111463,0.6567296410715258,11.145110680372845,-0.09032185917181021,0.022,0.9999999999884887,3171.3580784453698,1.4305797535852685,288,2026-10-07 19:17:18.689243,25.0,0.057229713299267584,1.0103881127167083,1.147858164934719
0465,cdot_cos,T,S-T,289,57,62897,-0.2691290457557018,0.10728928545778912,-0.26689813118973094,0.0012636918901482636,1080.0,11.029099341442434,0.6567310561164512,11.16446704099422,-0.06882631845633032,0.292,0.9999999999882684,15190.712555320426,1.4355475466662417,289,2026-10-07 19:17:18.981244,25.0,0.7317504686880384,0.21028618124582826,0.06576779907866898
0465,cdot_cos,P,T-P,290,58,63477,0.026454247529860978,0.0021452761742151113,0.29558329328556276,0.999382727387005,916.0,11.132702273959026,0.6578492620440152,11.202808969716745,-0.3727900972530581,0.58,0.999999999988243,-271.8316647264806,1.4405161395817097,290,2026-10-07 19:17:19.561243,25.0,0.4424733055302689,0.12691639701034443,0.1786257457182627
0465,cdot_cos,Q,P-Q,291,58,63629,-0.009674332551711169,-0.017457346303830452,-0.036128580081572145,0.2883903644209735,916.0,11.176322361974433,0.6581716159148439,11.22760783160642,-0.15792762678159988,0.152,0.9999999999880448,666.5422379421258,1.445483549435614,291,2026-10-07 19:17:19.713243,25.0,0.25652933675326417,0.45769768836703256,0.28697426325925773
0465,cdot_cos,R,Q-R,292,58,63657,0.0779083413956386,0.2325899155333745,0.08758267394734977,0.8993086902545426,916.0,11.271842371222604,0.6591758966484244,11.264044067168808,-0.3474962854240327,0.028,0.9999999999879914,-188.76062469761393,1.4504506142579212,292,2026-10-07 19:17:19.741244,25.0,0.5795361995953099,2.2343264452951823,3.4114289017203827
0465,cdot_cos,S,R-S,293,58,63680,-0.0012785019690761154,-0.007373176138055765,-0.07918684336471471,0.12135390488213585,916.0,11.301444642910964,0.6593113064895559,11.285633096869418,-0.10827099092099601,0.023,0.9999999999877829,1766.6758376192934,1.4554176662371732,293,2026-10-07 19:17:19.764243,25.0,0.10975496508801003,1.0625225782018541,1.2870552907982389
0465,cdot_cos,T,S-T,294,58,63975,-0.3925875713190377,-0.04405066694445086,-0.39130906934996157,5.641456715567232e-05,916.0,11.32071840981989,0.6593113694323504,11.30487645214896,-0.0706469601089318,0.295,0.9999999999875521,597749.6099143828,1.4603854884616017,294,2026-10-07 19:17:20.059244,25.0,0.5870976934904473,0.20987108156858192,0.06533480308110438
0465,cdot_cos,P,T-P,295,59,64393,0.02059015652603866,0.00027976021364291563,0.4131777278450764,0.9999673438008293,1139.0,11.425268581036427,0.6604261673418959,11.343233983803628,-0.38470809472163087,0.418,0.999999999987524,-281.720239985687,1.4653536657394186,295,2026-10-07 19:17:20.477243,25.0,0.44203678829464554,0.17921124269694066,0.25012002683382184
0465,cdot_cos,Q,P-Q,296,59,64547,-0.01267922403333927,-0.014620699032945118,-0.03326938055937793,0.30327844127356335,1139.0,11.470539008714532,0.6607639221478574,11.368255457849834,-0.16759558315230116,0.154,0.9999999999873315,642.8110207084668,1.4703210912739018,296,2026-10-07 19:17:20.631244,25.0,0.2737733093409783,0.4735849142988461,0.29396381609158995
0465,cdot_cos,R,Q-R,297,59,64573,0.10422992170513173,0.1635003140294837,0.116909145738471,0.9489586260973643,1139.0,11.571132734640472,0.661819699618612,11.40563755145635,-0.3742106481595391,0.026,0.9999999999872906,-195.69944494038754,1.475288149262794,297,2026-10-07 19:17:20.657243,25.0,0.5757189230096383,2.4145592692175883,3.86898945868999
0465,cdot_cos,S,R-S,298,59,64595,-0.00298384912886212,-0.006416673260056961,-0.10721377083399386,0.06414320711858945,1139.0,11.596096090713846,0.6618910050820517,11.426053670837828,-0.09336077728365304,0.022,0.9999999999870659,3938.686565208297,1.4802551968542814,298,2026-10-07 19:17:20.679244,25.0,0.04937943608561248,1.0322333953452754,1.1346980033352208
0465,cdot_cos,T,S-T,299,59,64892,-0.1800336268262862,0.10568073705759368,-0.17704977769742408,0.011817984303749245,1139.0,11.616551004035664,0.6619041418648695,11.445435917189156,-0.07664815871760532,0.297,0.9999999999868322,1272.2002637836354,1.485223047693318,299,2026-10-07 19:17:20.976243,25.0,0.8040906122454714,0.21115792966837707,0.06887176202632074
0465,cdot_cos,P,T-P,300,60,65532,0.02787745403226327,0.00020425607296790097,0.20791108085854948,0.9945015587433287,960.0,11.721523900936862,0.6630087261716506,11.483692044932356,-0.394841997221742,0.64,0.9999999999868046,-288.0665935145978,1.490191911380706,300,2026-10-07 19:17:21.616243,25.0,0.4466962802888932,0.11604670956846946,0.16402015140812298
0465,cdot_cos,Q,P-Q,301,60,65682,-0.010107503260325126,-0.01486576417686175,-0.0379849572925884,0.27896045851515144,960.0,11.765090792283305,0.6633182463234145,11.508187211545984,-0.16483982245189258,0.15,0.9999999999865867,743.0927306642814,1.4951593329862114,301,2026-10-07 19:17:21.766243,25.0,0.24775693831678308,0.4813936714526198,0.29044594230961474
0465,cdot_cos,R,Q-R,302,60,65707,0.10147705579594217,0.22025220160698022,0.1115845590562673,0.9421119957540091,960.0,11.865942002372648,0.6643625288510541,11.545435850879993,-0.3833386074444911,0.025,0.9999999999865393,-209.233401124199,1.5001263845372943,302,2026-10-07 19:17:21.791244,25.0,0.5655316661908104,2.5319663648642887,4.034048403573749
0465,cdot_cos,S,R-S,303,60,65725,-0.0015257487544500245,-0.004882801358854112,-0.1030028045503922,0.07076020151364322,960.0,11.891689110526519,0.6644408981700246,11.565899094345038,-0.09837870747754338,0.018,0.9999999999863026,3636.115557850777,1.505093416331519,303,2026-10-07 19:17:21.809243,25.0,0.05521278600120166,1.2599017299837418,1.430394897437262
0465,cdot_cos,T,S-T,304,60,66032,-0.4163413975460716,-0.036522810247821905,-0.4148156487916215,3.1346041514953504e-05,960.0,11.911298464652063,0.6644409328848199,11.584969520987782,-0.07506969651328786,0.307,0.9999999999860528,671443.1351030511,1.510061317932279,304,2026-10-07 19:17:22.116243,25.0,0.7330815919831092,0.20510348122860222,0.06387411767278171
0465,cdot_cos,P,T-P,305,61,66492,0.024804208641562166,0.0013071731437207718,0.44114560618763377,0.9999837701169897,878.0,12.01762264800088,0.6655474786227322,11.62333375889563,-0.40851858787253226,0.46,0.9999999999860216,-301.34216773392427,1.5150296876638236,305,2026-10-07 19:17:22.576244,25.0,0.4420911419258319,0.16470722777427305,0.23113952901916907
0465,cdot_cos,Q,P-Q,306,61,66646,-0.010302139386753163,-0.02088887940285446,-0.03510634802831533,0.2936631884722739,878.0,12.062829114204394,0.6658720906629296,11.648052364574282,-0.17470780005035025,0.154,0.9999999999858085,720.2776202632446,1.5199971308358649,306,2026-10-07 19:17:22.730243,25.0,0.2622921771463094,0.45646622014434096,0.2935484818409963
0465,cdot_cos,R,Q-R,307,61,66673,0.06562289645735704,0.24058241738567326,0.0759250358441102,0.8696792669932465,878.0,12.158214243805338,0.6668325024138662,11.683897607700995,-0.3702508154343288,0.027,0.9999999999857441,-203.60331409241718,1.5249641866256483,307,2026-10-07 19:17:22.757244,25.0,0.5897027850537604,2.3896884728163448,3.5327825778127253
0465,cdot_cos,S,R-S,308,61,66698,-0.0009622870158707693,-0.009413535822940008,-0.06658518347322781,0.15914150847554123,878.0,12.191872291736477,0.6670080973951915,11.705992876158847,-0.1313100645367593,0.025,0.9999999999855209,1360.749316945695,1.5299312375490692,308,2026-10-07 19:17:22.782243,25.0,0.16207951738096266,1.068953242821138,1.346321917245561
0465,cdot_cos,T,S-T,309,61,66990,-0.35043224000500306,-0.07684726968732425,-0.3494699529891323,0.00016054931774314563,878.0,12.211661905946395,0.6670082745201331,11.724983743984554,-0.07737475022939283,0.292,0.9999999999852629,304504.3448953792,1.5348991163638923,309,2026-10-07 19:17:23.074244,25.0,0.4980443816616891,0.2174423975591188,0.06777265140382834
0465,cdot_cos,P,T-P,310,62,67370,0.03251379501307767,0.000791032191038704,0.3829460350180807,0.9999304677865627,1176.0,12.318858651911002,0.6681105242758396,11.76334863789746,-0.4206038152163474,0.38,0.9999999999852338,-311.3895586821507,1.5398672743492001,310,2026-10-07 19:17:23.454243,25.0,0.4421797183711969,0.1952416173244884,0.2820966999068618
0465,cdot_cos,Q,P-Q,311,62,67523,-0.01283075334538277,-0.013828937716892805,-0.04534454835846044,0.24349482043673237,1176.0,12.360045535113006,0.6683786569312274,11.787036044301992,-0.16251498789988927,0.153,0.9999999999850084,962.5415708622065,1.5448347249214665,311,2026-10-07 19:17:23.607244,25.0,0.2043149787471877,0.4726083671725752,0.2691953150457758
0465,cdot_cos,R,Q-R,312,62,67550,0.10715092055269701,0.1557129651991487,0.11998167389807977,0.9525534247284916,1176.0,12.46347681226581,0.6694265434662047,11.824480647728754,-0.40985403129201103,0.027,0.999999999984967,-236.03609277935516,1.5498017798372048,312,2026-10-07 19:17:23.634243,25.0,0.5469046471111967,2.3809736531095442,3.8307880426964562
0465,cdot_cos,S,R-S,313,62,67572,-0.003630836697957806,-0.006987020321294905,-0.11078175725065481,0.05899232576630948,1176.0,12.488618112380921,0.6694913847189797,11.84456205236893,-0.10013056715728523,0.022,0.9999999999847161,4776.642197355129,1.5547688201300642,313,2026-10-07 19:17:23.656243,25.0,0.04535676486906782,1.066401975087995,1.1427863688686848
0465,cdot_cos,T,S-T,314,62,67850,-0.15734513242401119,0.11304674010418389,-0.15371429572605338,0.02098256917870835,1176.0,12.510398499169682,0.6695144460995865,11.863876544210376,-0.0869051130014355,0.278,0.9999999999844589,573.4892624746655,1.5597366771239214,314,2026-10-07 19:17:23.934243,25.0,0.8588313636939697,0.23151450232710336,0.07834671506748456
0465,cdot_cos,P,T-P,315,63,68546,0.016605392628134763,-0.0006551194538355993,0.17395052505214595,0.98724208130584,1021.0,12.61734017567479,0.6705985749329118,11.901995049204317,-0.42818501757018346,0.696,0.9999999999844311,-314.79644676729566,1.564705880145149,315,2026-10-07 19:17:24.630244,25.0,0.4506616658412442,0.11134463788482205,0.15365183405906435
0465,cdot_cos,Q,P-Q,316,63,68697,-0.014016971464123208,-0.017289039583499366,-0.03062236409225797,0.31744054360391716,1021.0,12.665390235105354,0.6709467840447229,11.927064015003484,-0.1934708271432853,0.151,0.9999999999841975,674.0610238661,1.5696733317661755,316,2026-10-07 19:17:24.781244,25.0,0.29725166692369104,0.5053033411216266,0.31821231410969214
0465,cdot_cos,R,Q-R,317,63,68716,0.1089070225459188,0.1918700517709395,0.122923994010042,0.9557694015610586,1021.0,12.769941784693522,0.6719940590643196,11.964567469761286,-0.42282234152486176,0.019,0.9999999999841489,-218.99836250260256,1.5746403566769187,317,2026-10-07 19:17:24.800243,25.0,0.581333904718251,3.413894807186165,5.502713136219353
0465,cdot_cos,S,R-S,318,63,68737,-0.0033162960735041457,-0.008079858007018534,-0.11222331861942295,0.057023227527978504,1021.0,12.795118237778428,0.6720564877674875,11.984537318385367,-0.10232701837410366,0.021,0.9999999999838828,5133.781528169804,1.5796073894088631,318,2026-10-07 19:17:24.821243,25.0,0.04362742114144118,1.0785671801821295,1.1988787183288843
0465,cdot_cos,T,S-T,319,63,69026,-0.33630747459622645,0.09054649246858001,-0.3329911785227223,0.00024237562443908925,1021.0,12.815241606261171,0.6720567531059493,12.003370778788453,-0.08193426140061048,0.289,0.9999999999836038,76855.63878823901,1.5845753018883806,319,2026-10-07 19:17:25.110244,25.0,0.7796644125078892,0.22325379449638966,0.06963103281225909
0465,cdot_cos,P,T-P,320,64,69567,0.02025157236660623,-0.00034542368484696763,0.3565590469628327,0.9998655220968163,1157.0,12.924158930997342,0.6731504095710077,12.041734713011666,-0.4449367807606285,0.541,0.9999999999835718,-331.91640241492337,1.5895440511951215,320,2026-10-07 19:17:25.651244,25.0,0.44226240210370826,0.1433874702143758,0.20132592372674735
0465,cdot_cos,Q,P-Q,321,64,69715,-0.01505359975590346,-0.015024416926690078,-0.03530517212250969,0.2926332191572362,1157.0,12.970386849033126,0.673470137704076,12.066265197221623,-0.18988786937802932,0.148,0.9999999999833296,797.7055660850258,1.5945115019034455,321,2026-10-07 19:17:25.799244,25.0,0.2610207508546802,0.5143660321196106,0.3123507975390831
0465,cdot_cos,R,Q-R,322,64,69740,0.11532881589075501,0.15551135022911847,0.13038241564665848,0.9630151363493734,1157.0,13.076411276504746,0.6745211791658342,12.103905870559572,-0.43734221508005394,0.025,0.9999999999832814,-235.43728264352933,1.599478543815054,322,2026-10-07 19:17:25.824243,25.0,0.5678976929357205,2.6128933117355757,4.240977098864818
0465,cdot_cos,S,R-S,323,64,69758,-0.0037128455105941505,-0.006367640393911585,-0.11904166140134917,0.048520048380070714,1157.0,13.101031514619905,0.6745740879541795,12.123636977238466,-0.10205761560750502,0.018,0.9999999999830016,6337.030386793153,1.6044455634506154,323,2026-10-07 19:17:25.842243,25.0,0.03743129294254905,1.274442807794824,1.367791006397686
0465,cdot_cos,T,S-T,324,64,70045,-0.18316765441388957,0.1331754471187527,-0.17945480890329543,0.011136038358717543,1157.0,13.12229121758536,0.674586230642414,12.142608167872277,-0.08828008701242078,0.287,0.9999999999827162,1134.6357848488785,1.60941349105487,324,2026-10-07 19:17:26.129244,25.0,0.8555026426131217,0.22730125967093587,0.07407562008869449
0465,cdot_cos,P,T-P,325,65,70724,0.018596993247223467,-0.0009437346723682674,0.20176464766111304,0.9935941436568985,998.0,13.231502437671022,0.6756686960603047,12.180847433797553,-0.4549627303401817,0.679,0.999999999982681,-338.747674768476,1.6143827542183615,325,2026-10-07 19:17:26.808243,25.0,0.4466580630031202,0.1160582410703367,0.1608412666946419
0465,cdot_cos,Q,P-Q,326,65,70873,-0.012900764571057393,-0.01632944885943893,-0.03149775781828086,0.3127177672194442,998.0,13.279898308958877,0.6760089970258348,12.205719159272421,-0.20270741495090314,0.149,0.999999999982424,741.2712302954468,1.619350215781563,326,2026-10-07 19:17:26.957243,25.0,0.28810490072737216,0.5191377239763012,0.32480450528762006
0465,cdot_cos,R,Q-R,327,65,70894,0.11114008212937267,0.20309762956563465,0.12404084670043006,0.9569348475703144,998.0,13.38620547941596,0.6770491814114346,12.243235278959308,-0.44711723355918165,0.021,0.9999999999823673,-234.9677826276579,1.62431723986378,327,2026-10-07 19:17:26.978244,25.0,0.5788946595095336,3.135494843126553,5.062246212242018
0465,cdot_cos,S,R-S,328,65,70914,-0.0027527862352498766,-0.007091906169486731,-0.11389286836462255,0.054819926710944974,998.0,13.411589092370193,0.6771087175485201,12.263019662151105,-0.10727815891964258,0.02,0.9999999999820735,5708.1142861399985,1.6292842617913208,328,2026-10-07 19:17:26.998244,25.0,0.042094803685250454,1.1454905465029253,1.269180647711643
0465,cdot_cos,T,S-T,329,65,71204,-0.3780640388558657,0.025439408007904604,-0.3753112526206158,8.415371652932263e-05,998.0,13.432025101276077,0.6771088089376471,12.28170060940169,-0.08651596870507008,0.29,0.9999999999817687,227184.4680673066,1.6342522203708425,329,2026-10-07 19:17:27.288243,25.0,0.7866427932377053,0.22597695749931523,0.07046899622718673
0465,cdot_cos,P,T-P,330,66,71722,0.026450688719814073,0.00041587984746908457,0.4045147275756798,0.9999594473222121,1059.0,13.542655727719795,0.6781937866455084,12.320061959919721,-0.46981031632728415,0.518,0.9999999999817288,-353.2739381141358,1.6392209792668766,330,2026-10-07 19:17:27.806243,25.0,0.44226361935239905,0.15096463226744036,0.21357263792223682
0465,cdot_cos,Q,P-Q,331,66,71878,-0.011428077884520025,-0.015240027975228082,-0.0378787666043341,0.2794947556455155,1059.0,13.588424460305145,0.6784967017541913,12.344227232524156,-0.1953945098570503,0.156,0.9999999999814614,905.9165376842941,1.644188474594309,331,2026-10-07 19:17:27.962244,25.0,0.24550960043244735,0.4841843157539615,0.2933893114445482
0465,cdot_cos,R,Q-R,332,66,71904,0.09640820583115518,0.1834583173567874,0.1078362837156752,0.936784698424661,1059.0,13.693721234235031,0.6795108890147772,12.38133966623564,-0.45127977241031175,0.026,0.9999999999813973,-252.30573533869776,1.649155513494087,332,2026-10-07 19:17:27.988243,25.0,0.5672124563671653,2.5572194542525026,4.049875920380249
0465,cdot_cos,S,R-S,333,66,71925,-0.0023763970633486316,-0.006556219211888686,-0.09878460289450382,0.07801591825974252,1059.0,13.721399871926275,0.6795952747896897,12.401512034474282,-0.11918677350618034,0.021,0.9999999999811008,3935.4144611258266,1.6541225359672687,333,2026-10-07 19:17:28.009243,25.0,0.06164739755621092,1.1519796639500444,1.3180303662496988
0465,cdot_cos,T,S-T,334,66,72222,-0.2682248764337053,0.09792367155841643,-0.26584847937035666,0.0012972481386604388,1059.0,13.742104380120933,0.679596677856499,12.420144495209236,-0.0893127901419165,0.297,0.9999999999807854,21291.917937503218,1.6590905416410224,334,2026-10-07 19:17:28.306243,25.0,0.7157050196926497,0.2224207487454723,0.06971214880356293
0465,cdot_cos,P,T-P,335,67,72781,0.024123957897636356,3.88643911479373e-05,0.2923488343313416,0.9993307750506962,1037.0,13.853517796681086,0.6806765595247575,12.458489468804116,-0.48204967830766327,0.559,0.9999999999807441,-363.6851144988148,1.6640594909094644,335,2026-10-07 19:17:28.865243,25.0,0.44276202147287697,0.14159897041135777,0.19930843749580027
0465,cdot_cos,Q,P-Q,336,67,72930,-0.012075841731415933,-0.015500089595463082,-0.03619979962905229,0.2880251078210662,1037.0,13.900412029040831,0.6809874419407675,12.482770710306465,-0.2039547915596061,0.149,0.999999999980467,894.5339859268444,1.6690269701735334,336,2026-10-07 19:17:29.014244,25.0,0.25576086372559903,0.5171832225621523,0.31472639167614536
0465,cdot_cos,R,Q-R,337,67,72958,0.10505666189393609,0.18945432643252882,0.11713250362535202,0.9492284139629095,1037.0,14.007638397004607,0.6820108595785909,12.520120145413141,-0.46814148678975903,0.028,0.999999999980404,-258.1416280767297,1.673994013414451,337,2026-10-07 19:17:29.042243,25.0,0.5687405775595756,2.389594066600807,3.8295131415634183
0465,cdot_cos,S,R-S,338,67,72976,-0.0024035023719850266,-0.005916230979397019,-0.10746016426592112,0.06377443048175302,1037.0,14.034229296770476,0.6820795556117218,12.539945094230312,-0.11663729409931203,0.018,0.9999999999800906,5116.804809096653,1.678961021520574,338,2026-10-07 19:17:29.060243,25.0,0.04911200309491327,1.3221354371967624,1.4772722092149713
