record_id,input,event,transition,event_index,k,peak,value_cos,value_sin,value_return,x_input,rr,knowledge,decision,decision_norm,entropy,delta_t,cosine_similarity,delta_h_over_delta_d,frobenius_norm,matrix_size,timestamp,scale,P,zdot,zdot_back
0413,cdot_cos,Q,P-Q,1,0,1383,-0.031181933303560217,-0.026365162958429972,-0.07678014529617025,0.00875222174059633,815.0,4.3473524088468026e-05,0.5000108683810204,0.5000108683810204,,,1.0,,0.004967141530112327,1,2026-10-08 00:01:17.467244,61.6,,,
0413,cdot_cos,R,Q-R,2,0,1413,0.05169051974275102,0.10112774597109328,0.08287245304631123,0.9939698986663594,815.0,0.007043720722177171,0.5012451630977965,0.708867707726818,-8.946837947173443e-06,,0.9999999999999998,,0.009934283060224654,2,2026-10-08 00:01:17.497243,61.6,,,
0413,cdot_cos,S,R-S,3,0,1463,0.04176230100308148,-0.08905623866266096,-0.009928218739669536,0.3516992563180896,815.0,0.011652549636888214,0.5016818943237713,0.8689385302061722,-1.5539076484846883e-05,0.05,1.0,-0.015094497818331836,0.014901424598394773,3,2026-10-08 00:01:17.547244,61.6,0.6542693345792775,0.06454022461633269,0.09217657829422085
0413,cdot_cos,T,S-T,4,0,1689,-0.04669649455998879,-0.0036621166193283403,-0.08845879556307026,0.004281923630398722,815.0,0.01349774318381044,0.5016872114935894,1.0033744229879833,-8.368826796761155e-06,0.226,1.0000000000000002,1.3485086866449112,0.019868566182013707,4,2026-10-08 00:01:17.773243,61.6,0.42452654252268734,0.03213389759600214,0.008164573216470029
0413,cdot_cos,P,T-P,5,1,2085,0.05528154668131575,-0.007271000971362365,0.10197804124130454,0.9981335471801711,802.0,0.026177071350281182,0.502926652122077,1.1245781818486897,-9.071535823271658e-05,0.396,1.0000000000000002,-0.06643846388708313,0.024835707880880315,5,2026-10-08 00:01:18.169244,61.6,0.4034324130114237,0.019290364602702555,0.03201850547088571
0413,cdot_cos,Q,P-Q,6,1,2159,-0.02250050462192244,-0.01620317605808629,-0.07778205130323819,0.008232700930351618,802.0,0.028775711949150864,0.5029368750182658,1.2319387166456905,-2.5751674912292812e-05,0.074,1.0,6.3547239569579785,0.02980284943395696,6,2026-10-08 00:01:18.243244,61.6,0.08024286753644776,0.12143928510859404,0.0351167648495903
0413,cdot_cos,R,Q-R,7,1,2216,0.06169983881785121,0.10556032844168671,0.08420034343977364,0.9944408818169915,802.0,0.0441500855463531,0.5041716941405638,1.3339129207990106,-0.0002021775531045088,0.057,0.9999999999999999,-0.1428758876554153,0.03476999099724793,7,2026-10-08 00:01:18.300243,61.6,0.4178518156333066,0.1697177421707255,0.2697258525824954
0413,cdot_cos,S,R-S,8,1,2259,0.018643109740139878,-0.058550962744387605,-0.04305672907771133,0.06584772928786914,802.0,0.04812353455661357,0.5042534570838788,1.4262441557913001,-6.611474474204712e-05,0.043,1.0000000000000002,1.6641133849392018,0.039737132568916436,8,2026-10-08 00:01:18.343244,61.6,0.1277117142061833,0.08051270721388085,0.09240579093629
0413,cdot_cos,T,S-T,9,1,2509,-0.0813296254392258,-0.001282719222965653,-0.09997273517936567,0.0021113366351156715,802.0,0.05107417836674685,0.5042560787209976,1.5127682361963288,-5.278026044133749e-05,0.25,1.0,5.086319614905112,0.04470427452875449,9,2026-10-08 00:01:18.593244,61.6,0.7767462935132693,0.04283531264288662,0.01180257524053313
0413,cdot_cos,P,T-P,10,2,2887,0.05662825541886404,0.002247781352144826,0.13795788085808985,0.9997962077109817,822.0,0.06954119087805688,0.5054974922895834,1.598523427213385,-0.00040163480516931213,0.378,0.9999999999999998,-0.28101396146764873,0.049671416906032995,10,2026-10-08 00:01:18.971244,61.6,0.419544182074407,0.029157271429921146,0.04885453045320113
0413,cdot_cos,Q,P-Q,11,2,3013,-0.01636408110832321,-0.015734458850215825,-0.07299233652718726,0.01102691592068313,822.0,0.07311707556776724,0.505511183693112,1.676590923780449,-9.198398770812173e-05,0.126,0.9999999999999998,22.616440806435385,0.05463855869262844,11,2026-10-08 00:01:19.097243,61.6,0.034515193591240514,0.09424980971901153,0.02838003721992349
0413,cdot_cos,R,Q-R,12,2,3038,0.05005825147308141,0.11910399066324541,0.06642233258140462,0.9835624969701074,822.0,0.09329214292724779,0.5067323735275164,1.7553724337482877,-0.0006053383406283124,0.025,0.9999999999999998,-0.42037227829573703,0.05960570016624857,12,2026-10-08 00:01:19.122243,61.6,0.4282512040887015,0.5141577596740162,0.8070026943792219
0413,cdot_cos,S,R-S,13,2,3097,0.013697441783416617,-0.03871300814685863,-0.03636080968966479,0.09623068419264308,822.0,0.09882496355146805,0.5068518493328563,1.8274803320028836,-0.00019165299702374948,0.059,1.0000000000000002,3.462503076900859,0.0645728418489155,13,2026-10-08 00:01:19.181243,61.6,0.1154968226080784,0.07864156279849702,0.09377662074949605
0413,cdot_cos,T,S-T,14,2,3307,-0.10052145225708935,-0.014245539680726753,-0.11421889404050596,0.0008789669800059621,822.0,0.10257184733747043,0.506852940616199,1.8964700494539892,-0.00013605852984210416,0.21,1.0,50.94411781686443,0.06953998430122532,14,2026-10-08 00:01:19.391244,61.6,0.6645753616710632,0.06329357384713434,0.01784230374286848
0413,cdot_cos,P,T-P,15,3,3709,0.05485410681556779,-0.004295798951167193,0.15537555907265713,0.9999302926050303,777.0,0.12540826456726448,0.5080943613760299,1.9678410001924664,-0.0009386326373285615,0.402,0.9999999999999999,-0.6464964446025304,0.07450712805399025,15,2026-10-08 00:01:19.793243,61.6,0.4252636169661598,0.03365476816085283,0.05680700803431354
0413,cdot_cos,Q,P-Q,16,3,3821,-0.02953504930923444,-0.02462162791380976,-0.08438915612480223,0.0054951886526057436,777.0,0.1296302809387961,0.5081011834311079,2.0324047341933578,-0.00019413161316526192,0.112,0.9999999999999998,109.13148833532549,0.07947427006398915,16,2026-10-08 00:01:19.905244,61.6,0.021600638841796124,0.12732945746214572,0.03769657474581816
0413,cdot_cos,R,Q-R,17,3,3848,0.04812943545707811,0.10208435822766469,0.07766448476631255,0.9917079568037134,777.0,0.15393006303878512,0.5093322969710308,2.100030859472816,-0.0012421701978546952,0.027,1.0,-0.8512931997767454,0.08444141148866716,17,2026-10-08 00:01:19.932243,61.6,0.43010936312320075,0.6166158113117153,0.8999919296292226
0413,cdot_cos,S,R-S,18,3,3897,0.027123945567314383,-0.060629591260889,-0.021005489889763727,0.2151869794122208,777.0,0.16292753474962873,0.5095994172373605,2.162047222228702,-0.0005139360221446776,0.049,1.0000000000000002,2.7262408267113774,0.08940855319556994,18,2026-10-08 00:01:19.981244,61.6,0.24244645944435214,0.13913044816075204,0.18362187164986965
0413,cdot_cos,T,S-T,19,3,4106,-0.05117399607298162,-0.009468735038713377,-0.078297941640296,0.007977242837444769,777.0,0.16756484695853882,0.5096093196058278,2.2213355254103027,-0.0002762815614438119,0.209,1.0000000000000002,23.99975939950314,0.094375696547396,19,2026-10-08 00:01:20.190243,61.6,0.42308195812092914,0.07457619633588293,0.022188096693349705
0413,cdot_cos,P,T-P,20,4,4486,0.05539934838535863,0.0022513532623242368,0.10657334445834024,0.9985930428644645,819.0,0.1941003848180278,0.5108488382124989,2.2845854577180007,-0.0017298749032527276,0.38,0.9999999999999998,-1.172707964193197,0.09934284207128743,20,2026-10-08 00:01:20.570244,61.6,0.4315861540361727,0.041526181030781914,0.06983036278812889
0413,cdot_cos,Q,P-Q,21,4,4612,-0.01895281550159813,-0.018747271187425793,-0.07435216388695676,0.010149863518477863,819.0,0.19912474454193307,0.5108614362239535,2.341061202325858,-0.00035612425759424133,0.126,0.9999999999999999,109.04503862456706,0.10430998469613592,21,2026-10-08 00:01:20.696243,61.6,0.021120657010933148,0.1292005479142917,0.03987587082464504
0413,cdot_cos,R,Q-R,22,4,4638,0.04481384476770778,0.10733578764633078,0.06376666026930591,0.9806974401926383,819.0,0.2266589228924293,0.5120786104968444,2.4018615862810933,-0.002112964282225828,0.026,1.0000000000000002,-1.4433759107140038,0.10927712603305217,22,2026-10-08 00:01:20.722244,61.6,0.43541420227298916,0.6767224749708579,1.0590068596344706
0413,cdot_cos,S,R-S,23,4,4697,0.01045788202966834,-0.028608367713562493,-0.03435596273803944,0.10751999261122387,819.0,0.23431431324041768,0.5122120484714972,2.456482690025496,-0.0006360166040172354,0.059,1.0,11.068420980253858,0.11424426799138895,23,2026-10-08 00:01:20.781244,61.6,0.09805917540086831,0.10785461537636214,0.12975237877946394
0413,cdot_cos,T,S-T,24,4,4928,-0.09728504365219257,-0.016231341048773266,-0.1077429256818609,0.001309284643601442,819.0,0.23938576750684004,0.5122136733520207,2.509324279401809,-0.00043297348907065937,0.231,1.0000000000000002,124.95879666258809,0.11921141282015646,24,2026-10-08 00:01:21.012243,61.6,0.6256585802902787,0.07541375339866212,0.021954347473689868
0413,cdot_cos,P,T-P,25,5,5305,0.05335403546564748,-0.0035783662000025166,0.15063907911784005,0.9999066785524697,800.0,0.2691554673105996,0.5134545241285403,2.5672726224700524,-0.0027281647629602565,0.377,1.0,-1.849691612658928,0.12417856060934829,25,2026-10-08 00:01:21.389244,61.6,0.431151836001122,0.047460022534286384,0.07896472096487941
0413,cdot_cos,Q,P-Q,26,5,5416,-0.0048127243774649334,-0.005664433159788904,-0.05816675984311241,0.02703877176904212,800.0,0.275170624497692,0.513488076106874,2.618285722581582,-0.0005900305903090774,0.111,0.9999999999999997,63.72602388415235,0.12914570352751847,26,2026-10-08 00:01:21.500243,61.6,0.026681940191478428,0.16463056969938394,0.05419060528912063
0413,cdot_cos,R,Q-R,27,5,5444,0.058276192342482505,0.1154592770251328,0.06308891671994744,0.9798910670942236,800.0,0.3057034537838628,0.5147039227984923,2.67448003814088,-0.003195639996683425,0.028,0.9999999999999996,-2.1430410793865646,0.13411284479888802,27,2026-10-08 00:01:21.528243,61.6,0.44247829188928534,0.6578909360244288,1.0904581887918159
0413,cdot_cos,S,R-S,28,5,5499,-0.0001584059861284837,-0.002452126022560994,-0.05843459832861099,0.0266080958109877,800.0,0.31201251691506,0.514736935703689,2.7237318477142827,-0.0007021999844536942,0.055,0.9999999999999999,75.52925128454312,0.1390799868240236,28,2026-10-08 00:01:21.583244,61.6,0.02869887727494453,0.10762627080326069,0.11471023874903942
0413,cdot_cos,T,S-T,29,5,5706,-0.1339349462817796,-0.022871778600456798,-0.13377654029565111,0.00026364723901250173,800.0,0.3175423435722215,0.5147372628125607,2.7719449954498625,-0.0006272666452700162,0.207,0.9999999999999997,229.07767306606362,0.1440471325649566,29,2026-10-08 00:01:21.790244,61.6,0.8873994100867204,0.09218361515997876,0.026714138440393758
0413,cdot_cos,P,T-P,30,6,6105,0.045383126398159626,-0.003519429282891547,0.1793180726799392,0.9999840493220972,781.0,0.3501765335912912,0.5159778562436438,2.8261271137260207,-0.00392561161793222,0.399,0.9999999999999998,-2.65868324788941,0.1490142836971256,30,2026-10-08 00:01:22.189243,61.6,0.43161912221454796,0.048419445585581214,0.08178994992248044
0413,cdot_cos,Q,P-Q,31,6,6217,-0.03325415269096701,-0.028100740869758924,-0.07863727908912663,0.007813513139522157,781.0,0.3561810611495153,0.5159875490359457,2.872897091590019,-0.0007640886711014271,0.112,0.9999999999999998,326.17256703336733,0.1539814272214727,31,2026-10-08 00:01:22.301243,61.6,0.01596049265767513,0.1770760727411199,0.0536118531984296
0413,cdot_cos,R,Q-R,32,6,6245,0.05306976903706329,0.10946518872950713,0.0863239217280303,0.995119200924399,781.0,0.38984157388530205,0.517221910041956,2.9258489644315784,-0.004523157816268481,0.028,0.9999999999999996,-3.0453563640326085,0.15894856837509808,32,2026-10-08 00:01:22.329243,61.6,0.4355821562295011,0.9572656342587872,1.2021611691352407
0413,cdot_cos,S,R-S,33,6,6297,0.05223877200347118,-0.09203737938551222,-0.0008309970335921152,0.4872054394197754,781.0,0.4097879366680074,0.5178261713926287,2.9746848862791038,-0.002872663132985854,0.052,1.0,2.7314252044172203,0.16391571050765166,33,2026-10-08 00:01:22.381243,61.6,0.5629569514348116,0.2526117934520304,0.3835838996674104
0413,cdot_cos,T,S-T,34,6,6525,-0.03179179862136704,-0.005222455883103493,-0.08403057062483821,0.005617232249286514,781.0,0.4161132004043132,0.5178331379197065,3.019460121660791,-0.0009408891144486389,0.228,1.0,277.29369267383925,0.16888285902548913,34,2026-10-08 00:01:22.609244,61.6,0.12833172704323842,0.09111679487782207,0.027742384808358857
0413,cdot_cos,P,T-P,35,7,6886,0.046328221565971134,0.004258386617534215,0.07812002018733817,0.9919355549713733,857.0,0.45133719513229426,0.5190632315058252,3.070819496116496,-0.005502195877960533,0.361,0.9999999999999999,-3.708097347214161,0.17385001305043152,35,2026-10-08 00:01:22.970243,61.6,0.43648663411795585,0.05830393084457164,0.09757339259828544
0413,cdot_cos,Q,P-Q,36,7,7018,-0.020806938813413247,-0.021989233248323293,-0.06713516037938438,0.01574246295319562,857.0,0.45820863847409393,0.5190827518204881,3.1144965188819236,-0.0011254444236847025,0.132,0.9999999999999996,224.21521014688253,0.17881715834597242,36,2026-10-08 00:01:23.102243,61.6,0.020467654880325658,0.16173823034202708,0.05205638895302785
0413,cdot_cos,R,Q-R,37,7,7047,0.039768974487549374,0.09964094034136205,0.060575913300962625,0.9766030878530684,857.0,0.4940360879425894,0.5202936023263679,3.1648224376312943,-0.006142328053347949,0.029,0.9999999999999994,-4.143272522331836,0.18378429943457184,37,2026-10-08 00:01:23.131244,61.6,0.44185551675176926,0.8956814752048349,1.2354292920170853
0413,cdot_cos,S,R-S,38,7,7095,0.026775990593188814,-0.05933301033804586,-0.012992983894360561,0.309946846695737,857.0,0.5101581640359744,0.5206778436759323,3.2096737993028794,-0.002914605922088573,0.048,0.9999999999999996,8.4002467067083,0.1887514415876307,38,2026-10-08 00:01:23.179244,61.6,0.3304070061251007,0.23898151634760104,0.33587658527885317
0413,cdot_cos,T,S-T,39,7,7324,-0.0595770207614579,-0.0010485624228960477,-0.08635301135464671,0.004872103473933086,857.0,0.5169783135119591,0.5206838834323311,3.2516698188158566,-0.0012611384205155896,0.229,0.9999999999999994,273.76393887412246,0.1937185925660017,39,2026-10-08 00:01:23.408243,61.6,0.2695257858041754,0.09780189321432756,0.029782312122204144
0413,cdot_cos,P,T-P,40,8,7743,0.05451629091412691,-0.006849766345484416,0.11409331167558481,0.9991142131205153,840.0,0.5549514311281364,0.5219223160171081,3.3009265713293146,-0.00732641403662703,0.419,0.9999999999999994,-4.897542014532218,0.19868575377354203,40,2026-10-08 00:01:23.827244,61.6,0.43698161229815535,0.05381376850850267,0.09062796567106748
0413,cdot_cos,Q,P-Q,41,8,7851,-0.02547717913969055,-0.01762598979248395,-0.07999347005381746,0.007191787504181379,840.0,0.5620742515220843,0.5219312294988604,3.3419905200275517,-0.0014320670535668953,0.108,0.9999999999999993,661.2844617731164,0.20365289892461072,41,2026-10-08 00:01:23.935244,61.6,0.01631008968685341,0.21275161963162043,0.06595204068470333
0413,cdot_cos,R,Q-R,42,8,7875,0.05932262570117194,0.09165517058690757,0.08479980484086248,0.9946413384658271,840.0,0.6009057809685664,0.5231638482225924,3.3904892580678214,-0.00812658716269463,0.024,0.9999999999999993,-5.4311361495942,0.20862003954581593,42,2026-10-08 00:01:23.959244,61.6,0.43876995806687835,0.9938424560444562,1.6179803936034187
0413,cdot_cos,S,R-S,43,8,7933,0.01286530940284795,-0.054360274535689014,-0.04645731629832399,0.05407605519685949,840.0,0.6097786894122182,0.5232308545372831,3.4310541776482792,-0.001933049624206958,0.058,0.9999999999999993,92.43214713534198,0.21358718239762345,43,2026-10-08 00:01:24.017244,61.6,0.040598503313440615,0.13843902553307064,0.15298118006296293
0413,cdot_cos,T,S-T,44,8,8165,-0.07615340784394367,0.005033642503692551,-0.08901871724679163,0.004137353616728932,840.0,0.6169647079304026,0.523235981149364,3.4707548679904274,-0.0015863085964932459,0.232,0.999999999999999,67.63551098566033,0.21855433593398696,44,2026-10-08 00:01:24.249243,61.6,0.8036562990857067,0.1023084928605837,0.030974217750794588
0413,cdot_cos,P,T-P,45,9,8583,0.061176430729918164,-0.0037532642522777786,0.13732983857386183,0.9997881707236307,821.0,0.6572498300995291,0.5244746767587817,3.5182831067601184,-0.009234852375385896,0.418,0.999999999999999,-6.174675780507687,0.22352150202492987,45,2026-10-08 00:01:24.667244,61.6,0.43682357465710575,0.05753909992890566,0.09637589035676196
0413,cdot_cos,Q,P-Q,46,9,8693,-0.005211950418697913,-0.005709682409015997,-0.06638838114861607,0.016471349696449405,821.0,0.6650673954709677,0.5244950815908935,3.557298739677836,-0.0018597225353308496,0.11,0.9999999999999989,361.44035881436093,0.22848864814574246,46,2026-10-08 00:01:24.777244,61.6,0.018954476400096506,0.22076051569729563,0.07106877610398753
0413,cdot_cos,R,Q-R,47,9,8719,0.0632910050260472,0.10987786465196073,0.06850295544474512,0.9855111643205735,821.0,0.7058171435529341,0.5257157889910353,3.604125890097534,-0.01004754679219727,0.026,0.9999999999999988,-6.707442140446868,0.23345578860491598,47,2026-10-08 00:01:24.803244,61.6,0.44268014036674475,0.9411615215853969,1.5672980031525543
0413,cdot_cos,S,R-S,48,9,8773,0.0008931370407425997,-0.017402663542114807,-0.062397867985304604,0.02096508916569681,821.0,0.7140077945934084,0.5257417541970493,3.6424457425752763,-0.002091631275481803,0.054,0.9999999999999988,306.4067934774976,0.23842293134849454,48,2026-10-08 00:01:24.857243,61.6,0.02228839126826998,0.14443187491904813,0.15167872297174498
0413,cdot_cos,T,S-T,49,9,8984,-0.13364209003506564,-0.01297999296388548,-0.13453522707580823,0.0002516121780946178,821.0,0.7214157860441913,0.5257420658172037,3.6801944840058685,-0.0019125483569523286,0.211,0.9999999999999984,574.6833635992557,0.2433900859559439,49,2026-10-08 00:01:25.068243,61.6,0.9106143842208322,0.11813930012165527,0.03510896422172023
0413,cdot_cos,P,T-P,50,10,9404,0.050511056061404505,-0.00464669892359853,0.18415314609647015,0.9999881578533703,819.0,0.7638625792447469,0.526980384156305,3.726314057559849,-0.011336288356319136,0.42,0.9999999999999986,-7.6101109882667926,0.24835725763862873,50,2026-10-08 00:01:25.488243,61.6,0.43548726634621593,0.05998584468679508,0.1010637933346561
0413,cdot_cos,Q,P-Q,51,10,9514,-0.024756634578943695,-0.020135434095608903,-0.0752676906403482,0.009598631538215436,819.0,0.7718038955810992,0.5269922688747476,3.7634776012559157,-0.0021928373808156013,0.11,0.9999999999999981,769.3451906045037,0.25332440472907614,51,2026-10-08 00:01:25.598243,61.6,0.015457058982363684,0.23236172591256252,0.0721937848759301
0413,cdot_cos,R,Q-R,52,10,9541,0.06199685682682712,0.10680691234016161,0.08675349140577081,0.9952460543954159,819.0,0.8149821589455106,0.5282243821899318,3.8090802217290305,-0.012316350079640836,0.027,0.9999999999999983,-8.21638121596908,0.25829154500977886,52,2026-10-08 00:01:25.625243,61.6,0.43957048207698185,1.0271311684471185,1.599194939422646
0413,cdot_cos,S,R-S,53,10,9594,0.03027402613220739,-0.07908575636405223,-0.03172283069461973,0.1241041160805846,819.0,0.8272689786772436,0.5283779991216195,3.8466499286038376,-0.0036271238364246968,0.053,0.999999999999998,56.564248144738784,0.26325868787281476,53,2026-10-08 00:01:25.678244,61.6,0.09111577151440046,0.19401248460060097,0.23182678739118787
0413,cdot_cos,T,S-T,54,10,9824,-0.0388090922105861,0.0013352558459358247,-0.06908311834279349,0.013987291309509802,819.0,0.8355474823131743,0.5283953123509024,3.882896725644594,-0.00247444480928003,0.23,0.9999999999999981,66.57793345831011,0.2682258470466045,54,2026-10-08 00:01:25.908243,61.6,0.6276118383801431,0.1143328353995805,0.03599349406926411
0413,cdot_cos,P,T-P,55,11,10223,0.043942688170686146,-0.003394436660859521,0.08275178038127225,0.9939251805944368,838.0,0.8798620829610506,0.5296253985255341,3.927807114953221,-0.01366066613520625,0.399,0.9999999999999979,-9.093851761463242,0.27319302309468585,55,2026-10-08 00:01:26.307244,61.6,0.44093247535646374,0.06593064000053214,0.1110641620247526
0413,cdot_cos,Q,P-Q,56,11,10334,-0.03234223490918549,-0.024065396181464135,-0.07628492307987164,0.009020882793326333,838.0,0.888160133033599,0.529636561184724,3.9634371445592183,-0.0026364517409167873,0.111,0.9999999999999974,987.5975076158892,0.27816017146129224,56,2026-10-08 00:01:26.418243,61.6,0.015276206018232152,0.24101067267889004,0.07475720786079601
0413,cdot_cos,R,Q-R,57,11,10361,0.0533987619101699,0.09090497701762555,0.08574099681935539,0.994941658329288,838.0,0.9333664522957642,0.5308675416923463,4.007962089936863,-0.01479315675481182,0.027,0.9999999999999973,-9.875627549437485,0.2831273114948104,57,2026-10-08 00:01:26.445244,61.6,0.4396488395007317,1.0867625342707412,1.6743081208209345
0413,cdot_cos,S,R-S,58,11,10415,0.02404007977048206,-0.07255209500155611,-0.02935868213968784,0.14082013878985475,838.0,0.946845309884219,0.5310417398520452,4.044293443636885,-0.004552681208152386,0.054,0.9999999999999974,58.78635896246672,0.2880944547114167,58,2026-10-08 00:01:26.499244,61.6,0.10547002498088223,0.20330471306222844,0.249608473860274
0413,cdot_cos,T,S-T,59,11,10642,-0.05194781909127984,0.0030502485383029406,-0.0759878988617619,0.009185924199520829,838.0,0.9553233613064849,0.5310531028158848,4.079096326418111,-0.0028970182529369248,0.227,0.999999999999997,145.7069633048127,0.29306161702264283,59,2026-10-08 00:01:26.726244,61.6,0.5646744682501216,0.12107717841661483,0.03734824415095099
0413,cdot_cos,P,T-P,60,12,11061,0.05717213345943747,-0.004012986550748079,0.1091199525507173,0.9987970672362002,841.0,1.0018143488853621,0.5322884175393242,4.123088400814543,-0.0163402930337516,0.419,0.999999999999997,-10.882469483878113,0.2980288020289797,60,2026-10-08 00:01:27.145243,61.6,0.439240982790534,0.06631661374296599,0.11095701092810803
0413,cdot_cos,Q,P-Q,61,12,11172,-0.006168550475128504,-0.006659040655905768,-0.06334068393456598,0.019805601222557975,841.0,1.0108966836230904,0.5323129092052192,4.157496782131817,-0.0032828108155268944,0.111,0.9999999999999964,533.1398147513976,0.3029959516847871,61,2026-10-08 00:01:27.256243,61.6,0.018731828714727096,0.25068839865618553,0.08182283547502917
0413,cdot_cos,R,Q-R,62,12,11199,0.05677991837672291,0.09617348922917142,0.06294846885185142,0.9797198816504739,841.0,1.0574671733870353,0.5335242370309087,4.200974100697548,-0.017292808223267245,0.027,0.9999999999999966,-11.565818196049735,0.30796309141809675,62,2026-10-08 00:01:27.283243,61.6,0.4447854568915493,1.0439365156134577,1.7248329542201835
0413,cdot_cos,S,R-S,63,12,11251,0.00203985959981986,-0.026359230521801693,-0.05474005877690305,0.03318248397346172,841.0,1.067269255466217,0.5335652570883688,4.2350429928862585,-0.003738921755424479,0.052,0.9999999999999964,330.4209527504496,0.3129302346015018,63,2026-10-08 00:01:27.335244,61.6,0.026646994067867413,0.1767261536525532,0.18850157844580312
0413,cdot_cos,T,S-T,64,12,11462,-0.0895517904900226,-8.955254658075764e-05,-0.09159165008984246,0.0035330810055342267,841.0,1.0758466933669009,0.5335696246426227,4.268557055287431,-0.0033000894912488705,0.211,0.9999999999999959,100.47551527978764,0.317897398299912,64,2026-10-08 00:01:27.546243,61.6,0.8754862191936433,0.13504592423947331,0.040651364458216925
0413,cdot_cos,P,T-P,65,13,11902,0.051078638016598905,-0.0023141945890109727,0.1406304285066215,0.9998271363240907,817.0,1.1242586354952748,0.5348053902014365,4.311738963374744,-0.019114853357547573,0.44,0.9999999999999961,-12.797543800686189,0.3228645933019267,65,2026-10-08 00:01:27.986243,61.6,0.4372042921837923,0.0660362193044091,0.11002714120084992
0413,cdot_cos,Q,P-Q,66,13,12015,-0.007185380080531521,-0.008236630211344388,-0.05826401809713043,0.026881605436239978,817.0,1.1339585663547809,0.5348386094777977,4.3450494755212254,-0.003931020460117153,0.113,0.9999999999999954,457.0789782509109,0.32783174451225283,66,2026-10-08 00:01:28.099244,61.6,0.021013971329072442,0.25687452980264014,0.0858400961018234
0413,cdot_cos,R,Q-R,67,13,12045,0.0550189907172737,0.10863403414198941,0.06220437079780522,0.9787888559783097,817.0,1.1823122792306715,0.5360479470694276,4.387741623372544,-0.020092799398866257,0.03,0.9999999999999952,-13.364158238864478,0.3327988843236367,67,2026-10-08 00:01:28.129244,61.6,0.44737560580384983,0.9749876444945182,1.6117904291963545
0413,cdot_cos,S,R-S,68,13,12104,0.00022749523226812198,-0.007941237923935083,-0.05479149548500558,0.033080984211543096,817.0,1.192457825024452,0.5360888127862361,4.420701673812727,-0.004322282232422623,0.059,0.9999999999999951,385.9106947846914,0.3377660287131534,68,2026-10-08 00:01:28.188244,61.6,0.026026107430157496,0.16075324863063145,0.17195840328441464
0413,cdot_cos,T,S-T,69,13,12322,-0.09971722747955493,-0.01419429743325053,-0.09994472271182304,0.0021149753231564385,817.0,1.201281162569086,0.5360914254484517,4.453109902464512,-0.003789007729224975,0.218,0.9999999999999949,204.11153803924515,0.3427331968225684,69,2026-10-08 00:01:28.406244,61.6,0.8687129574919162,0.1354342977000201,0.040474025434101134
0413,cdot_cos,P,T-P,70,14,12719,0.04463405733160333,-0.0033875664854482457,0.14435128481115828,0.99986253986552,799.0,1.2515071788216607,0.5373263469767691,4.495594837396568,-0.02209257070895228,0.397,0.9999999999999947,-14.821640533440492,0.3477003933227805,70,2026-10-08 00:01:28.803244,61.6,0.43670645739077535,0.07495884414927846,0.1265138948427575
0413,cdot_cos,Q,P-Q,71,14,12830,-0.03138944175282464,-0.025249193559358094,-0.07602349908442797,0.009165986223032382,799.0,1.2607984848236131,0.5373376657120266,4.527687740061532,-0.004186057727206273,0.111,0.9999999999999941,1582.0241903683195,0.3526675456862933,71,2026-10-08 00:01:28.914243,61.6,0.013875153878629441,0.27071498821638285,0.08370545947704848
0413,cdot_cos,R,Q-R,72,14,12858,0.056403404018373085,0.10789513179844928,0.08779284577119773,0.995539568232055,799.0,1.3116059062056977,0.5385667889415046,4.569890835359557,-0.023429302307018084,0.028,0.9999999999999939,-15.656074279862422,0.35763468492290723,72,2026-10-08 00:01:28.942244,61.6,0.43984522379866237,1.2715348565519076,1.8145507636458786
0413,cdot_cos,S,R-S,73,14,12911,0.03998996887852895,-0.08539181450629911,-0.016413435139844133,0.2667709708028236,799.0,1.33200443679052,0.538896073423521,4.60433016216644,-0.009665953655519425,0.053,0.9999999999999941,41.79774451324637,0.36260182876554164,73,2026-10-08 00:01:28.995244,61.6,0.24077323679384408,0.2816450915816418,0.38487793556268335
0413,cdot_cos,T,S-T,74,14,13139,-0.03725255042830002,-0.0031429063973589994,-0.07724251930682897,0.008508546583656877,799.0,1.3414602859133518,0.5389065752549111,4.635849742445398,-0.004531290929046424,0.228,0.9999999999999934,488.9302194735987,0.3675690030318571,74,2026-10-08 00:01:29.223244,61.6,0.32201514152902155,0.13431407087182634,0.0414730224685606
0413,cdot_cos,P,T-P,75,15,13518,0.04565302772276233,0.0022044768931158668,0.08290557815106235,0.9939821166105949,842.0,1.3932516531080728,0.5401331759848456,4.677690618546087,-0.02537735980174255,0.379,0.9999999999999934,-16.99499141322929,0.3725362051878907,75,2026-10-08 00:01:29.602243,61.6,0.4397963220414988,0.08140305820519585,0.13665268389108443
0413,cdot_cos,Q,P-Q,76,15,13647,-0.02215275209854799,-0.021589109342152846,-0.06780577982131032,0.015115018129772386,842.0,1.4031638040328902,0.540151824610498,4.708934547235929,-0.004966431597756374,0.129,0.9999999999999928,1094.5003982782587,0.377503362724298,76,2026-10-08 00:01:29.731244,61.6,0.016411427749937535,0.240361133714952,0.0768383792621508
0413,cdot_cos,R,Q-R,77,15,13672,0.044970531931113535,0.10254855085763172,0.06712328402966153,0.9842461974141358,842.0,1.4552648256065304,0.5413659246905391,4.750466825265929,-0.0266732151796533,0.025,0.9999999999999927,-17.87890795721095,0.3824705011292095,77,2026-10-08 00:01:29.756243,61.6,0.4431688018513525,1.4005475758288144,2.0840408629456064
0413,cdot_cos,S,R-S,78,15,13729,0.02184184908114897,-0.0501837688001814,-0.023128682849964565,0.19392162985914504,842.0,1.473191182824331,0.5416050759566492,4.783326630506268,-0.009401514473101533,0.057,0.999999999999992,72.22082068594325,0.3874376461471488,78,2026-10-08 00:01:29.813244,61.6,0.15927564157353513,0.24023270527156343,0.3144974950491326
0413,cdot_cos,T,S-T,79,15,13938,-0.08936429760669119,-0.005796763470349038,-0.11120614668784017,0.0010580187592668649,842.0,1.4826513540074886,0.5416063806917121,4.813902926355139,-0.005007802227023105,0.209,0.9999999999999921,3367.512969554658,0.39240482138949284,79,2026-10-08 00:01:30.022244,61.6,0.41587383083117463,0.15126964611160668,0.04526397695290753
0413,cdot_cos,P,T-P,80,16,14360,0.04498076157141451,-0.0027142760390544063,0.13434505917810569,0.9997454237739895,839.0,1.5364218948989825,0.5428389963542101,4.855299711140474,-0.02906048198975853,0.422,0.9999999999999918,-19.513527610050616,0.39737204099708623,80,2026-10-08 00:01:30.444243,61.6,0.4370635986033111,0.07568304314209065,0.1274183433447723
0413,cdot_cos,Q,P-Q,81,16,14472,-0.02672654484025166,-0.02077436991409772,-0.07170730641166617,0.011924428478071517,839.0,1.546527842419413,0.5428536951996058,4.885683396834065,-0.005577326102601947,0.112,0.9999999999999911,1597.6190819704454,0.4023391971847218,81,2026-10-08 00:01:30.556243,61.6,0.014839414395909417,0.28697448686664656,0.09023167428955885
0413,cdot_cos,R,Q-R,82,16,14501,0.053431750724387286,0.09732440515052898,0.08015829556463895,0.9928803458318776,839.0,1.6007041799571113,0.5440773215034417,4.926829834789714,-0.030509477086820336,0.029,0.999999999999991,-20.375625226476387,0.40730633604313293,82,2026-10-08 00:01:30.585243,61.6,0.441669395197318,1.1737897995119237,1.8681495702654565
0413,cdot_cos,S,R-S,83,16,14549,0.01630558734314945,-0.05949649893771,-0.03712616338123784,0.09220772531942685,839.0,1.6146076507911047,0.5441909315891323,4.957815480576554,-0.007998805433588028,0.048,0.9999999999999905,198.13972955292243,0.41227347947213533,83,2026-10-08 00:01:30.633244,61.6,0.05994941334202046,0.24924021527273724,0.2896556423748614
0413,cdot_cos,T,S-T,84,16,14779,-0.06375019719615296,0.00043339165197062905,-0.08005578453930241,0.007164431627888783,839.0,1.6246312406232941,0.5441997587665542,4.987673320641308,-0.005809566186245904,0.23,0.9999999999999899,248.0112433121366,0.4172406637064005,84,2026-10-08 00:01:30.863244,61.6,0.6860302780509362,0.14222222923291242,0.04358082535734534
0413,cdot_cos,P,T-P,85,17,15199,0.051406968157339444,-0.004371239842047386,0.11515716535349241,0.9991703539352952,815.0,1.6800298762382444,0.5454305455400312,5.028621317349742,-0.03274238008064636,0.42,0.9999999999999897,-21.88259938666298,0.4222078926841825,85,2026-10-08 00:01:31.283243,61.6,0.4393023480881387,0.0783090284618873,0.13190151336892925
0413,cdot_cos,Q,P-Q,86,17,15309,-0.02097273345883076,-0.016244814531294498,-0.0723797016161702,0.011446150782265355,815.0,1.6904108245312794,0.5454446418220715,5.058245690761936,-0.006257570091763572,0.11,0.9999999999999888,1878.850743278758,0.4271750501835203,86,2026-10-08 00:01:31.393243,61.6,0.014516879533032889,0.30093450486545464,0.09437225720940946
0413,cdot_cos,R,Q-R,87,17,15337,0.06044762215353324,0.10758309097500951,0.08142035561236399,0.9934093700928267,815.0,1.7462354673086444,0.5466677756872212,5.0989777360219675,-0.03429615196024191,0.028,0.9999999999999888,-22.92355944624777,0.43214218841518603,87,2026-10-08 00:01:31.421243,61.6,0.44151508816383184,1.2181069214307696,1.9937372420487494
0413,cdot_cos,S,R-S,88,17,15391,0.013028515309273764,-0.04486056637665027,-0.04741910684425948,0.05112434395588067,815.0,1.7586248121314025,0.5467307073488943,5.128788828628042,-0.00776235244702307,0.054,0.9999999999999882,421.6287764825825,0.43710933348261927,88,2026-10-08 00:01:31.475244,61.6,0.03276914813881253,0.20766533299564433,0.22943231153255755
0413,cdot_cos,T,S-T,89,17,15618,-0.09154731079463836,-0.005841575516961681,-0.10457582610391213,0.0015908878177753145,815.0,1.768663323272174,0.5467326656329845,5.157865829868264,-0.006329716084706196,0.227,0.9999999999999876,731.5773893439463,0.4420765219055602,89,2026-10-08 00:01:31.702244,61.6,0.7974509017517439,0.14769831315531526,0.04422251603864087
0413,cdot_cos,P,T-P,90,18,16014,0.03970682434669129,-0.005785590152648505,0.13125413514132966,0.9996920467971507,823.0,1.8256798463039157,0.5479629359753088,5.198433041171265,-0.03661761369729776,0.396,0.9999999999999872,-24.618896002459838,0.4470437548207103,90,2026-10-08 00:01:32.098243,61.6,0.43729811717459466,0.08521776424126197,0.14398111876702435
0413,cdot_cos,Q,P-Q,91,18,16121,-0.03933320816468751,-0.026890255202818573,-0.0790400325113788,0.0076235074673291214,823.0,1.8361557925512535,0.5479723156074318,5.227322938066217,-0.006854255724718742,0.107,0.9999999999999861,3173.1903322312937,0.4520109133688805,91,2026-10-08 00:01:32.205244,61.6,0.01300634459855957,0.3180369645924399,0.09790603969474608
0413,cdot_cos,R,Q-R,92,18,16146,0.057714646145013565,0.09028632542511386,0.09704785430970107,0.9974728880145858,823.0,1.8937397567266978,0.5491992665147548,5.267734520673404,-0.03835812163321072,0.025,0.9999999999999865,-25.676549665077236,0.456978050417852,92,2026-10-08 00:01:32.230243,61.6,0.43985555952698174,1.5414126042853482,2.3033585670177725
0413,cdot_cos,S,R-S,93,18,16205,0.03444097907393832,-0.10109952543989253,-0.023273667071075248,0.19252938209827405,823.0,1.913226422765521,0.5494360206906663,5.298569309990382,-0.013247523521291191,0.059,0.9999999999999857,106.06190161268624,0.4619451973125248,93,2026-10-08 00:01:32.289243,61.6,0.15024413284539373,0.2565247005384737,0.3302824752342898
0413,cdot_cos,T,S-T,94,18,16418,-0.03875202062769325,0.0022653411663030336,-0.07319299970163157,0.010892928384694637,823.0,1.9240096713902377,0.5494494151015811,5.327109937644889,-0.007388970895505181,0.213,0.9999999999999851,437.38785252108664,0.4669123874736427,94,2026-10-08 00:01:32.502244,61.6,0.4525404979262227,0.16231279941276722,0.05062558039773146
0413,cdot_cos,P,T-P,95,19,16837,0.04609001069815579,-0.004995088980943502,0.08484203132584904,0.9946551846406495,841.0,1.9823716753153597,0.5506721811911681,5.367288725478314,-0.040691698476791376,0.419,0.999999999999985,-27.23556685525457,0.47187963788779436,95,2026-10-08 00:01:32.921243,61.6,0.44112995426905655,0.08274844678823359,0.13928879218406212
0413,cdot_cos,Q,P-Q,96,19,16944,-0.025772348925482566,-0.017889374512068273,-0.07186235962363835,0.01181241608842072,841.0,1.9933528697987775,0.5506866989783127,5.395605929381926,-0.007792275078727513,0.107,0.9999999999999838,2266.1458712999483,0.4768467984762157,96,2026-10-08 00:01:33.028243,61.6,0.01466845203433916,0.32723520748748824,0.10262798582633385
0413,cdot_cos,R,Q-R,97,19,16969,0.061254893291261665,0.09541626868397417,0.08702724221674424,0.9953251766593562,841.0,2.052400009717682,0.5519096686448566,5.435680097697991,-0.042616358103552195,0.025,0.9999999999999836,-28.475017800921727,0.48181393505275333,97,2026-10-08 00:01:33.053244,61.6,0.4416873692198869,1.439040340187696,2.3618855967561903
0413,cdot_cos,S,R-S,98,19,17027,0.012703453445321162,-0.053607481161509,-0.0485514398459405,0.04784465937652279,841.0,2.0653048868081623,0.5519684403400305,5.464209032293404,-0.009479304799499332,0.058,0.9999999999999826,563.8267401683237,0.4867810821942491,98,2026-10-08 00:01:33.111244,61.6,0.030326719867696757,0.2030192344635536,0.22249788087034567
0413,cdot_cos,T,S-T,99,19,17237,-0.08309937086962645,0.00941918068320324,-0.0958028243149476,0.0027280022673875225,841.0,2.0759502409154544,0.5519717913352619,5.4920502344754905,-0.007864278495552842,0.21,0.9999999999999819,481.95422327317414,0.49174827645987135,99,2026-10-08 00:01:33.321243,61.6,0.8143522247780215,0.16848464412763056,0.050692162415677006
0413,cdot_cos,P,T-P,100,20,17678,0.0527650617589762,-0.0022162255955261545,0.13586443262860265,0.9997681641344294,854.0,2.136068437341767,0.5531995559566583,5.531995825644992,-0.04514775811036143,0.441,0.999999999999982,-30.366960380731772,0.49671554507075405,100,2026-10-08 00:01:33.762244,61.6,0.4378800738063992,0.08098360326394718,0.13632244087599243
0413,cdot_cos,Q,P-Q,101,20,17790,-0.017358256748654093,-0.013566895173021851,-0.07012331850763029,0.013130546953151512,854.0,2.147377778994256,0.5532156766331805,5.559749034393582,-0.008637092883361498,0.112,0.9999999999999808,2264.8345543464166,0.5016827091456657,101,2026-10-08 00:01:33.874244,61.6,0.014593285257258592,0.3194925505820508,0.10097626475436391
0413,cdot_cos,R,Q-R,102,20,17818,0.05686802632688676,0.09714592152539533,0.07422628307554086,0.9897719340085382,854.0,2.2076347686721465,0.5544305180555281,5.5994740533549985,-0.04676317020984449,0.028,0.9999999999999801,-31.383583589705193,0.5066498461017178,102,2026-10-08 00:01:33.902244,61.6,0.4425059436742089,1.31774470873577,2.1520353456389505
0413,cdot_cos,S,R-S,103,20,17868,0.010507071875297903,-0.04326172718956919,-0.04636095445158886,0.05438049178924161,854.0,2.221171482683459,0.5544972457074221,5.627532718480455,-0.010683025473617346,0.05,0.9999999999999797,540.7075434567568,0.5116169909352142,103,2026-10-08 00:01:33.952243,61.6,0.034138347691557866,0.24420323588413062,0.27073428022625023
0413,cdot_cos,T,S-T,104,20,18097,-0.08663577620296582,0.006757210296013292,-0.09714284807826373,0.002512404521963715,854.0,2.2320550922605595,0.55450032850914,5.654816291364002,-0.008636573738502332,0.229,0.9999999999999786,663.8285307910786,0.5165841968090565,104,2026-10-08 00:01:34.181243,61.6,0.7890293144822359,0.1582463614573962,0.04752667937598493
0413,cdot_cos,P,T-P,105,21,18532,0.051523706562033804,-0.0050552680240239,0.13815948276499962,0.9997987223855052,840.0,2.2936483162309464,0.5557267786205577,5.6945052546756845,-0.049644944065465116,0.435,0.9999999999999782,-33.43663957073464,0.5215514756876963,105,2026-10-08 00:01:34.616243,61.6,0.4377824567420044,0.08404226218469694,0.14159361832272854
0413,cdot_cos,Q,P-Q,106,21,18641,-0.01972213676847861,-0.014624221128350344,-0.07124584333051241,0.012264040760313535,840.0,2.305171860361246,0.5557418186991898,5.7217125626939875,-0.009438121257634973,0.109,0.9999999999999772,2673.3120079641726,0.5265186407779427,106,2026-10-08 00:01:34.725244,61.6,0.014121664624356984,0.3369369027501297,0.10572058835137096
0413,cdot_cos,R,Q-R,107,21,18668,0.06369006397872366,0.10200056851554837,0.08341220074720226,0.9941659434080113,840.0,2.3671005610304747,0.5569606778380913,5.761246398929142,-0.05150287477578992,0.027,0.9999999999999768,-34.51157904601289,0.5314857768197526,107,2026-10-08 00:01:34.752243,61.6,0.44186726873763865,1.3837074958200963,2.293655580341809
0413,cdot_cos,S,R-S,108,21,18725,0.009367782879419587,-0.041343262545312204,-0.05432228109930408,0.0340180949181335,840.0,2.379892065135531,0.557002372374622,5.788538803122825,-0.010807945831752395,0.057,0.9999999999999756,976.0254539364774,0.536452924434636,108,2026-10-08 00:01:34.809243,61.6,0.023161154793536438,0.210084670244146,0.22441235272028703
0413,cdot_cos,T,S-T,109,21,18937,-0.08387945363488097,0.004643174303327307,-0.09324723651430056,0.0031916205113748856,840.0,2.3910502134383074,0.5570062841673501,5.815316686527549,-0.009475420565915021,0.212,0.9999999999999747,340.6431164602647,0.5414201298668226,109,2026-10-08 00:01:35.021244,61.6,0.8688109990397328,0.17497581577727347,0.05263277501309568
0413,cdot_cos,P,T-P,110,22,19372,0.06004371744506756,-0.007349766116520921,0.14392317107994854,0.9998588670891436,842.0,2.454081811025095,0.5582314053973182,5.85478073959091,-0.054327231243653754,0.435,0.9999999999999741,-36.61009994815513,0.5463874214294885,110,2026-10-08 00:01:35.456243,61.6,0.4379781882694067,0.0857698388519948,0.14490022433744293
0413,cdot_cos,Q,P-Q,111,22,19479,-0.016724244981068816,-0.011792460309039058,-0.07676796242613637,0.008758734889098526,842.0,2.465669973239543,0.5582421343151651,5.881446235058797,-0.010141663683212532,0.107,0.9999999999999731,4118.3619998642525,0.5513545878480745,111,2026-10-08 00:01:35.563244,61.6,0.012818879810495676,0.35019565278955417,0.10830058144343745
0413,cdot_cos,R,Q-R,112,22,19503,0.06730452624938575,0.10271977505199777,0.08402877123045457,0.9943821485850818,842.0,2.5290236807220596,0.5594598361443636,5.920766783810442,-0.056257425112357304,0.024,0.9999999999999726,-37.87114408746555,0.5563217221367813,112,2026-10-08 00:01:35.587244,61.6,0.4405516651074365,1.5702195726037353,2.639737811771533
0413,cdot_cos,S,R-S,113,22,19562,-0.001489189369077764,-0.015692822658637563,-0.06879371561846352,0.014235300108456122,842.0,2.541040512724522,0.5594772632698624,5.947325291489503,-0.0108317533218485,0.059,0.9999999999999712,2606.6072568110403,0.561288871020036,113,2026-10-08 00:01:35.646244,61.6,0.015089583896805647,0.19853181821187482,0.20367511868580523
0413,cdot_cos,T,S-T,114,22,19774,-0.09275664850268472,0.00964870064360897,-0.09126745913360695,0.0036040895844553647,842.0,2.552450435271061,0.5594816754417182,5.9736300362522154,-0.010332195705902417,0.212,0.9999999999999702,113.22261060190425,0.5662560820219538,114,2026-10-08 00:01:35.858243,61.6,0.9528006217732615,0.17886415230707237,0.05382038937046566
0413,cdot_cos,P,T-P,115,23,20214,0.04870116857842361,0.0021404897793640943,0.14145781708110833,0.9998357245262276,921.0,2.616878913302721,0.5607053216366573,6.01289511903816,-0.059176221553751476,0.44,0.9999999999999704,-39.91678807964625,0.5712233887297236,115,2026-10-08 00:01:36.298244,61.6,0.438059936521654,0.08696960987280566,0.14642835916286356
0413,cdot_cos,Q,P-Q,116,23,20343,-0.02031053352357462,-0.017426412618545214,-0.06901170210199822,0.014048093983923569,921.0,2.62898369195913,0.5607225091369716,6.039166701475863,-0.011282497537416142,0.129,0.9999999999999685,2786.543891809163,0.5761905665350501,116,2026-10-08 00:01:36.427244,61.6,0.014336341084940129,0.29633912805370277,0.09383549346053505
0413,cdot_cos,R,Q-R,117,23,20368,0.05030510693130346,0.08940966713242833,0.07061564045487809,0.987256687527766,921.0,2.693334408340576,0.5619300265077839,6.078203035851544,-0.060816927372501224,0.025,0.9999999999999689,-41.02171201211353,0.5811577004731391,117,2026-10-08 00:01:36.452243,61.6,0.44286767487703144,1.5871448937051902,2.5740286552578517
0413,cdot_cos,S,R-S,118,23,20425,0.007091720517706494,-0.04127666829375779,-0.04321338641359697,0.06525661583088715,921.0,2.7083409366443894,0.5620098164381865,6.104989734440689,-0.014393338178865463,0.057,0.9999999999999671,581.8226555581969,0.5861248489371957,118,2026-10-08 00:01:36.509243,61.6,0.039741770367333985,0.2337948559635336,0.263272426382688
0413,cdot_cos,T,S-T,119,23,20652,-0.08426079690043757,0.018382421803218012,-0.09135251741814407,0.0035853225453245374,921.0,2.719987021920419,0.5620142001557499,6.130851581445568,-0.011225298699965613,0.227,0.9999999999999657,722.6833008937867,0.5910920724410875,119,2026-10-08 00:01:36.736243,61.6,0.7541053656345258,0.17058861248064344,0.051304340423037956
0413,cdot_cos,P,T-P,120,24,21135,0.04790916625940407,-0.00483113995655273,0.13216996315984164,0.9997089340950429,857.0,2.7857881667106015,0.5632361484155574,6.169943359144148,-0.0642885552451257,0.483,0.9999999999999655,-43.42512550696723,0.5960594124882782,120,2026-10-08 00:01:37.219244,61.6,0.4380632560419853,0.08083626181039548,0.13623425422398036
0413,cdot_cos,Q,P-Q,121,24,21243,-0.022544741739926488,-0.015804810541958238,-0.07045390799933056,0.012869263023607184,857.0,2.798074850829261,0.563251873596929,6.195771135658302,-0.012174403371708267,0.108,0.9999999999999637,3314.0572844212456,0.60102658344186,121,2026-10-08 00:01:37.327244,61.6,0.01383390353907631,0.3630280333733163,0.11376559369129184
0413,cdot_cos,R,Q-R,122,24,21270,0.06334364061866747,0.09605332388867857,0.08588838235859396,0.9949871457425714,857.0,2.864202221919238,0.5644672787540774,6.234745409641642,-0.06640128273443595,0.027,0.9999999999999634,-44.616298560023125,0.6059937174406446,122,2026-10-08 00:01:37.354244,61.6,0.4419077657029675,1.4601630197431452,2.4491618922213627
0413,cdot_cos,S,R-S,123,24,21325,-0.0013260277691780615,-0.012378416090761865,-0.06466966838784553,0.01827725442752049,857.0,2.876923653895391,0.5644895977426814,6.260493024960635,-0.012951858390496476,0.055,0.9999999999999619,2394.795987059151,0.6109608652442263,123,2026-10-08 00:01:37.409244,61.6,0.0161348062450578,0.22593416977482486,0.23129876320278278
0413,cdot_cos,T,S-T,124,24,21535,-0.07893571025271778,0.00755702564774532,-0.07760968248353972,0.00831984966211487,857.0,2.8890549805944685,0.5644997573127954,6.28600379990997,-0.012404464801698602,0.21,0.999999999999961,53.87960146457669,0.6159280870459614,124,2026-10-08 00:01:37.619244,61.6,0.9568307527473073,0.1887338279999931,0.057768222376560395
0413,cdot_cos,P,T-P,125,25,21992,0.047132839663493506,-0.0044701207205013705,0.1260685499162113,0.9995761990055657,861.0,2.956191861655388,0.565719967516748,6.32494207205564,-0.06954724338560835,0.457,0.9999999999999603,-46.83027432389068,0.6208954303022608,125,2026-10-08 00:01:38.076244,61.6,0.4397100553464829,0.08698347836269518,0.14690783601951732
0413,cdot_cos,Q,P-Q,126,25,22102,-0.02725613706557618,-0.019571083235708445,-0.07438897672906969,0.010127105870810263,861.0,2.968557879817972,0.5657323259045309,6.350330203805164,-0.012984132272794725,0.11,0.9999999999999584,4576.900491101812,0.6258626045368095,126,2026-10-08 00:01:38.186244,61.6,0.012825423666020725,0.3631043608266816,0.11241834693258164
0413,cdot_cos,R,Q-R,127,25,22129,0.0628509329579037,0.09657697046714549,0.09010707002347988,0.9961298930190623,861.0,3.036074821037258,0.5669475290737938,6.389174774662458,-0.07180044344716,0.027,0.9999999999999585,-48.4003931705057,0.6308297378589072,127,2026-10-08 00:01:38.213243,61.6,0.44080017680819417,1.5412888099049442,2.5006274525661474
0413,cdot_cos,S,R-S,128,25,22182,0.02017823419503442,-0.07383469240522111,-0.04267269876286928,0.06731789972508813,861.0,3.051787475552839,0.567029622948523,6.415208467905608,-0.016940368531802998,0.053,0.9999999999999566,668.260270285645,0.6357968850456335,128,2026-10-08 00:01:38.266243,61.6,0.0392257149337055,0.27104817750756227,0.29646517953926443
0413,cdot_cos,T,S-T,129,25,22413,-0.04311439172751153,0.0060240672662474366,-0.06329262592254595,0.01986315373081051,861.0,3.0648059278530595,0.5670538452719021,6.440494235499182,-0.014101707327905767,0.231,0.999999999999955,117.19194560629018,0.640764124056277,129,2026-10-08 00:01:38.497243,61.6,0.8176678183320061,0.1759841247717176,0.05635693636459127
0413,cdot_cos,P,T-P,130,26,22853,0.04815013293597072,-0.003174475929377093,0.09126452466348225,0.9963952612179707,898.0,3.1330921411973724,0.5682684959165952,6.479258366602058,-0.07490129272724139,0.44,0.9999999999999547,-50.055203662855654,0.645731474352377,130,2026-10-08 00:01:38.937243,61.6,0.4440893698619326,0.09222241045690471,0.15519593941889306
0413,cdot_cos,Q,P-Q,131,26,22966,-0.019989636741396286,-0.015060963367409093,-0.06813976967736701,0.014811781269056695,898.0,3.1459616490551356,0.5682865459896538,6.5043374842801285,-0.014300908993735605,0.113,0.9999999999999529,3357.348390609282,0.6506986527505951,131,2026-10-08 00:01:39.050244,61.6,0.014443371200684783,0.3605986737237067,0.11388945006870085
0413,cdot_cos,R,Q-R,132,26,22993,0.059356004293703996,0.09052529578996353,0.07934564103510028,0.9925176025138315,898.0,3.21458744145893,0.5694956416147761,6.543007460081879,-0.07719594171918365,0.027,0.9999999999999525,-52.01824522281868,0.655665785384661,132,2026-10-08 00:01:39.077244,61.6,0.44275207030995284,1.5287857099138948,2.5416960149553525
0413,cdot_cos,S,R-S,133,26,23042,0.0034687637165773722,-0.036089049631062665,-0.05588724057712662,0.030988688945782522,898.0,3.228516077390486,0.5695333791080068,6.56818002433866,-0.015871095348325648,0.049,0.999999999999951,1625.0376249382894,0.6606329307018937,133,2026-10-08 00:01:39.126244,61.6,0.020985305371601995,0.26787452119226407,0.28425787615419995
0413,cdot_cos,T,S-T,134,26,23272,-0.08769793187888203,0.02143074562516953,-0.0911666955954594,0.003626448484089165,898.0,3.240839144535772,0.5695377952819046,6.592877311027113,-0.014098792912591274,0.23,0.9999999999999492,401.3207986715454,0.6656001764290757,134,2026-10-08 00:01:39.356243,61.6,0.8818741063083676,0.17846875928968206,0.05357855280559166
0413,cdot_cos,P,T-P,135,27,23751,0.051801306536621516,-0.003685633834527507,0.13949923841550355,0.999814663680461,902.0,3.3106117066637397,0.570754913509265,6.631573529625217,-0.08078331681210252,0.479,0.999999999999949,-54.78886307054457,0.6705675642027663,135,2026-10-08 00:01:39.835244,61.6,0.4380273387031725,0.08733760813015876,0.14566296895191583
0413,cdot_cos,Q,P-Q,136,27,23863,-0.005417254366053588,-0.005223285374186831,-0.0572185609026751,0.028618571489077028,902.0,3.324508573124464,0.570789739630635,6.656495783519634,-0.01629507931647122,0.112,0.9999999999999468,1851.720345500826,0.6755347445589395,136,2026-10-08 00:01:39.947244,61.6,0.019110290929057853,0.37249388433704556,0.12407916482789652
0413,cdot_cos,R,Q-R,137,27,23890,0.06399228605579628,0.09452237952716888,0.06940954042184987,0.9862873325841603,902.0,3.394050336755238,0.5719895283852332,6.694966547107867,-0.08251042651923264,0.027,0.9999999999999464,-55.18917138453557,0.680501876330937,137,2026-10-08 00:01:39.974244,61.6,0.4482030796847194,1.5365827540883004,2.5756208752138443
0413,cdot_cos,S,R-S,138,27,23941,-0.000635548180518171,-0.00255152252788973,-0.06462783423631445,0.018323551199586882,902.0,3.4074840418452323,0.5720118104692467,6.719618058406638,-0.016135559534683628,0.051,0.9999999999999446,2978.8446603329908,0.6854690228721105,138,2026-10-08 00:01:40.025243,61.6,0.016349188354075173,0.25258045372924925,0.2634059821567533
0413,cdot_cos,T,S-T,139,27,24173,-0.15023164326168503,-0.026181043784581807,-0.14959609508116686,9.951332777530045e-05,902.0,3.4198135430356214,0.5720119314801628,6.743921981053669,-0.014865366905137513,0.232,0.9999999999999427,10496.512791408484,0.6904362770612813,139,2026-10-08 00:01:40.257244,61.6,0.9181023184960375,0.17969994229241518,0.053144401682711215
0413,cdot_cos,P,T-P,140,28,24653,0.0492411242157144,-0.0028598284003082427,0.19947276747739945,0.9999953911264751,857.0,3.490864815068913,0.5732275157577617,6.782520227260736,-0.08664839177713085,0.48,0.9999999999999427,-59.05228143768709,0.6954036828040818,140,2026-10-08 00:01:40.737243,61.6,0.43672989687277153,0.08913167634380381,0.14802348340269095
0413,cdot_cos,Q,P-Q,141,28,24742,-0.004558898578965133,-0.0033941386667495116,-0.05380002279467953,0.035091260885437466,857.0,3.505379952325673,0.5732701563672447,6.807206792350794,-0.017920207448993693,0.089,0.9999999999999398,1611.801171733581,0.7003708515769191,141,2026-10-08 00:01:40.826244,61.6,0.02159628985254283,0.47859610732019797,0.16309142985123612
0413,cdot_cos,R,Q-R,142,28,24793,0.062717847632134,0.10835606466746704,0.06727674621109914,0.9843921072157086,857.0,3.5760549221719082,0.5744658793562144,6.8455518630983585,-0.08825311687734072,0.051,0.9999999999999404,-58.82040412131473,0.7053379975435394,142,2026-10-08 00:01:40.877243,61.6,0.45070361392343034,0.8278447488644087,1.3857837224752005
0413,cdot_cos,S,R-S,143,28,24842,-0.000355770725389874,-0.0019060447582661645,-0.06307361835752388,0.0201275104754349,857.0,3.5898201167098427,0.5744903188378357,6.869905885008663,-0.017393552230823985,0.049,0.9999999999999379,2899.389019145173,0.7103051429177487,143,2026-10-08 00:01:40.926244,61.6,0.017010943572562512,0.2702960539789843,0.2809223375088664
0413,cdot_cos,T,S-T,144,28,25071,-0.0932953608828789,0.002578959140028306,-0.09293959015748902,0.0032524831193629206,857.0,3.6025439354618487,0.5744942680750723,6.893932078091477,-0.016137074109781654,0.229,0.9999999999999357,318.15716447934204,0.7152724028289452,144,2026-10-08 00:01:41.155244,61.6,0.9250913204737466,0.185623673840437,0.05556252730133629
0413,cdot_cos,P,T-P,145,29,25510,0.05197966131197909,-0.005562722544772914,0.145275022194858,0.999870142288433,861.0,3.674835759328763,0.5757078796452921,6.93244176923421,-0.09269917806644476,0.439,0.9999999999999357,-63.08616845404296,0.7202398001752015,145,2026-10-08 00:01:41.594244,61.6,0.4378320073059436,0.09739207822949994,0.1646738584667748
0413,cdot_cos,Q,P-Q,146,29,25619,-0.023515814895408767,-0.01681208486224011,-0.07549547620738786,0.009466154015917319,861.0,3.6880541801473496,0.5757193650339203,6.956444495407274,-0.017148908092199044,0.109,0.9999999999999332,6577.946329912715,0.7252069839326977,146,2026-10-08 00:01:41.703244,61.6,0.012209462074905642,0.3934942630944019,0.12126991576685155
0413,cdot_cos,R,Q-R,147,29,25646,0.06426242699233797,0.09879476953144643,0.08777824188774674,0.9955355717477347,861.0,3.7606175086833424,0.5769268004161032,6.994866664115454,-0.09516489724034705,0.027,0.999999999999933,-64.61297250301077,0.730174114080783,147,2026-10-08 00:01:41.730243,61.6,0.44052064586828504,1.6236984532887981,2.6875306865182513
0413,cdot_cos,S,R-S,148,29,25699,0.01217218300884891,-0.053469922353677014,-0.05209024398348906,0.03883743225759395,861.0,3.7757338966249447,0.5769738858770279,7.019191218382061,-0.02005751125841316,0.053,0.9999999999999308,1595.1290378587087,0.7351412624161724,148,2026-10-08 00:01:41.783243,61.6,0.023645050621783993,0.2684731668546137,0.285214866822685
0413,cdot_cos,T,S-T,149,29,25930,-0.06239515254491353,0.009025792855596928,-0.07456733555376244,0.010017557842583468,861.0,3.7890756643699315,0.5769860306685781,7.04301302724763,-0.017769529386529478,0.231,0.9999999999999287,188.39202487957698,0.7401085316667009,149,2026-10-08 00:01:42.014244,61.6,0.8791860693244852,0.18790197117995552,0.05775657032461794
0413,cdot_cos,P,T-P,150,30,26371,0.05002619710983457,-0.0029998954725157048,0.1124213496547481,0.9990182142069876,894.0,3.862544607310084,0.578196721291217,7.081435672337548,-0.09889795264570891,0.441,0.9999999999999284,-67.01003686833445,0.7450759475437579,150,2026-10-08 00:01:42.455244,61.6,0.44028871441837575,0.09877766020654251,0.16659624249467736
0413,cdot_cos,Q,P-Q,151,30,26483,-0.02014810631419937,-0.015247010345043227,-0.07017430342403394,0.013089911882467832,894.0,3.876197560672102,0.5782125784956529,7.105196157359042,-0.018587572921938786,0.112,0.999999999999926,5064.598873564852,0.7500431362213149,151,2026-10-08 00:01:42.567244,61.6,0.013291253741486956,0.3893806353806297,0.1219013693037301
0413,cdot_cos,R,Q-R,152,30,26512,0.05827920636423476,0.091149719105722,0.07842731267843413,0.9920855760688428,894.0,3.9497658696353453,0.5794139258549112,7.143495686078592,-0.10120848614961672,0.029,0.9999999999999257,-68.7735421324627,0.7550102670219252,152,2026-10-08 00:01:42.596244,61.6,0.44204493845930437,1.5347204740744396,2.5368382401118375
0413,cdot_cos,S,R-S,153,30,26560,0.006800816501463392,-0.04210627528001803,-0.05147838986277137,0.040269088083042845,894.0,3.9652113481684195,0.579462669190725,7.167558424087351,-0.021489464492868177,0.048,0.9999999999999234,1635.485555633571,0.7599774121366957,153,2026-10-08 00:01:42.644243,61.6,0.02448537440447719,0.2984487195433899,0.32178080277237936
0413,cdot_cos,T,S-T,154,30,26788,-0.08137897588427677,0.017217882556981475,-0.08817979238574015,0.004355828031394598,894.0,3.9784169467115107,0.5794679415686114,7.19100909723156,-0.01843953947130194,0.228,0.9999999999999208,578.4723870873445,0.7649446875179595,154,2026-10-08 00:01:42.872243,61.6,0.8475534564583962,0.19282133426724637,0.05791929185566326
0413,cdot_cos,P,T-P,155,31,27265,0.05308566074881057,-0.0041530961459597514,0.13446463663308733,0.9997472916135945,862.0,4.053137876594284,0.5806775729650512,7.229378564959028,-0.10540702656637835,0.477,0.9999999999999212,-71.89585798701903,0.7699121475331877,155,2026-10-08 00:01:43.349244,61.6,0.4382071785982775,0.0933831651081603,0.15664765174585563
0413,cdot_cos,Q,P-Q,156,31,27377,-0.009159018046329582,-0.008399416155850613,-0.06224467879514015,0.02115965568905362,862.0,4.067504486224696,0.5807031643972851,7.252981347090237,-0.020491086845484438,0.112,0.9999999999999181,3318.139404811677,0.7748793390919109,156,2026-10-08 00:01:43.461244,61.6,0.01585860946600441,0.39645267452802424,0.128273300271534
0413,cdot_cos,R,Q-R,157,31,27402,0.06100095707574763,0.09521586876190623,0.07015997512207721,0.9868986809872327,862.0,4.141943275688561,0.5818962791976195,7.291140640679173,-0.10724754986169448,0.025,0.9999999999999175,-72.7142626944951,0.7798464660258214,157,2026-10-08 00:01:43.486243,61.6,0.44533140202750954,1.788861423944077,2.9775515785546247
0413,cdot_cos,S,R-S,158,31,27459,0.004221058170868434,-0.033444513011614725,-0.056779898904879195,0.02937940398398051,862.0,4.1569475574218995,0.5819317829239493,7.3147702475225636,-0.021852394471986517,0.057,0.9999999999999157,2405.244863497962,0.7848136181032187,158,2026-10-08 00:01:43.543243,61.6,0.02008430021986657,0.24935736867118788,0.263233012865583
0413,cdot_cos,T,S-T,159,31,27669,-0.08305851669053783,0.010272892181480591,-0.08727957486140626,0.004603053040548397,862.0,4.170370015717077,0.5819373454355538,7.337951885499096,-0.01961549787838514,0.21,0.9999999999999128,402.13787451982785,0.7897808878377202,159,2026-10-08 00:01:43.753243,61.6,0.8922247581838292,0.2126850519752202,0.06391646807227232
0413,cdot_cos,P,T-P,160,32,28127,0.048856057008516064,-0.006372518948730485,0.1319145736990539,0.9997043202051626,841.0,4.246275279251492,0.5831449316506657,7.376265953232235,-0.11202553562168105,0.458,0.999999999999913,-76.52458813032055,0.794748352740253,160,2026-10-08 00:01:44.211244,61.6,0.438278139726015,0.09799863207197909,0.1657320164506884
0413,cdot_cos,Q,P-Q,161,32,28233,-0.026214498459479346,-0.018195614271386235,-0.0750705554679954,0.009714764113243122,841.0,4.2601367626950095,0.5831566616677207,7.399429779970985,-0.02067563109624198,0.106,0.99999999999991,7787.70432276651,0.7997155426353261,161,2026-10-08 00:01:44.317244,61.6,0.012055428739567674,0.42471703132208755,0.13076871173129778
0413,cdot_cos,R,Q-R,162,32,28258,0.06336923725783472,0.0930658832228338,0.08958373571731407,0.9960036047925425,841.0,4.3363152898917745,0.5843587767161929,7.437674237809075,-0.11473463043054966,0.025,0.9999999999999098,-78.24459019447107,0.8046826686961891,162,2026-10-08 00:01:44.342243,61.6,0.44052148006879793,1.854489796607055,3.0471410878705996
0413,cdot_cos,S,R-S,163,32,28317,0.015634827945511184,-0.0651912252799755,-0.047734409312323534,0.05019031211635123,841.0,4.352861252525362,0.5844193269021047,7.46136775491232,-0.02518808264973223,0.059,0.9999999999999071,1478.8814672034591,0.8096498230506682,163,2026-10-08 00:01:44.401243,61.6,0.028578068583036728,0.26128761784537363,0.2804400446370807
0413,cdot_cos,T,S-T,164,32,28527,-0.052298692453112514,0.005061924080058031,-0.0679335203986237,0.01499832436360261,841.0,4.367147228797529,0.584437420563418,7.484452103321555,-0.02182457632958077,0.21,0.9999999999999045,185.8941792888177,0.8146171006632086,164,2026-10-08 00:01:44.611244,61.6,0.8571729793366921,0.21726146722347506,0.06802845843888726
0413,cdot_cos,P,T-P,165,33,28968,0.04768806546446611,-0.0050257420641550265,0.09998675791757863,0.9978904825058087,860.0,4.444111068759222,0.5856407408782905,7.522692830995637,-0.11870732187882123,0.441,0.999999999999905,-80.51284795229222,0.8195845712594835,165,2026-10-08 00:01:45.052243,61.6,0.44213146073951654,0.10343598142398987,0.1745211790514585
0413,cdot_cos,Q,P-Q,166,33,29075,-0.02284242483646513,-0.01574544764711115,-0.07053049030093124,0.012809471475134693,860.0,4.458377764413488,0.5856561807507378,7.545653428022264,-0.022232227177162132,0.107,0.9999999999999014,6248.438582078934,0.8245517650599752,166,2026-10-08 00:01:45.159244,61.6,0.013044019155789536,0.42781720167480625,0.13333360424547533
0413,cdot_cos,R,Q-R,167,33,29102,0.06354108109380224,0.09439451068712264,0.08638350593026738,0.9951369955507153,860.0,4.53566394991763,0.586855150645519,7.583841287937791,-0.12157227661358641,0.027,0.9999999999999013,-82.85449857317214,0.8295188920102226,167,2026-10-08 00:01:45.186244,61.6,0.44169861694554363,1.7244535040843938,2.8624513149682476
0413,cdot_cos,S,R-S,168,33,29158,0.009856304223571472,-0.0439677548320099,-0.05368477687023077,0.03533243206745124,860.0,4.551498253634045,0.5868977013455723,7.607065026106304,-0.02516470302939032,0.056,0.9999999999998989,2265.710633747064,0.8344860446087119,168,2026-10-08 00:01:45.242244,61.6,0.021686541174245084,0.2638630418270568,0.28275542350740335
0413,cdot_cos,T,S-T,169,33,29386,-0.08451686656764848,0.010705923165555825,-0.09437317079121996,0.0029783966456414356,860.0,4.565216610602261,0.5869012881568824,7.629718139858547,-0.02187277662505967,0.228,0.999999999999896,917.7863343645566,0.8394533458475395,169,2026-10-08 00:01:45.470243,61.6,0.8602748383098018,0.20164785360578616,0.06016823231673584
0413,cdot_cos,P,T-P,170,34,29828,0.04904373960943102,-0.002763323815680863,0.1335606061770795,0.9997328233620227,894.0,4.643449674878283,0.5881047189614275,7.667948824645993,-0.12588473536567601,0.442,0.9999999999998956,-86.42952993041666,0.8444208365000958,170,2026-10-08 00:01:45.912243,61.6,0.437688597425877,0.10622111226086361,0.17699788297742697
0413,cdot_cos,Q,P-Q,171,34,29940,-0.006709982107896134,-0.006617205741245722,-0.055753721717327155,0.03123662029964282,894.0,4.659116073840864,0.5881423032311454,7.69096009299757,-0.0254651403066677,0.112,0.9999999999998925,2671.8517031926785,0.8493880377948898,171,2026-10-08 00:01:46.024243,61.6,0.01938192850602572,0.41550615523509266,0.13987856216589917
0413,cdot_cos,R,Q-R,172,34,29969,0.05600571398118502,0.08843854289578355,0.06271569608908116,0.9794330180461083,894.0,4.736523053650944,0.5893202450310538,7.728864070423643,-0.12697131528883052,0.029,0.9999999999998924,-86.17248746079696,0.8543551656787891,172,2026-10-08 00:01:46.053244,61.6,0.4495798561489947,1.6049794148096528,2.669206200347588
0413,cdot_cos,S,R-S,173,34,30017,-0.0006577947734652721,-0.023595024652106802,-0.056663508754650295,0.02958454637929536,894.0,4.752204879899824,0.5893558098337006,7.75176691500761,-0.02597720506778817,0.048,0.9999999999998889,2839.7208111659174,0.8593223115416604,173,2026-10-08 00:01:46.101243,61.6,0.020490428667794148,0.3101436893825453,0.32670471351832947
0413,cdot_cos,T,S-T,174,34,30246,-0.08429328030003667,0.017145536053900547,-0.08363548552657141,0.005754820933951014,894.0,4.7662968478316685,0.589362727832654,7.774229837935655,-0.02341670661869505,0.229,0.9999999999998863,370.1212541886327,0.8642896227543734,174,2026-10-08 00:01:46.330244,61.6,0.8964211500134028,0.20406465610948712,0.06153697786831672
0413,cdot_cos,P,T-P,175,35,30722,0.050539964622901105,-0.007697342834369171,0.13483324492293777,0.9997529636223262,804.0,4.845666492397969,0.5905640145992512,7.812429135595491,-0.13306506276297858,0.476,0.9999999999998869,-91.27575462674226,0.8692571645761286,175,2026-10-08 00:01:46.806243,61.6,0.4386643992310908,0.0993609776406699,0.16674295076953904
0413,cdot_cos,Q,P-Q,176,35,30795,-0.011677481250193881,-0.006372516912960237,-0.06221744587309499,0.021194428861159208,804.0,4.860888498545586,0.5905894698337301,7.8350563457306786,-0.02577070264266415,0.073,0.999999999999883,4215.021480534176,0.8742243324886457,176,2026-10-08 00:01:46.879244,61.6,0.015554210088765575,0.6468231404149654,0.20852063215913907
0413,cdot_cos,R,Q-R,177,35,30854,0.06296053093386493,0.10613080711996359,0.07463801218405881,0.9900255265279105,804.0,4.940102670898554,0.5917779811815702,7.873095618616185,-0.13529215809983186,0.059,0.9999999999998834,-92.15011338023675,0.8791914881289334,177,2026-10-08 00:01:46.938244,61.6,0.44507247956766494,0.8145125117778177,1.3426130907282678
0413,cdot_cos,S,R-S,178,35,30913,0.013255297015700336,-0.044162858840702486,-0.049705233918164594,0.04470894759958297,804.0,4.957000974935369,0.5918316284182227,7.896020422413427,-0.02914293541406289,0.059,0.9999999999998802,1978.6521973800639,0.8841586446626486,178,2026-10-08 00:01:46.997243,61.6,0.02619031728868157,0.2646601703637508,0.2864119328273677
0413,cdot_cos,T,S-T,179,35,31127,-0.0685828674619269,-0.005685906056703091,-0.08183816447762723,0.00642424668346714,804.0,4.971332571001477,0.5918393368314961,7.91827232453216,-0.024794219090013336,0.214,0.9999999999998768,564.1519427894025,0.889125950668104,179,2026-10-08 00:01:47.211244,61.6,0.8391277253777145,0.22143574264829577,0.06697007507527056
0413,cdot_cos,P,T-P,180,36,31526,0.04382228647910967,0.004118721701845709,0.11240515394103658,0.9990172351968615,875.0,5.051775472788839,0.5930374993307609,7.956434666136796,-0.1403689972560052,0.399,0.999999999999877,-96.4600196024452,0.8940934393445573,180,2026-10-08 00:01:47.610244,61.6,0.4389525344850174,0.11974865303172699,0.20161128267509443
0413,cdot_cos,Q,P-Q,181,36,31659,-0.0225323888413773,-0.02272545302517503,-0.06635467532048697,0.01650501929868706,875.0,5.066891996120795,0.5930572852306518,7.978771523035583,-0.026628684117831692,0.133,0.9999999999998734,5748.553958381762,0.8990606683417511,181,2026-10-08 00:01:47.743244,61.6,0.01396298170970634,0.3566065330531454,0.1136580701650786
0413,cdot_cos,R,Q-R,182,36,31690,0.04183552531597324,0.10055581638948786,0.06436791415735055,0.9813862126261078,875.0,5.146632810580976,0.5942332074281858,8.016646041925796,-0.14165576086567677,0.031,0.9999999999998735,-97.81861163015093,0.904027796680247,182,2026-10-08 00:01:47.774244,61.6,0.4439610938893266,1.799613966795589,2.5722843374252005
0413,cdot_cos,S,R-S,183,36,31749,0.02516181390557374,-0.05771869020238339,-0.0166737114103995,0.2636465948828825,875.0,5.178468062062121,0.5945489320619748,8.042910664850432,-0.05715749122671504,0.059,0.9999999999998709,267.6328059198002,0.9089949542917606,183,2026-10-08 00:01:47.833244,61.6,0.22801562521229043,0.3927910375068843,0.5395805335787339
0413,cdot_cos,T,S-T,184,36,31946,-0.058609421894536766,-0.00073003640256895,-0.0837712358001105,0.00570717202287738,875.0,5.192982153006788,0.5945557657065295,8.064948590572579,-0.026175657110987762,0.197,0.9999999999998682,4533.720457343512,0.9139622530656827,184,2026-10-08 00:01:48.030244,61.6,0.30617070654846856,0.243868450877933,0.07367558855160937
0413,cdot_cos,P,T-P,185,37,32401,0.0502213462373534,-0.0066579995840547876,0.10883076813189016,0.9987754729538568,863.0,5.274552231708027,0.595751111502886,8.103093007329553,-0.1483315305480919,0.455,0.9999999999998682,-102.1929167354288,0.9189298205501795,185,2026-10-08 00:01:48.485244,61.6,0.43887846419729215,0.10609030878574918,0.17927489824448034
0413,cdot_cos,Q,P-Q,186,37,32508,-0.02302772554724144,-0.015300864348425269,-0.07324907178459483,0.010855776414486373,863.0,5.28952433400182,0.5957640976069273,8.12514093884562,-0.02747692179208569,0.107,0.9999999999998638,9306.456222083914,0.9238970275967348,186,2026-10-08 00:01:48.592243,61.6,0.012296947480159293,0.4521446439835058,0.13992618966161868
0413,cdot_cos,R,Q-R,187,37,32531,0.06298394419795832,0.0901753570459708,0.08601166974519975,0.9950248829967335,863.0,5.371311185520497,0.5969538135929647,8.1632225697632,-0.1513264284375989,0.023,0.9999999999998642,-104.10006093808529,0.9288641469626295,187,2026-10-08 00:01:48.615244,61.6,0.44112537238512345,2.147935293981621,3.5559500660294368
0413,cdot_cos,S,R-S,188,37,32590,0.011087295090775646,-0.058877109012534366,-0.05189664910718267,0.039285054622776296,863.0,5.388329357524975,0.5970007620393819,8.185663984934171,-0.03177856757433268,0.059,0.9999999999998604,2546.364576177749,0.9338313056165882,188,2026-10-08 00:01:48.674243,61.6,0.023239493902358254,0.2704329343167881,0.2884435932962293
0413,cdot_cos,T,S-T,189,37,32803,-0.0661489572824617,0.011091660929455892,-0.07723625237323735,0.008511803919699747,863.0,5.403222271769878,0.5970109340188392,8.207545339229418,-0.027892257825750645,0.213,0.9999999999998569,382.0603221720433,0.9387986297788846,189,2026-10-08 00:01:48.887244,61.6,0.8699383597298492,0.22909966694957848,0.06991978518734021
0413,cdot_cos,P,T-P,190,38,33264,0.05498594554589151,-0.006875353179815031,0.12113490282835321,0.9994257722176161,856.0,5.485925815645495,0.5982047094428744,8.245684871525869,-0.15614108550215716,0.461,0.9999999999998573,-107.43128489184288,0.9437662257623127,190,2026-10-08 00:01:49.348243,61.6,0.43983086138629185,0.10592728122588627,0.1794003120946138
0413,cdot_cos,Q,P-Q,191,38,33371,-0.023440997863049075,-0.01560293024054228,-0.07842694340894057,0.00791460253773473,856.0,5.500887225060145,0.598214158503549,8.267486248530243,-0.02849968759212217,0.107,0.999999999999853,13508.368959206367,0.948733436117436,191,2026-10-08 00:01:49.455244,61.6,0.011348217058852025,0.457028538191038,0.13982625621168396
0413,cdot_cos,R,Q-R,192,38,33396,0.061505428462025294,0.09007732405534291,0.08494642632507438,0.9946892634864338,856.0,5.583729922818377,0.5994011120069579,8.305547550467065,-0.15905477531214318,0.025,0.9999999999998533,-109.99174554442811,0.9537005565140374,192,2026-10-08 00:01:49.480243,61.6,0.4400713484459148,2.003696766657921,3.3137079103292777
0413,cdot_cos,S,R-S,193,38,33454,0.010276575571681741,-0.05239339472261797,-0.051228852890343554,0.04086737323228721,856.0,5.601072063393041,0.5994498538310501,8.327825628659664,-0.033595823400580906,0.058,0.9999999999998497,2573.948641606818,0.9586677148013552,193,2026-10-08 00:01:49.538244,61.6,0.023888417218290645,0.27673525301833535,0.29900242370110514
0413,cdot_cos,T,S-T,194,38,33685,-0.07985580088876097,0.008548078063567121,-0.09013237646044271,0.003864101956009487,856.0,5.615831212168504,0.5994544623782073,8.349436624607206,-0.028673910343446896,0.231,0.9999999999998462,1067.9966786099233,0.9636350683816463,194,2026-10-08 00:01:49.769243,61.6,0.8422728498014015,0.21331027862085075,0.06389241894139742
0413,cdot_cos,P,T-P,195,39,34120,0.04727901305710181,-0.007354318760490809,0.1271348139458628,0.9996031298813897,824.0,5.699621412115874,0.6006460526255533,8.3875678256127,-0.164053788007412,0.435,0.9999999999998461,-113.61277751769119,0.9686026572522182,195,2026-10-08 00:01:50.204243,61.6,0.4381401651525529,0.11416491927096867,0.1926211493042994
0413,cdot_cos,Q,P-Q,196,39,34217,-0.022416205519802782,-0.015469747378274029,-0.0696952185769046,0.013476689514290145,824.0,5.715154691934247,0.6006621095897954,8.409271797707133,-0.030679329179140805,0.097,0.9999999999998419,8306.330936356733,0.9735698594785951,196,2026-10-08 00:01:50.301243,61.6,0.012940775374820001,0.5128361077017306,0.16013690534404632
0413,cdot_cos,R,Q-R,197,39,34249,0.0648484366563733,0.0954919624030513,0.08726464217617608,0.9953927303941985,824.0,5.79911161701001,0.6018474818973969,8.447334231585527,-0.1670987504359372,0.032,0.999999999999842,-115.08571643016316,0.9785369870489605,197,2026-10-08 00:01:50.333244,61.6,0.44202006218148204,1.5986816404534587,2.623653908617601
0413,cdot_cos,S,R-S,198,39,34297,0.017834182715329314,-0.06534974769171321,-0.047014253941043985,0.052347780302493936,824.0,5.817470316923268,0.6019097878035853,8.469623744917161,-0.03686190025392676,0.048,0.9999999999998379,2090.2809725329894,0.9835041343132719,198,2026-10-08 00:01:50.381243,61.6,0.029214155502501518,0.35407140089571687,0.38247291485954404
0413,cdot_cos,T,S-T,199,39,34542,-0.05158865012061953,0.003625191055980578,-0.06942283283594884,0.013701597685124732,824.0,5.833102471495999,0.6019260953130398,8.491214792833276,-0.031478754342782876,0.245,0.9999999999998341,330.10227135988157,0.988471515029775,199,2026-10-08 00:01:50.626244,61.6,0.8428141056567048,0.204924044245696,0.06380471254175799
0413,cdot_cos,P,T-P,200,40,34944,0.054275492589262016,-0.0006709810528311317,0.10586414270988154,0.9985303073249808,874.0,5.917883098603659,0.6031139252860623,8.529321268031527,-0.17202066688018436,0.402,0.9999999999998345,-118.31820692297835,0.9934390864320072,200,2026-10-08 00:01:51.028243,61.6,0.44175229424418666,0.12499639169703489,0.21089708235736399
0413,cdot_cos,Q,P-Q,201,40,35056,-0.015580158418024898,-0.012402800189442759,-0.06985565100728691,0.013345928948909491,874.0,5.933599570420415,0.6031297931179855,8.55084303799063,-0.032161149505266336,0.112,0.9999999999998297,8814.028157837674,0.9984063100091222,201,2026-10-08 00:01:51.140243,61.6,0.012923471139483798,0.4478022117370972,0.14032564122103328
0413,cdot_cos,R,Q-R,202,40,35088,0.05808751250202063,0.1015786568282016,0.07366767092004553,0.9894176448686195,874.0,6.018190794032769,0.604305568952425,8.58879832962696,-0.17438908453263952,0.032,0.9999999999998304,-120.96517963832218,1.0033734369929828,202,2026-10-08 00:01:51.172243,61.6,0.44238346889041913,1.5831609777092193,2.643475737886064
0413,cdot_cos,S,R-S,203,40,35132,-0.0006157964664721322,-0.0028441146338983774,-0.05870330896849276,0.026182725223353978,874.0,6.034921872993805,0.6043366669213573,8.610474559073266,-0.03478343365188122,0.044,0.9999999999998263,4489.220861486618,1.0083405796196365,203,2026-10-08 00:01:51.216243,61.6,0.01806882374099218,0.36056158270423505,0.38025179456899966
0413,cdot_cos,T,S-T,204,40,35362,-0.10032187472282894,0.01005229586255191,-0.09970607825635681,0.0021462289448887146,874.0,6.049920213310742,0.6043392160212189,8.631692978132532,-0.03126313385923945,0.23,0.999999999999822,1380.997208376906,1.0133079531267086,204,2026-10-08 00:01:51.446244,61.6,0.8935059649304294,0.21939342966972403,0.06521017529102911
0413,cdot_cos,P,T-P,205,41,35818,0.05112257170580712,-0.005659477990701334,0.15144444642863605,0.999911194920589,884.0,6.135842850641878,0.6055262027262313,8.669818333815652,-0.18040805220087547,0.456,0.9999999999998226,-125.6500327356911,1.0182756126169683,205,2026-10-08 00:01:51.902244,61.6,0.43748679052691586,0.1115319385542986,0.188426836252492
0413,cdot_cos,Q,P-Q,206,41,35925,-0.020649357901760316,-0.013169959980371305,-0.07177192960756744,0.011877616895492299,884.0,6.151637341272262,0.6055402951029949,8.691140878011051,-0.03343941633097968,0.107,0.9999999999998174,10428.94597092222,1.0232428335188726,206,2026-10-08 00:01:52.009243,61.6,0.012337994372072905,0.4755326792917093,0.14761206196620524
0413,cdot_cos,R,Q-R,207,41,35949,0.0631016531373767,0.08726578159129662,0.08375101103913701,0.9942857539478978,884.0,6.237606844010304,0.6067193560398189,8.729174087139077,-0.183326030245943,0.024,0.9999999999998173,-127.1237212884969,1.0282099494200765,207,2026-10-08 00:01:52.033243,61.6,0.44149176228710724,2.1382492916712237,3.5820626140850758
0413,cdot_cos,S,R-S,208,41,36008,0.0019392595576518713,-0.029675626673294056,-0.06116239357972483,0.022585483841769106,884.0,6.254273307272481,0.6067461243623306,8.750619696921916,-0.03583404353180496,0.059,0.9999999999998133,5509.945072191309,1.0331771114275528,208,2026-10-08 00:01:52.092243,61.6,0.016310048859549425,0.2706407102113793,0.28248242817249003
0413,cdot_cos,T,S-T,209,41,36220,-0.08970802465918612,0.021512873481517418,-0.09164728421683799,0.0035210362010432003,884.0,6.269542447815247,0.6067502974377758,8.771689951159416,-0.03291351044667327,0.212,0.9999999999998089,699.8514940557053,1.038144472066595,209,2026-10-08 00:01:52.304243,61.6,0.9150893538595418,0.2410817977249484,0.07202424784323513
0413,cdot_cos,P,T-P,210,42,36702,0.05101355425122201,-0.00397416168315196,0.14072157891040812,0.9998281040440784,857.0,6.356491989507859,0.607934645085862,8.809812683773664,-0.18875310747385726,0.482,0.9999999999998094,-131.58264575354724,1.0431121893116035,210,2026-10-08 00:01:52.786243,61.6,0.43796045568853126,0.1082387083440372,0.18039324002616652
0413,cdot_cos,Q,P-Q,211,42,36811,-0.004579101979176644,-0.004659050547474027,-0.055592656230398656,0.03153825822582776,857.0,6.3738845626588985,0.6079719831894568,8.831306002229237,-0.03806714388981665,0.109,0.9999999999998043,4035.715504449491,1.0480794162898113,211,2026-10-08 00:01:52.895243,61.6,0.019093147541037678,0.4765532492805028,0.15956489129394122
0413,cdot_cos,R,Q-R,212,42,36839,0.06619399852649761,0.10553109524173412,0.07077310050567426,0.9873781416933683,857.0,6.4603805978510085,0.6091402981247073,8.869219466984868,-0.1906557533116151,0.028,0.9999999999998045,-130.60571667611424,1.0530465361631856,212,2026-10-08 00:01:52.923244,61.6,0.4491781411330157,1.8373943474199976,3.089144114003929
0413,cdot_cos,S,R-S,213,42,36891,-0.0004003297302064576,-0.0022192954369452482,-0.06659432825670407,0.016267086131008385,857.0,6.476778646114418,0.6091595357162156,8.890393585795307,-0.0364339442493819,0.052,0.9999999999997997,8016.690082815887,1.0580136893267633,213,2026-10-08 00:01:52.975244,61.6,0.014510024156239535,0.3068099781428336,0.3153470819886509
0413,cdot_cos,T,S-T,214,42,37100,-0.08818451146789585,0.0075450726847785445,-0.0877841817376894,0.004462802328890025,857.0,6.492288835577863,0.6091648134040909,8.911315824289012,-0.034546086830986186,0.209,0.9999999999997953,357.70539353744294,1.0629810555353214,214,2026-10-08 00:01:53.184243,61.6,0.9468188389879665,0.24756424943844435,0.07421143283944903
0413,cdot_cos,P,T-P,215,43,37559,0.05277311836585747,-0.006245063608746141,0.14095762983375332,0.9998305850330745,861.0,6.580260502379688,0.6103465621200214,8.949440269588804,-0.19728887769958559,0.459,0.9999999999997956,-137.71353306735932,1.0679487668424292,215,2026-10-08 00:01:53.643244,61.6,0.43828060501968275,0.11323690733639105,0.1916594047970041
0413,cdot_cos,Q,P-Q,216,43,37666,-0.022649118925021132,-0.015637592846761993,-0.0754222372908786,0.009508550217840186,861.0,6.59624031651267,0.6103577945466562,8.970393976605052,-0.0361215888119145,0.107,0.99999999999979,14348.394530189329,1.0729159947900193,216,2026-10-08 00:01:53.750243,61.6,0.011541574889097145,0.4864835812242636,0.1493440573175898
0413,cdot_cos,R,Q-R,217,43,37691,0.06682420599894892,0.09773152693588989,0.08947332492397006,0.9959764411842291,861.0,6.6843679887616805,0.6115336885119579,9.00845681301815,-0.20056192481411014,0.025,0.9999999999997908,-139.84282669569066,1.0778831094617667,217,2026-10-08 00:01:53.775244,61.6,0.4404765479465638,2.101156174682224,3.525106889960412
0413,cdot_cos,S,R-S,218,43,37750,0.0045181936114426615,-0.04067348093518081,-0.06230601238750626,0.021081544352112437,861.0,6.701298125246781,0.6115585643449887,9.029557047938903,-0.03883368342017742,0.059,0.9999999999997856,6501.420121036709,1.082850272985806,218,2026-10-08 00:01:53.834244,61.6,0.015535334577271987,0.28010795458580334,0.28695146584916764
0413,cdot_cos,T,S-T,219,43,37960,-0.06931169734269096,0.013116392418986853,-0.07382989095413363,0.010478237377534167,861.0,6.717420727402805,0.6115709282553808,9.0504263180665,-0.03707227942308628,0.21,0.999999999999781,142.46334219691772,1.0878176503655437,219,2026-10-08 00:01:54.044243,61.6,0.9535983647604118,0.25011476764202584,0.0767742959810662
0413,cdot_cos,P,T-P,220,44,38420,0.04403538001004051,-0.004522017885231914,0.11334707735273147,0.999072583515988,899.0,6.806346327656432,0.6127491332333682,9.088541506259602,-0.20584677267723794,0.46,0.9999999999997814,-143.2471398503634,1.092785387869545,220,2026-10-08 00:01:54.504243,61.6,0.44047414992525064,0.11440226085358793,0.19331652229049334
0413,cdot_cos,Q,P-Q,221,44,38529,-0.027821664742816152,-0.01812982023100134,-0.07185704475285666,0.011816238354945434,899.0,6.822670807388106,0.6127630602472197,9.109381025531226,-0.038081827441628725,0.109,0.9999999999997755,12046.009792511113,1.0977526223954743,221,2026-10-08 00:01:54.613244,61.6,0.012211457396735795,0.48364894283712145,0.1497658690979261
0413,cdot_cos,R,Q-R,222,44,38555,0.06066731882851879,0.08407122240965657,0.08848898357133494,0.9957259975553159,899.0,6.911781797194925,0.6139359919001892,9.147443526135534,-0.20925194328753355,0.026,0.999999999999776,-145.9335805394586,1.1027197372868094,222,2026-10-08 00:01:54.639244,61.6,0.44130912594316485,2.0767337124233145,3.427345761800713
0413,cdot_cos,S,R-S,223,44,38610,0.011030158947467741,-0.06366947872181485,-0.04963715988105105,0.044888388601789904,899.0,6.9306609604341185,0.6139888378764541,9.168811879403563,-0.044678681065848116,0.055,0.9999999999997711,3114.2061109217607,1.1076868957583863,223,2026-10-08 00:01:54.694243,61.6,0.02513521974225692,0.32571356618200653,0.3432575134398874
0413,cdot_cos,T,S-T,224,44,38821,-0.05282760021511,0.015314377183258523,-0.06385775916257774,0.01919661670616742,899.0,6.947610289474945,0.6140114367528358,9.189684989437028,-0.040214559435533405,0.211,0.9999999999997664,197.53732685288432,1.1126542848021652,224,2026-10-08 00:01:54.905244,61.6,0.8949319495941755,0.25322939660593075,0.08032857365320811
0413,cdot_cos,P,T-P,225,45,39319,0.05722101109397874,-0.005414238742447478,0.11004861130908875,0.9988638742033391,861.0,7.037523765801821,0.6151866515501093,9.227803105301065,-0.2147300969936313,0.498,0.9999999999997667,-148.4967156327211,1.1176221047483292,225,2026-10-08 00:01:55.403244,61.6,0.4436495039978808,0.10660273123201876,0.18054914925075471
0413,cdot_cos,Q,P-Q,226,45,39426,-0.0198856280863524,-0.013842234842690558,-0.07710663918033114,0.008579450265766758,861.0,7.053786609782036,0.615196739917641,9.248438401577214,-0.03913318390831944,0.107,0.9999999999997613,17405.879844653053,1.1225893399851634,226,2026-10-08 00:01:55.510243,61.6,0.011252539749955996,0.4965286402311809,0.15198919607677408
0413,cdot_cos,R,Q-R,227,45,39452,0.063706444545563,0.09559527017532894,0.0835920726319154,0.9942298576500459,861.0,7.143780894811294,0.6163651578759918,9.286480970306553,-0.21793624233880457,0.026,0.999999999999761,-153.0300498657755,1.1275564534703855,227,2026-10-08 00:01:55.536243,61.6,0.4402390227365399,2.062735674536836,3.461318654971457
0413,cdot_cos,S,R-S,228,45,39510,0.0010713887127024517,-0.022797866745008884,-0.06263505583286055,0.020667284637603495,861.0,7.161048864857952,0.6163894318504852,9.307279818084355,-0.04213221210191948,0.058,0.9999999999997559,7242.490523516335,1.1325236169546857,228,2026-10-08 00:01:55.594244,61.6,0.01541097979432438,0.28550922102183096,0.2977236214940963
0413,cdot_cos,T,S-T,229,45,39738,-0.098345977772758,0.011602370757081202,-0.09941736648546044,0.0021846561712373933,861.0,7.176899964449826,0.6163919977215495,9.327707020165011,-0.038764627323633005,0.228,0.9999999999997508,1312.4528450237328,1.1374910420886502,229,2026-10-08 00:01:55.822243,61.6,0.916793868467909,0.2342739913797865,0.06952236663102986
0413,cdot_cos,P,T-P,230,46,40180,0.05526731588854779,0.008107756274161968,0.15361329366130577,0.9999223001003777,839.0,7.267877804927134,0.6175657205661511,9.365851449381315,-0.22388806459707145,0.442,0.9999999999997512,-157.72329739076991,1.1424588025228803,230,2026-10-08 00:01:56.264243,61.6,0.43742189864490916,0.1228981948151675,0.2058322182744521
0413,cdot_cos,Q,P-Q,231,46,40321,-0.00426194416303978,-0.006670921446139968,-0.05952926005158757,0.024916268088249302,839.0,7.285541968666434,0.6175949501885385,9.386634291397495,-0.04379555405678115,0.141,0.999999999999745,6161.301304324247,1.1474260949177546,231,2026-10-08 00:01:56.405244,61.6,0.016373050520099342,0.37065736682343925,0.1252777570163138
0413,cdot_cos,R,Q-R,232,46,40346,0.04037061769951019,0.12284157101323817,0.04463256186254997,0.939877523203794,839.0,7.372403182371344,0.6186969106341593,9.423714327991636,-0.21666647234674435,0.025,0.9999999999997448,-156.87579257218243,1.1523932053668589,232,2026-10-08 00:01:56.430244,61.6,0.4502886342905514,2.1772174669800215,3.474448548196385
0413,cdot_cos,S,R-S,233,46,40404,0.0009027146307695028,-0.006674006216271304,-0.039467903068740685,0.08082257631722341,839.0,7.3944028420154355,0.6187916143012245,9.445447799207159,-0.055278202249963514,0.058,0.9999999999997398,1704.139608296832,1.1573603694145458,233,2026-10-08 00:01:56.488243,61.6,0.05395718718960187,0.3284139568167165,0.3793044766222664
0413,cdot_cos,T,S-T,234,46,40617,-0.09214372044401571,-0.023060029252050813,-0.09304643507478522,0.003231215657788297,839.0,7.410499201362083,0.6187954002829772,9.46575321684389,-0.04054926139602955,0.213,0.9999999999997347,3890.388759426823,1.1623277818691218,234,2026-10-08 00:01:56.701244,61.6,0.6954224772641466,0.25361340774194163,0.07556976219083408
0413,cdot_cos,P,T-P,235,47,41019,0.04198758715606926,0.004269791717316699,0.13413130760008496,0.9997420504490178,894.0,7.502442153713503,0.6199660923817484,9.50390404382134,-0.23303249867409417,0.402,0.9999999999997349,-164.41832782514211,1.1672955026558318,235,2026-10-08 00:01:57.103244,61.6,0.43779999488888893,0.13571725409542665,0.2287138118194514
0413,cdot_cos,Q,P-Q,236,47,41161,-0.024790854653981873,-0.02526878377312249,-0.06677844181005113,0.01608658800645232,894.0,7.519615873654806,0.6199849183184989,9.524392979383498,-0.043845023246885405,0.142,0.9999999999997286,10049.299428464177,1.1722628029049709,236,2026-10-08 00:01:57.245243,61.6,0.013367707964850654,0.38138111113153816,0.12094168972748992
0413,cdot_cos,R,Q-R,237,47,41185,0.041797813751982674,0.09873769388888723,0.06658866840596454,0.9837273337185819,894.0,7.6107543892748595,0.6211354744799125,9.562263061714518,-0.23408103598651747,0.024,0.9999999999997286,-165.3426569859119,1.1772299105827555,237,2026-10-08 00:01:57.269243,61.6,0.44366168769807496,2.6348159394702364,3.7974381508355526
0413,cdot_cos,S,R-S,238,47,41244,0.02411628530051149,-0.0644470238845562,-0.017681528451471185,0.25177231567131536,894.0,7.646087038749378,0.6214297261536974,9.586954861180189,-0.09147951441078934,0.059,0.9999999999997249,484.62433447345995,1.182197077525737,238,2026-10-08 00:01:57.328243,61.6,0.21038090111558042,0.43893111874865615,0.5988584656697981
0413,cdot_cos,T,S-T,239,47,41457,-0.0605515891233946,0.0017496034642876543,-0.0846678744239061,0.005402152136368395,894.0,7.662548261287201,0.6214360387855649,9.60717200647036,-0.04276404780344593,0.213,0.9999999999997191,7717.140430522077,1.1871645022889452,239,2026-10-08 00:01:57.541243,61.6,0.3200849839522648,0.2567093570799128,0.0772827349193584
0413,cdot_cos,P,T-P,240,48,41913,0.05367044762828315,-0.006253785876040808,0.11422203675167775,0.9991212030141066,882.0,7.75544522486542,0.6226028426779315,9.645325817104224,-0.24276358688863708,0.456,0.9999999999997196,-171.4080150002964,1.1921323400070347,240,2026-10-08 00:01:57.997243,61.6,0.4387414971861096,0.12039068212243109,0.20372141135574456
0413,cdot_cos,Q,P-Q,241,48,42020,-0.021199865388211583,-0.013885284508365925,-0.07487031301649473,0.009834151465072919,882.0,7.772344563382858,0.6226143202637969,9.665577687446387,-0.044476275130661276,0.107,0.999999999999713,17276.0469042393,1.1970995875537602,241,2026-10-08 00:01:58.104243,61.6,0.011582365615710143,0.5135014473797109,0.15793774315362274
0413,cdot_cos,R,Q-R,242,48,42045,0.06461000703373587,0.09146066412692996,0.08580987242194746,0.9949629662085699,882.0,7.865334534604679,0.623774843918911,9.703663522502488,-0.2461662655539818,0.025,0.9999999999997132,-173.7922269266378,1.2020666957331878,242,2026-10-08 00:01:58.129244,61.6,0.4407293776321165,2.2112158642181257,3.7195988488728204
0413,cdot_cos,S,R-S,243,48,42104,-0.001000229307252249,-0.017773174848914743,-0.06561023634098812,0.017266147195437235,882.0,7.882905356593764,0.6237949706410265,9.724005481354299,-0.046841964494564604,0.059,0.9999999999997075,9903.465647097852,1.207033863749613,243,2026-10-08 00:01:58.188244,61.6,0.014189533330696804,0.28723314161965735,0.29781054218789443
0413,cdot_cos,T,S-T,244,48,42336,-0.10612315172780734,0.019884490264806116,-0.1051229224205551,0.0015382475685692878,882.0,7.899228045315798,0.6237967637175618,9.74402119424443,-0.043608143238138684,0.232,0.9999999999997018,1803.5043082946347,1.2120013322764955,244,2026-10-08 00:01:58.420243,61.6,0.9285264962232704,0.23758124977859255,0.07035641690531808
0413,cdot_cos,P,T-P,245,49,42795,0.05526711954894262,-0.007070770793030564,0.16139027127674996,0.9999518740409752,861.0,7.993143056491031,0.624961649717608,9.78220144901505,-0.2523464486390605,0.459,0.9999999999997018,-179.19204573892225,1.21696920164949,245,2026-10-08 00:01:58.879244,61.6,0.4372765738766444,0.12071201743335148,0.2046078674841681
0413,cdot_cos,Q,P-Q,246,49,42903,-0.0235510206216451,-0.016783852739743015,-0.07881814017058772,0.007727614539240674,861.0,8.010041677319615,0.6249706463287618,9.802286057635964,-0.04572219797214282,0.108,0.9999999999996952,22966.897994855884,1.2219364547557852,246,2026-10-08 00:01:58.987243,61.6,0.010898574146175698,0.5129605554324517,0.15646871137577326
0413,cdot_cos,R,Q-R,247,49,42928,0.060873329406976685,0.0907227447209248,0.08442435002862178,0.9945166464530751,861.0,8.10394253646444,0.6261277561083989,9.840374622092144,-0.25550718229174796,0.025,0.9999999999996952,-181.3008480365581,1.2269035614127946,247,2026-10-08 00:01:59.012243,61.6,0.4399680452394354,2.2501860099571758,3.7560343657930417
0413,cdot_cos,S,R-S,248,49,42986,0.003517511573297485,-0.03722030166899792,-0.0573558178336792,0.028384460010273633,861.0,8.122550977817474,0.6261607600362115,9.860794025294526,-0.05098588227535049,0.058,0.9999999999996894,6196.877570991354,1.2318707283489783,248,2026-10-08 00:01:59.070244,61.6,0.01810925802530555,0.3047920746391474,0.32083519574194386
0413,cdot_cos,T,S-T,249,49,43215,-0.08258501829758053,0.009581369287919016,-0.086102529870878,0.00494748651608218,861.0,8.139298417122582,0.626166512588043,9.880745435815376,-0.04598656039480119,0.229,0.999999999999683,869.0615968256088,1.236838203575747,249,2026-10-08 00:01:59.299244,61.6,0.8969881098080551,0.24365347313220967,0.07313292272973082
0413,cdot_cos,P,T-P,250,50,43656,0.05220666174329152,-0.003968437873597961,0.13479168004087205,0.9997523304576146,838.0,8.234144268512026,0.6273282128674972,9.918934568863856,-0.261893131123424,0.441,0.9999999999996837,-185.85393715327976,1.2418060673804976,250,2026-10-08 00:01:59.740243,61.6,0.43849487561109834,0.1270536036660323,0.21506995779919202
0413,cdot_cos,Q,P-Q,251,50,43766,-0.022897801110480034,-0.017047493559226173,-0.07510446285377155,0.009694690622064524,838.0,8.251359695556022,0.6273394708135089,9.938931152619865,-0.047860868467578664,0.11,0.9999999999996763,19011.661845984203,1.246773328272491,251,2026-10-08 00:01:59.850244,61.6,0.011424811973877593,0.5091256251152274,0.15650388221815284
0413,cdot_cos,R,Q-R,252,50,43796,0.05983868303358982,0.10248433116930432,0.08273648414406985,0.9939194887303343,838.0,8.346151906037376,0.628492923880356,9.977020657827024,-0.26498881199251345,0.03,0.9999999999996769,-188.24168036454236,1.2517404428028203,252,2026-10-08 00:01:59.880243,61.6,0.440702460570488,1.8865394646037834,3.159740349378441
0413,cdot_cos,S,R-S,253,50,43846,-0.000663351643969285,-0.00439959759569333,-0.06050203467755911,0.023501124306027653,838.0,8.36455206343225,0.6285201795051658,9.997230254025256,-0.05178634560411922,0.05,0.9999999999996702,7822.329074328268,1.256707595584916,253,2026-10-08 00:01:59.930244,61.6,0.016293924768150655,0.35866288346323216,0.36800314789747546
0413,cdot_cos,T,S-T,254,50,44095,-0.07223688013441833,-0.00016223764096462583,-0.07157352849044904,0.012021914134080486,838.0,8.382018194383699,0.6285341217041305,10.017190344609922,-0.0492623255225081,0.249,0.9999999999996635,181.0345762535447,1.2616751204240622,254,2026-10-08 00:02:00.179244,61.6,0.9500541309284393,0.22734484277014053,0.07014510422268853
0413,cdot_cos,P,T-P,255,51,44494,0.04691410032506625,-0.005222871548435682,0.11915098045948458,0.9993511762375769,841.0,8.47776979513178,0.6296923510172474,10.055385366863762,-0.27153991242588704,0.399,0.9999999999996644,-191.9115535983144,1.2666429314143957,255,2026-10-08 00:02:00.578244,61.6,0.44105678827061473,0.1421141897490685,0.2399789492433096
0413,cdot_cos,Q,P-Q,256,51,44602,-0.023137464345834493,-0.016402772110738737,-0.07005156467090075,0.013187945811617773,841.0,8.495425317803456,0.6297076256613341,10.075327052624935,-0.05040486289407952,0.108,0.9999999999996572,14477.263645351271,1.2716101929965173,256,2026-10-08 00:02:00.686244,61.6,0.012435787331093582,0.5254894362068077,0.16347706177477905
0413,cdot_cos,R,Q-R,257,51,44627,0.06463153994841958,0.10032891788320983,0.08776900429425408,0.9955330419566589,841.0,8.59127551335245,0.630859928372739,10.113459081673383,-0.2751184833637894,0.025,0.9999999999996575,-195.0126631184802,1.2765772970630773,257,2026-10-08 00:02:00.711244,61.6,0.4418483630087539,2.3253799699604016,3.834007821959773
0413,cdot_cos,S,R-S,258,51,44685,0.015642836957116355,-0.06350091598238311,-0.04898870299130323,0.04663243893547869,841.0,8.611694316301476,0.6309138677134206,10.133982353518782,-0.059003261963153926,0.058,0.9999999999996511,4006.634465114024,1.2815444658918551,258,2026-10-08 00:02:00.769243,61.6,0.02566140032588527,0.32421289719398,0.3520483267073407
0413,cdot_cos,T,S-T,259,51,44913,-0.06609576074989947,0.005772875763546137,-0.08173859770701582,0.006463514221725454,841.0,8.628884209426952,0.6309213437465828,10.153723180334255,-0.049781009635470184,0.228,0.9999999999996445,1233.575631300178,1.2865119642173382,259,2026-10-08 00:02:00.997243,61.6,0.8308911877515844,0.24970239145630965,0.07539426809419263
0413,cdot_cos,P,T-P,260,52,45335,0.05052959414555783,-0.002753249766448353,0.11662535489545729,0.9992420401248127,879.0,8.725558606805553,0.6320763607384234,10.191930236544543,-0.2814451709000857,0.422,0.999999999999645,-200.57208067167812,1.2914798448199807,260,2026-10-08 00:02:01.419244,61.6,0.43905807014780657,0.13567152737895008,0.22908624971232533
0413,cdot_cos,Q,P-Q,261,52,45445,-0.019373509311120182,-0.015179297933888896,-0.06990310345667801,0.013307493195081607,879.0,8.743390978534785,0.6320917325919087,10.21175978893422,-0.05225647262014765,0.11,0.9999999999996376,14909.633278797764,1.2964471147998156,261,2026-10-08 00:02:01.529243,61.6,0.012452383097824458,0.519017344164033,0.1621124702657507
0413,cdot_cos,R,Q-R,262,52,45478,0.05566377415708816,0.09449079207861973,0.07503728346820834,0.9902654985452278,879.0,8.83974242252164,0.6332348606427163,10.249807007804588,-0.2838257347365864,0.033,0.9999999999996378,-202.575085050912,1.3014142334997214,262,2026-10-08 00:02:01.562243,61.6,0.44224760508844835,1.769573343158677,2.9197407268743842
0413,cdot_cos,S,R-S,263,52,45525,0.005889000648612927,-0.03615500712704742,-0.049774773508475235,0.04452634954190056,879.0,8.860182819183258,0.6332862252168905,10.270182065630427,-0.06060835977584603,0.047,0.9999999999996316,4345.745653486463,1.3063813812292646,263,2026-10-08 00:02:01.609244,61.6,0.025148752917132054,0.3981833857920909,0.4349020566301704
0413,cdot_cos,T,S-T,264,52,45773,-0.09507050788320805,0.009824142548755877,-0.10095950853182098,0.001987068640851468,879.0,8.877171660786097,0.6332885173830582,10.289725845056058,-0.05048045688480803,0.248,0.9999999999996246,4418.485463002312,1.3113489324433636,264,2026-10-08 00:02:01.857243,61.6,0.8182149720860045,0.2311237464385326,0.0685033935598328
0413,cdot_cos,P,T-P,265,53,46214,0.05466551568650254,-0.0035767186512428214,0.14973602356971058,0.9999013406663412,859.0,8.97482019741677,0.6344411781436011,10.327959579795683,-0.2916389020782443,0.441,0.9999999999996249,-209.21892498522791,1.3163168776042236,265,2026-10-08 00:02:02.298244,61.6,0.43739978133170193,0.13203931605393915,0.2214252531307792
0413,cdot_cos,Q,P-Q,266,53,46326,-0.005942825184436621,-0.006204258909413619,-0.060608340870939165,0.023351312829212736,859.0,8.993630337545671,0.6344680786029372,10.347866850240488,-0.056543445784559436,0.112,0.9999999999996172,8739.458808366571,1.3212841560033073,266,2026-10-08 00:02:02.410244,61.6,0.015642176502987916,0.5150074121881129,0.16794767972232766
0413,cdot_cos,R,Q-R,267,53,46354,0.05852327962572781,0.10027807423165125,0.06446610481016443,0.9814963821692992,859.0,9.090181857746908,0.6355979911988112,10.385762425585815,-0.2917136693323922,0.028,0.9999999999996179,-208.13134078385968,1.3262512633802783,267,2026-10-08 00:02:02.438244,61.6,0.44656603550870927,2.0653002211826594,3.4482685786155924
0413,cdot_cos,S,R-S,268,53,46404,-0.00042160881588413355,-0.016638241916551343,-0.05894488844161194,0.025805957549070786,859.0,9.1092871499319,0.6356276792877525,10.405679248137952,-0.05809049865026877,0.05,0.999999999999611,7869.255954596488,1.3312184173137946,268,2026-10-08 00:02:02.488243,61.6,0.01792228192876951,0.36251891790241686,0.382105843699847
0413,cdot_cos,T,S-T,269,53,46633,-0.10082802372664319,0.006337103986098811,-0.10040641491075906,0.0020557941280459646,859.0,9.12643374953715,0.6356300443018509,10.425113543135854,-0.052238712126359374,0.229,0.9999999999996037,2474.3135899368394,1.3361859429873033,269,2026-10-08 00:02:02.717243,61.6,0.894026274253742,0.2526298163979898,0.07487598080894906
0413,cdot_cos,P,T-P,270,54,47073,0.04736712774464272,-0.0037547611315209076,0.14819515147128592,0.9998915183819395,837.0,9.22499160584218,0.6367795550924716,10.463361565380069,-0.3017622027848764,0.44,0.9999999999996037,-217.06928955731684,1.3411539135748003,270,2026-10-08 00:02:03.157243,61.6,0.43740846316861554,0.1346190732795546,0.2239951279659773
0413,cdot_cos,Q,P-Q,271,54,47184,-0.006614155165962047,-0.007114541591578983,-0.053981282910604764,0.03471515069502411,837.0,9.244898534023157,0.6368194368916816,10.483376965409596,-0.06134116030567381,0.111,0.9999999999995959,6028.339925520392,1.3461211944901248,271,2026-10-08 00:02:03.268243,61.6,0.019852841545278596,0.5298316363710031,0.17934169532412664
0413,cdot_cos,R,Q-R,272,54,47212,0.06108941426330127,0.1032730311548249,0.06770356942926332,0.9847909670313187,837.0,9.342614229116542,0.6379500084939386,10.521347063963136,-0.30261132855991457,0.028,0.9999999999995965,-213.40547363174375,1.3510883006359036,272,2026-10-08 00:02:03.296243,61.6,0.45054653706256786,2.13718521111301,3.4898462533351653
0413,cdot_cos,S,R-S,273,54,47262,0.01601136055045136,-0.054143152722285856,-0.04507805371284991,0.05859036454167009,837.0,9.364580905845486,0.6380172241567528,10.541780607050764,-0.06846015003744689,0.05,0.9999999999995898,3483.5805929595726,1.3560554549377781,273,2026-10-08 00:02:03.346244,61.6,0.03270409048308516,0.39471469874136744,0.43933353457887847
0413,cdot_cos,T,S-T,274,54,47490,-0.07167170465838894,0.0005617381742795172,-0.08768306520884031,0.004490561670524815,837.0,9.382085698990679,0.6380223755674096,10.561155521538097,-0.054669262292393106,0.228,0.9999999999995818,2677.108983107015,1.3610229917346075,274,2026-10-08 00:02:03.574244,61.6,0.7770424015638815,0.25644779295354275,0.07677540853154746
0413,cdot_cos,P,T-P,275,55,47910,0.051907574724056424,-0.004298770415531601,0.12357927938244537,0.9995060013288142,843.0,9.481521099432301,0.6391681818295591,10.599411274463566,-0.3120542631776557,0.42,0.9999999999995827,-224.6322169704363,1.3659909475788055,275,2026-10-08 00:02:03.994244,61.6,0.438318933521193,0.1398234130383134,0.236750953432435
0413,cdot_cos,Q,P-Q,276,55,48020,-0.023361288348517823,-0.016830639212242388,-0.07526886307257424,0.009597944985909393,843.0,9.499537365942862,0.6391791769979129,10.61884828290548,-0.05689105271900484,0.11,0.9999999999995745,23206.848885648957,1.3709582312037905,276,2026-10-08 00:02:04.104243,61.6,0.011275531979726595,0.5339888554235728,0.16378424100509584
0413,cdot_cos,R,Q-R,277,55,48046,0.06301086889485669,0.10207592065101977,0.0863721572433745,0.9951336112869801,843.0,9.598998647625487,0.6403183838361654,10.657028134574055,-0.315582359109009,0.026,0.9999999999995752,-227.08019097466615,1.3759253318794773,277,2026-10-08 00:02:04.130244,61.6,0.4405520121985043,2.33242524937404,3.8254339108702107
0413,cdot_cos,S,R-S,278,55,48103,0.016688170636834095,-0.06170406211594759,-0.04632269825802259,0.0545018022159072,843.0,9.620823478910312,0.6403807307714193,10.677286837494085,-0.06968286055690097,0.057,0.9999999999995675,3944.05109971184,1.3808925022570495,278,2026-10-08 00:02:04.187244,61.6,0.029338999646575294,0.3496784452885131,0.3828917769267473
0413,cdot_cos,T,S-T,279,55,48313,-0.05955427868179373,0.004654040924002904,-0.07624244931862782,0.00904430204303517,843.0,9.638861990388378,0.6403910764757572,10.696646164271176,-0.05771253540969254,0.21,0.99999999999956,1157.0333692381064,1.3858600124671185,279,2026-10-08 00:02:04.397243,61.6,0.812684012041305,0.281620956463162,0.08589767370507571
0413,cdot_cos,P,T-P,280,56,48753,0.04496095248234477,-0.001962251389022375,0.1045152311641385,0.9984031723611182,896.0,9.73910428062484,0.641532337710887,10.734895657528716,-0.3222345370878632,0.44,0.9999999999995605,-231.78041410307208,1.3908280405740177,280,2026-10-08 00:02:04.837244,61.6,0.4400358947287105,0.1350798981484572,0.2278233869010503
0413,cdot_cos,Q,P-Q,281,56,48874,-0.02293816151769609,-0.01763238023043389,-0.06789911400004085,0.01502966776540627,896.0,9.75773230075902,0.6415495057171317,10.754336006892773,-0.06024690449292118,0.121,0.999999999999552,15260.22467966677,1.3957953538220331,281,2026-10-08 00:02:04.958244,61.6,0.01292533591890111,0.4901770757206894,0.15395057962132389
0413,cdot_cos,R,Q-R,282,56,48898,0.053077857374570894,0.08750786852429612,0.07601601889226699,0.9908298280412879,896.0,9.857727132949247,0.6426805032137347,10.792447545605459,-0.32491685883162674,0.024,0.9999999999995526,-234.014624376835,1.4007624485714807,282,2026-10-08 00:02:04.982244,61.6,0.4428263932147339,2.579430582173914,4.166451341259443
0413,cdot_cos,S,R-S,283,56,48957,0.012538798019796918,-0.05576174331018129,-0.040539059354773976,0.0760542781158954,896.0,9.881544968703368,0.64276725104151,10.813025468647732,-0.07787228585002125,0.059,0.9999999999995451,2847.8473676775257,1.405729624471929,283,2026-10-08 00:02:05.041243,61.6,0.04190154697355118,0.35571649915262255,0.4036921314257834
0413,cdot_cos,T,S-T,284,56,49171,-0.06467411808698659,0.012896250678359571,-0.0772129161067835,0.00852394418332875,896.0,9.899701679849256,0.6427769729048862,10.832276748849122,-0.059488789777534606,0.214,0.9999999999995374,1890.9436762349092,1.410697156113001,284,2026-10-08 00:02:05.255244,61.6,0.7341627512751415,0.2788163789397213,0.08484444460695438
0413,cdot_cos,P,T-P,285,57,49649,0.045871021500539205,-0.0038124015645384164,0.11054513958752579,0.9988980601430714,862.0,10.000878378889569,0.6439154361652536,10.870550446479577,-0.3330217418815571,0.478,0.9999999999995383,-240.26506750490628,1.4156653014422433,285,2026-10-08 00:02:05.733243,61.6,0.4398301502337149,0.12526392330932934,0.2116667343939591
0413,cdot_cos,Q,P-Q,286,57,49760,-0.02514623334571166,-0.017662620725303304,-0.07101725484625086,0.012435790163607923,862.0,10.019453990532975,0.6439295992561671,10.889844623677929,-0.06150822558895465,0.111,0.9999999999995296,19170.49872451224,1.420632596728192,286,2026-10-08 00:02:05.844243,61.6,0.012103464823758125,0.5392563908047123,0.16734785264330068
0413,cdot_cos,R,Q-R,287,57,49786,0.05761829710936726,0.09015661348683841,0.08276453045507892,0.993929920961915,862.0,10.120593297648215,0.6450607674594571,10.928029427443555,-0.33641817436354454,0.026,0.9999999999995297,-243.0318921403781,1.4255996943825482,287,2026-10-08 00:02:05.870244,61.6,0.4416810109238042,2.3717361411478546,3.8899733505861454
0413,cdot_cos,S,R-S,288,57,49840,0.011222268365777338,-0.04712889522738232,-0.04639602874358992,0.054269494831597674,862.0,10.142784269872664,0.6451224837711684,10.948098599951889,-0.07425972317925263,0.054,0.9999999999995222,4247.798416897317,1.430566859251477,288,2026-10-08 00:02:05.924243,61.6,0.029296381967421434,0.3723218974903974,0.41094393008238256
0413,cdot_cos,T,S-T,289,57,50050,-0.07456072471029983,0.006571583687868039,-0.08578299307607716,0.00504533874403103,862.0,10.160804062577178,0.6451282211819905,10.967186784488355,-0.06042054409203205,0.21,0.9999999999995138,2412.094848411955,1.4355343937108267,289,2026-10-08 00:02:06.134243,61.6,0.795290696877086,0.28602868941336773,0.08580853668816314
0413,cdot_cos,P,T-P,290,58,50511,0.04991186463462834,-0.00485300956583842,0.12447258934492816,0.9995324382697883,837.0,10.262916319426278,0.6462640352105028,11.005487060800556,-0.34391117440469926,0.461,0.9999999999995146,-249.59247129919294,1.4405025304131374,290,2026-10-08 00:02:06.595244,61.6,0.4385359358524009,0.13283400283208932,0.221501641755098
0413,cdot_cos,Q,P-Q,291,58,50619,-0.005630900822139665,-0.0058603386097440405,-0.055542765456768006,0.031632262259770894,837.0,10.283277013188364,0.6462999535301636,11.025058643856143,-0.06898230399105985,0.108,0.9999999999995056,7654.279849676476,1.4454698233543481,291,2026-10-08 00:02:06.703244,61.6,0.01858317794050617,0.56350478461841,0.18852494224153848
0413,cdot_cos,R,Q-R,292,58,50647,0.06360775068641328,0.10161320122020526,0.06923865150855295,0.986144230867739,837.0,10.384633352903855,0.6474188869170684,11.063106160173206,-0.3449341872140059,0.028,0.9999999999995061,-246.620474866943,1.4504369244059023,292,2026-10-08 00:02:06.731244,61.6,0.449323058649268,2.1926970477807686,3.6198692755532287
0413,cdot_cos,S,R-S,293,58,50699,0.0132964526917757,-0.048626680724627176,-0.05031129799463758,0.04314125872923309,837.0,10.406068047864087,0.6474678005629771,11.082870899796319,-0.07337496652665897,0.052,0.999999999999498,5551.809022658493,1.4554040850263006,293,2026-10-08 00:02:06.783243,61.6,0.024699330465607586,0.38254503043201926,0.4122056723121663
0413,cdot_cos,T,S-T,294,58,50927,-0.06683665633222571,0.002180167783770196,-0.08013310902400142,0.0071306299935436825,837.0,10.424418036068785,0.6474758849879254,11.101906160781335,-0.06293498862433135,0.228,0.9999999999994895,1291.3692648691479,1.4603716757566834,294,2026-10-08 00:02:07.011244,61.6,0.8471435516515866,0.2660532629004782,0.08048240440656734
0413,cdot_cos,P,T-P,295,59,51348,0.05179922919839786,-0.007369293418601212,0.11863588553062357,0.9993302730727858,857.0,10.527388335746705,0.6486080489074034,11.14021656598712,-0.3546924387884539,0.421,0.9999999999994901,-257.69894725018094,1.4653397450583778,295,2026-10-08 00:02:07.432243,61.6,0.4393035630539372,0.1445241103299698,0.24458503486441974
0413,cdot_cos,Q,P-Q,296,59,51452,-0.022127405218871354,-0.014344758644597517,-0.07392663441726921,0.010416627614242568,857.0,10.54610733696662,0.6486198413691784,11.159285400739835,-0.06485317616941996,0.104,0.9999999999994807,24578.35082700246,1.470307032901512,296,2026-10-08 00:02:07.536243,61.6,0.011456928249480466,0.5854178287294851,0.17999039634532576
0413,cdot_cos,R,Q-R,297,59,51477,0.06691077767043906,0.09532915473893783,0.08903818288931041,0.995867583954131,857.0,10.649155244122438,0.6497464045395355,11.197534508323006,-0.3585492308993876,0.025,0.9999999999994813,-260.7009198045013,1.4752741253220683,297,2026-10-08 00:02:07.561243,61.6,0.44081791889062105,2.452677102870986,4.121916286232761
0413,cdot_cos,S,R-S,298,59,51536,0.003323946915955825,-0.038106497502610054,-0.06358683075448324,0.019513376955012464,857.0,10.668741192110168,0.6497684621850123,11.216750496659136,-0.06854051219486758,0.059,0.9999999999994726,13147.76407162361,1.480241304237085,298,2026-10-08 00:02:07.620243,61.6,0.01453491620355109,0.32099256109469726,0.3319652201310217
0413,cdot_cos,T,S-T,299,59,51767,-0.08353980596247729,0.013180309257277235,-0.0868637528784331,0.004721917657903055,857.0,10.687032366331612,0.6497737996777577,11.235647086007267,-0.0641227676929695,0.231,0.9999999999994639,827.6815936966432,1.485208916199978,299,2026-10-08 00:02:07.851244,61.6,0.9334245910452491,0.26443436755997307,0.07918257238720344
0413,cdot_cos,P,T-P,300,60,52205,0.05961432302481195,-0.0060274056366257335,0.14315412898728924,0.9998520213180196,881.0,10.790909869922876,0.6509031515473452,11.273981147980006,-0.36569649929568615,0.438,0.9999999999994649,-267.03256949746225,1.490177056707669,300,2026-10-08 00:02:08.289243,61.6,0.4383858680000544,0.13982234214884476,0.23716325020836432
0413,cdot_cos,Q,P-Q,301,60,52313,-0.019955440942022395,-0.01338656550581545,-0.07956976396683435,0.007380562718276654,881.0,10.809516738054,0.6509114817565729,11.292900223430994,-0.0658775803737582,0.108,0.9999999999994547,35991.7633193723,1.4951443590446596,301,2026-10-08 00:02:08.397243,61.6,0.01055503200553455,0.5664680170809755,0.17228581602893003
0413,cdot_cos,R,Q-R,302,60,52337,0.06322607498190251,0.08920344364763667,0.0831815159239249,0.994082942594049,881.0,10.913266961612367,0.6520326280155544,11.331127105077796,-0.368855861282351,0.024,0.9999999999994557,-270.2397465820619,1.5001114472494455,302,2026-10-08 00:02:08.421243,61.6,0.43981539045258355,2.579350811781511,4.322925981598595
0413,cdot_cos,S,R-S,303,60,52396,0.0025043329900561197,-0.03279637077815958,-0.06072174199184639,0.023192530440034546,881.0,10.933325577019513,0.6520587649660265,11.350326694445858,-0.07171695043660505,0.059,0.9999999999994461,11368.537854571014,1.5050786270902523,303,2026-10-08 00:02:08.480243,61.6,0.0158717049929143,0.3243344865183685,0.33997653232451297
0413,cdot_cos,T,S-T,304,60,52607,-0.09719990572579015,0.01854598336936636,-0.09970423871584627,0.0021464716380394473,881.0,10.951538431021534,0.6520611838978198,11.3690833602205,-0.06523153954806914,0.211,0.9999999999994376,2681.105315479159,1.5100462010524027,304,2026-10-08 00:02:08.691243,61.6,0.905361109808125,0.29135039850269356,0.08631684361147497
0413,cdot_cos,P,T-P,305,61,53086,0.05283736169936904,-0.006698989014440566,0.1500372674251592,0.999903154392588,840.0,11.05627544518765,0.6531871542088405,11.407431464213888,-0.3766640897600422,0.479,0.9999999999994386,-276.59037468726024,1.5150144782257366,305,2026-10-08 00:02:09.170244,61.6,0.4374391201744742,0.12926404030053346,0.21865764961610745
0413,cdot_cos,Q,P-Q,306,61,53192,-0.0196732852411903,-0.01355744524942988,-0.07251064694055934,0.011355239023985553,840.0,11.075373381629445,0.6531999312964568,11.426340619533834,-0.0690669134083619,0.106,0.9999999999994286,24074.122804015824,1.519981779720716,306,2026-10-08 00:02:09.276243,61.6,0.01163646985036545,0.5834581060546965,0.18016921171505268
0413,cdot_cos,R,Q-R,307,61,53219,0.06339452896136157,0.09870085172738052,0.08306781420255187,0.9940416016978,840.0,11.179968563671245,0.6543175846583167,11.464578770691661,-0.37980102818497297,0.027,0.999999999999429,-278.0236926586278,1.5249488739844461,307,2026-10-08 00:02:09.303244,61.6,0.44124731925485106,2.3042847403551807,3.8738956311777804
0413,cdot_cos,S,R-S,308,61,53276,-0.0007705717898053745,-0.012648938506809853,-0.06416510075116694,0.01884338435192558,840.0,11.199804757608625,0.6543387548625591,11.483607065679442,-0.0724288987145482,0.057,0.9999999999994199,14519.0913583436,1.5299160492362933,308,2026-10-08 00:02:09.360243,61.6,0.01435327007677709,0.33585464765415346,0.34800340241016975
0413,cdot_cos,T,S-T,309,61,53507,-0.09368400369699256,0.004416292894511018,-0.09291343190718719,0.0032577111399103775,840.0,11.218255993503819,0.6543424147805679,11.502298518531555,-0.06748685749640852,0.231,0.9999999999994104,1350.3147355482724,1.534883688793813,309,2026-10-08 00:02:09.591244,61.6,0.9293873405269845,0.26845298713149085,0.07987548006577411
0413,cdot_cos,P,T-P,310,62,53926,0.0425401246325933,-0.004406125387752097,0.13622412832958586,0.9997732433376489,836.0,11.323830037663374,0.6554647577016092,11.540656597049885,-0.38768460824266143,0.419,0.999999999999411,-285.2940440424189,1.5398518371985104,310,2026-10-08 00:02:10.010243,61.6,0.43783055711827074,0.14894178732610397,0.25196669250490444
0413,cdot_cos,Q,P-Q,311,62,54035,-0.03006975149535438,-0.02153009169339235,-0.07260987612794768,0.011286822641133306,836.0,11.343069211283094,0.6554774183937399,11.559479060562802,-0.07103926890898471,0.109,0.999999999999401,25010.112880501387,1.544819151462397,311,2026-10-08 00:02:10.119244,61.6,0.011593296471921352,0.5729740553528536,0.17650617999743268
0413,cdot_cos,R,Q-R,312,62,54062,0.06260693016310434,0.10026249809638077,0.09267668165845871,0.9966945890649822,836.0,11.448738381730296,0.656594562033347,11.597781229199313,-0.39172005681290817,0.027,0.9999999999994015,-287.0542126674935,1.5497862443573294,312,2026-10-08 00:02:10.146244,61.6,0.44102758067581777,2.4386209111304926,3.9136729795259972
0413,cdot_cos,S,R-S,313,62,54117,0.024533235594767847,-0.07664608694519984,-0.038073694568336494,0.08743692058493432,836.0,11.47475474048414,0.656692483136094,11.618084935336443,-0.0969878027852153,0.055,0.999999999999393,3009.8951682484762,1.5547534151382842,313,2026-10-08 00:02:10.201244,61.6,0.04788950190990001,0.41372847954147834,0.47302470461535767
0413,cdot_cos,T,S-T,314,62,54327,-0.04527470560616077,0.002464304727494894,-0.06980794120092862,0.013384683558237884,836.0,11.494248514479859,0.6567074715430404,11.636894975887534,-0.07281467403324779,0.21,0.9999999999993832,1612.7883929426216,1.5597210119387115,314,2026-10-08 00:02:10.411244,61.6,0.717500556640036,0.2990271313807131,0.0928274952177045
0413,cdot_cos,P,T-P,315,63,54762,0.044452737064476,-0.006363912629489773,0.08972744267063677,0.9960386866262656,842.0,11.60034613566404,0.6578219754239099,11.67519089851765,-0.39785128922526936,0.435,0.9999999999993845,-291.64242563108996,1.5646892347478147,315,2026-10-08 00:02:10.846244,61.6,0.44176369205459026,0.1442912295010983,0.24390257743490007
0413,cdot_cos,Q,P-Q,316,63,54869,-0.027519478329178056,-0.01888928019983859,-0.07197221539365406,0.011733684741342319,842.0,11.619781884145814,0.6578350943246938,11.693941701732776,-0.07327619484398552,0.107,0.999999999999374,24741.028210150744,1.5696565487105605,316,2026-10-08 00:02:10.953243,61.6,0.011920742969233017,0.5879946130325959,0.1816425091754578
0413,cdot_cos,R,Q-R,317,63,54893,0.05949678948171313,0.09042885396920007,0.08701626781089118,0.9953220300896685,842.0,11.726176982853016,0.6589470385726254,11.73222778402339,-0.40267062665556363,0.024,0.9999999999993746,-296.2328663728487,1.5746236319447542,317,2026-10-08 00:02:10.977243,61.6,0.44130259404008143,2.7194372619737672,4.4331291128000645
0413,cdot_cos,S,R-S,318,63,54952,0.01590935827092554,-0.06804675953084519,-0.04358743121078759,0.0638651467017317,842.0,11.750314872720555,0.6590183273034655,11.751989548686147,-0.0918555704601399,0.059,0.9999999999993658,4359.94655161247,1.5795908150232634,318,2026-10-08 00:02:11.036243,61.6,0.033920470217414164,0.36811502822232123,0.4091167774159201
0413,cdot_cos,T,S-T,319,63,55167,-0.05960532213028671,0.005402295076554809,-0.07551468040121224,0.009455068199456795,842.0,11.76961455618325,0.6590288808027807,11.77064151428908,-0.07357881210734708,0.215,0.9999999999993558,1731.8197317375984,1.5845584391416052,319,2026-10-08 00:02:11.251244,61.6,0.7800501789502189,0.29416178164078366,0.08976596959392845
0413,cdot_cos,P,T-P,320,64,55604,0.05080239321485683,-0.004235835366583017,0.11040771534514354,0.9988887026701914,862.0,11.876804438826092,0.6601429245539884,11.80900506870377,-0.4102019656355584,0.437,0.9999999999993566,-302.1633155459862,1.5895266986718979,320,2026-10-08 00:02:11.688244,61.6,0.4401552201413998,0.14486170724989347,0.24528577263808318
0413,cdot_cos,Q,P-Q,321,64,55714,-0.024068533015167946,-0.017422278406588082,-0.07487092623002478,0.009833783650242811,862.0,11.896223688319656,0.6601538832296976,11.827638827853473,-0.07471176011342746,0.11,0.9999999999993457,30614.11929910348,1.5944940262015,321,2026-10-08 00:02:11.798244,61.6,0.01121547821581311,0.5747159369888667,0.17653863175967774
0413,cdot_cos,R,Q-R,322,64,55741,0.056218385240709795,0.08784628041733812,0.08028691825587775,0.9929361361918513,862.0,12.003241944963642,0.6612595176664924,11.865887539090664,-0.41326570137911534,0.027,0.9999999999993461,-306.20784772872,1.599461116454702,322,2026-10-08 00:02:11.825243,61.6,0.44077701744753306,2.411788138208448,3.963639134962449
0413,cdot_cos,S,R-S,323,64,55796,0.008912664767199522,-0.049200843339506674,-0.047305720473510275,0.05146423568364112,862.0,12.026460247782913,0.6613167752736666,11.885327578234433,-0.09014186959625473,0.055,0.9999999999993374,5643.334531944515,1.6044282890364903,323,2026-10-08 00:02:11.880243,61.6,0.027747368649910453,0.384343494337681,0.4221509603503648
0413,cdot_cos,T,S-T,324,64,56024,-0.07665690050541149,0.007346128394943566,-0.08556956527261102,0.0051117672258351315,862.0,12.045519729340787,0.6613224622189599,11.903814069662797,-0.07412540846221631,0.228,0.9999999999993266,2816.3557601098296,1.6093959643740707,324,2026-10-08 00:02:12.108243,61.6,0.8056769010714383,0.2788333927389795,0.0835942173591002
0413,cdot_cos,P,T-P,325,65,56466,0.051766126853670325,-0.0030683502657622695,0.12842302735908181,0.9996333948437836,817.0,12.153608274871887,0.6624336778165335,11.942202823457515,-0.42191519124106985,0.442,0.999999999999328,-312.9813724161666,1.6143642695048035,325,2026-10-08 00:02:12.550244,61.6,0.4385365731354299,0.14529675460147773,0.24454422065859685
0413,cdot_cos,Q,P-Q,326,65,56554,-0.012603704750831649,-0.00858887278857919,-0.06436983160450198,0.018611629857407563,817.0,12.173962060408494,0.6624543499802306,11.960934828041788,-0.07986875542702904,0.088,0.9999999999993169,16546.232935585984,1.6193315372955843,326,2026-10-08 00:02:12.638243,61.6,0.01380663081847483,0.7229757222585252,0.23129301746143746
0413,cdot_cos,R,Q-R,327,65,56609,0.05260400258083257,0.10632040878026777,0.06520770733166423,0.982308042175942,817.0,12.280852001989388,0.663544528786228,11.998979640106777,-0.4209622193919791,0.055,0.9999999999993174,-312.8784581836165,1.6242987091738477,327,2026-10-08 00:02:12.693243,61.6,0.44473754134410265,1.2161321336610762,1.9434534832889805
0413,cdot_cos,S,R-S,328,65,56668,0.015099031963819357,-0.038709169159889194,-0.03750497061701322,0.09027299606656679,817.0,12.307736595111212,0.663644627893509,12.019125573207386,-0.1064425954257626,0.059,0.9999999999993083,3142.0822074219127,1.6292658943268299,328,2026-10-08 00:02:12.752243,61.6,0.052087588238064426,0.3885727828956847,0.4556710698614314
0413,cdot_cos,T,S-T,329,65,56903,-0.08254847393681107,-0.011559656862043213,-0.09764750590063043,0.002435690414115578,817.0,12.326703590371078,0.6636473285025256,12.037482459700579,-0.07523466719265515,0.235,0.9999999999992972,11555.885372836892,1.634233605218337,329,2026-10-08 00:02:12.987243,61.6,0.6604671975648272,0.2721075368577901,0.0807106181270908
0413,cdot_cos,P,T-P,330,66,57283,0.04801683646656734,0.0058933823987763045,0.1305653104033784,0.9996787029487764,859.0,12.435627137434373,0.6647548331346934,12.075881553231977,-0.4335923042782708,0.38,0.9999999999992982,-323.57213385570776,1.6392017559364582,330,2026-10-08 00:02:13.367244,61.6,0.4375845940468085,0.17000386406476756,0.2866409133244605
0413,cdot_cos,Q,P-Q,331,66,57421,-0.01879489569886845,-0.021316271280500888,-0.06681173216543579,0.016054162329545648,859.0,12.455906527060302,0.664772604160914,12.094488036995655,-0.08114535578861559,0.138,0.9999999999992878,19832.67280768955,1.6441691787285213,331,2026-10-08 00:02:13.505243,61.6,0.012992245624849201,0.4606635279101958,0.14695209873861118
0413,cdot_cos,R,Q-R,332,66,57450,0.03939664521798498,0.10520841314855668,0.058191540916853426,0.9730013582903544,859.0,12.562770271137587,0.6658487869436925,12.132352904670135,-0.4290991064003779,0.029,0.999999999999288,-323.3221681110685,1.6491362720542884,332,2026-10-08 00:02:13.534244,61.6,0.4444606860238682,2.7022090989078946,3.684956692320197
0413,cdot_cos,S,R-S,333,66,57509,0.028740981866285525,-0.05672894305507077,-0.010655663351699454,0.341551269416124,859.0,12.61263465479696,0.6662261495040103,12.157496984345212,-0.2013655684485895,0.059,0.9999999999992816,603.4873670563478,1.654103458741694,333,2026-10-08 00:02:13.593244,61.6,0.3227278855411458,0.5878700756475587,0.8451590450741048
0413,cdot_cos,T,S-T,334,66,57743,-0.053171026250461405,-0.006083069173943858,-0.08191200811674693,0.006395277097956271,859.0,12.632138940064,0.6662332132909536,12.175866905010592,-0.07897969450604518,0.234,0.9999999999992708,17325.81615550558,1.6590711843878005,334,2026-10-08 00:02:13.827244,61.6,0.21233574155878093,0.2758588648260134,0.08335164644034074
0413,cdot_cos,P,T-P,335,67,58142,0.04512366812658672,-0.0038739252645704665,0.09829469437704813,0.9976592798429814,859.0,12.741736603535534,0.66733424462415,12.214232924613796,-0.44533192871030736,0.399,0.9999999999992719,-332.73552092355976,1.6640394251224033,335,2026-10-08 00:02:14.226244,61.6,0.43926613162321665,0.16249259802347202,0.27468086083091364
0413,cdot_cos,Q,P-Q,336,67,58252,-0.02686972195552742,-0.019310394459879632,-0.07199339008211414,0.011718568995367754,859.0,12.76180803328673,0.6673471665842043,12.23268664985758,-0.08197216874599482,0.11,0.9999999999992599,28119.55449769679,1.6690067694689659,336,2026-10-08 00:02:14.336244,61.6,0.011882113521677316,0.5899231690934154,0.18246754319269212
0413,cdot_cos,R,Q-R,337,67,58279,0.05928078491069012,0.09474935668790266,0.08615050686621753,0.9950670415940683,859.0,12.871519700736085,0.6684434982761711,12.271002529779736,-0.4495978977457689,0.027,0.9999999999992609,-335.32345337957963,1.6739738556263812,337,2026-10-08 00:02:14.363244,61.6,0.441456095375915,2.4828767251993162,4.063395090716861
0413,cdot_cos,S,R-S,338,67,58334,0.013976427737155708,-0.05850957651014563,-0.04530435717353441,0.057826167123083846,859.0,12.895883376447493,0.6685071532258592,12.29036554615775,-0.10035479737701518,0.055,0.9999999999992504,5486.503438933406,1.678941031238126,338,2026-10-08 00:02:14.418243,61.6,0.030804830779933123,0.40205355260843395,0.44297592202559727
