record_id,input,event,transition,event_index,k,peak,value_cos,value_sin,value_return,x_input,rr,knowledge,decision,decision_norm,entropy,delta_t,cosine_similarity,delta_h_over_delta_d,frobenius_norm,matrix_size,timestamp,scale,P,zdot,zdot_back
0164,cdot_cos,Q,P-Q,1,0,1319,-0.02461170818116137,-0.04712193823661756,-0.09256849132125222,0.03267239211922909,801.0,0.00016228839578353752,0.5000405720988569,0.5000405720988569,,,1.0,,0.004967141530112327,1,2026-10-07 21:31:17.403244,36.6,,,
0164,cdot_cos,R,Q-R,2,0,1350,0.07738931854409914,0.32967740226798753,0.10200102672526051,0.9766432993352829,801.0,0.007090037914224327,0.5012533508468289,0.7088792869525447,-9.060482717568506e-06,,1.0000000000000002,,0.009934283060224654,2,2026-10-07 21:31:17.434243,36.6,,,
0164,cdot_cos,S,R-S,3,0,1396,0.0006572087386025862,-0.007295962464068817,-0.07673210980549655,0.05687219647063961,801.0,0.009172778501427135,0.5013239734398401,0.8683185930501135,-6.108188720372911e-06,0.046,0.9999999999999998,0.04180381760726922,0.014901424596067962,3,2026-10-07 21:31:17.480243,36.6,0.6167239334444061,0.0380900131275392,0.04527696928701758
0164,cdot_cos,T,S-T,4,0,1626,-0.22569439636757468,-0.06017848238665835,-0.22635160510617727,0.00025234304114268456,801.0,0.010594319121957933,0.5013242867935425,1.0026485735872668,-5.067382493164544e-06,0.23,0.9999999999999999,3.3215060792486817,0.019868566158809053,4,2026-10-07 21:31:17.710243,36.6,0.8143270084181611,0.029953671754171046,0.006180611393612163
0164,cdot_cos,P,T-P,5,1,1985,0.07179278301679122,0.0004961199657953594,0.2974871793843659,0.9999813198565487,840.0,0.022951467508345817,0.5025660295475419,1.1237718052519232,-7.475312546232377e-05,0.359,1.0,-0.05611930711470799,0.024835707792842287,5,2026-10-07 21:31:18.069243,36.6,0.3936820149347756,0.02080504533922511,0.03442102614592726
0164,cdot_cos,Q,P-Q,6,1,2119,-0.021295803048817268,-0.03519747090449,-0.09308858606560849,0.03207610043300997,840.0,0.025532341675521562,0.502605860114733,1.2311278990175365,-2.256505100163583e-05,0.134,0.9999999999999998,1.3102518528140508,0.02980284938463878,6,2026-10-07 21:31:18.203244,36.6,0.09898535595807958,0.06583474547227437,0.019260254978923474
0164,cdot_cos,R,Q-R,7,1,2151,0.10569667103982094,0.34096859931605417,0.1269924740886382,0.9905094660898507,840.0,0.04059517929491535,0.503835808631663,1.3330242512548185,-0.0001796172436712737,0.032,1.0000000000000002,-0.1276900541021358,0.0347699909171286,7,2026-10-07 21:31:18.235244,36.6,0.41712411398572086,0.28364272858796097,0.47071367560605587
0164,cdot_cos,S,R-S,8,1,2195,-7.2081602049647145e-06,-0.0022969325800823253,-0.10570387920002591,0.020456980671710725,840.0,0.043685476305151065,0.5038612103062378,1.4251347143444748,-4.6966346587749695e-05,0.044,1.0000000000000004,5.222131977680813,0.03973713248699823,8,2026-10-07 21:31:18.279244,36.6,0.05934532953085898,0.06523297080913358,0.0702340229599026
0164,cdot_cos,T,S-T,9,1,2425,-0.3020145693696614,-0.023893247868461167,-0.3020073612094565,1.5831874886494585e-05,840.0,0.046335680726119106,0.5038612299648562,1.5115836899034836,-4.302120951296445e-05,0.23,0.9999999999999996,200.68231625186385,0.04470427434015992,9,2026-10-07 21:31:18.509243,36.6,0.9123768675918315,0.045356713593982,0.011522627917252353
0164,cdot_cos,P,T-P,10,2,2825,0.0823655703239349,-0.005503903646870495,0.3843801396935963,0.9999992233793963,857.0,0.06454956455838279,0.5051029139599218,1.5972756609237908,-0.0003641796194749908,0.4,1.0,-0.25864745880456497,0.049671416630890905,10,2026-10-07 21:31:18.909244,36.6,0.4140087552946149,0.02710471860085121,0.0455347095806592
0164,cdot_cos,Q,P-Q,11,2,2955,-0.024843194473331293,-0.03491934155103582,-0.1072087647972662,0.01938195045557283,857.0,0.06801945560680007,0.5051269796639208,1.6753166630780185,-8.29462528249468e-05,0.13,0.9999999999999998,11.686064395258256,0.054638558396478805,11,2026-10-07 21:31:19.039244,36.6,0.03369016288477496,0.09092389821127557,0.026691469603209898
0164,cdot_cos,R,Q-R,12,2,2985,0.12925848055023775,0.3147232237783092,0.15410167502356906,0.996460137690836,857.0,0.08818977809331444,0.5063642052714761,1.7540970613873645,-0.0005681116940588178,0.03,1.0000000000000002,-0.39213983146740716,0.05960569989973569,12,2026-10-07 21:31:19.069243,36.6,0.42571014482314634,0.39878535553150646,0.6723440828838121
0164,cdot_cos,S,R-S,13,2,3035,-0.0001435895982271578,-0.003931954751140433,-0.12940207014846491,0.008696364915872288,857.0,0.09194657693869046,0.5063750025377645,1.8257610363228836,-0.00012202062880354737,0.05,1.0,41.315186023990265,0.0645728415276651,13,2026-10-07 21:31:19.119244,36.6,0.02583911173222959,0.07227732372743073,0.0751359769075205
0164,cdot_cos,T,S-T,14,2,3263,-0.3579343648066953,0.016397569011827765,-0.3577907752084682,2.0551855382931717e-06,857.0,0.09541751046605751,0.506375005089449,1.8946817783362875,-0.0001172591103072986,0.228,1.0,1866.0294560852035,0.06953998393411981,14,2026-10-07 21:31:19.347244,36.6,0.9602065986855799,0.05714381148840415,0.015223392663890563
0164,cdot_cos,P,T-P,15,3,3682,0.04290627216192782,-0.0024639848013834776,0.40084063696862315,0.9999995748261692,800.0,0.11800415497740276,0.5076165462093043,1.9659904298299509,-0.0008691084745935481,0.419,0.9999999999999998,-0.6055774974040921,0.07450712749097112,15,2026-10-07 21:31:19.766243,36.6,0.42101738296249025,0.03224548801151602,0.05390607281943973
0164,cdot_cos,Q,P-Q,16,3,3814,-0.05357204901187131,-0.07435707882620626,-0.09647832117379913,0.028439996330001615,800.0,0.12243922941970793,0.5076518543479155,2.030607417564301,-0.0001922633799725668,0.132,1.0,19.169662328403728,0.07947426957078298,16,2026-10-07 21:31:19.898243,36.6,0.029587429749081965,0.10832836972968234,0.03359904880534224
0164,cdot_cos,R,Q-R,17,3,3842,0.09627111180589809,0.3036405351625137,0.1498431608177694,0.9958655571483988,800.0,0.1466028445860389,0.5088881666954616,2.0981996631124407,-0.0011720048442964905,0.028,1.0,-0.7924708236301253,0.0844414110088088,17,2026-10-07 21:31:19.926244,36.6,0.4334610115645508,0.5443570613344212,0.8629862559403915
0164,cdot_cos,S,R-S,18,3,3894,0.03569696044485503,-0.08433466472261537,-0.06057415136104306,0.09823300214682136,800.0,0.15292322485443552,0.5090101119235293,2.1595470112044306,-0.0003412882506623619,0.052,0.9999999999999997,6.812210750654756,0.08940855271614223,18,2026-10-07 21:31:19.978244,36.6,0.08767999553352,0.10145048792551836,0.12154577439224279
0164,cdot_cos,T,S-T,19,3,4122,-0.13620634127060247,-0.02811584650913167,-0.17190330171545748,0.0018482596496502636,800.0,0.1571536953302928,0.5090124063198577,2.2187336403781344,-0.00023648387860894128,0.228,1.0000000000000002,45.678408197134914,0.09437569600229898,19,2026-10-07 21:31:20.206244,36.6,0.6419931401724708,0.06691492478948437,0.01855469506954949
0164,cdot_cos,P,T-P,20,4,4482,0.06593612721758758,0.0007142835509848171,0.20214246848819006,0.9993881518224342,779.0,0.1834364305584404,0.5102529706681244,2.281920656597506,-0.0016136320400848793,0.36,0.9999999999999999,-1.110098128646111,0.09934284084260639,20,2026-10-07 21:31:20.566243,36.6,0.42594450218281077,0.0439779713875546,0.07300759785596551
0164,cdot_cos,Q,P-Q,21,4,4617,-0.022802256548107358,-0.045187105851676075,-0.08873838376569494,0.037405127152805716,779.0,0.1888178347293321,0.5102994001881065,2.3384856289541407,-0.0003611066869286374,0.135,0.9999999999999998,26.976917996102248,0.1043099834560237,21,2026-10-07 21:31:20.701244,36.6,0.03116142763605293,0.12000577805312519,0.03986225311771647
0164,cdot_cos,R,Q-R,22,4,4647,0.07129017523622666,0.33612627057268046,0.09409243178433402,0.9690451946736677,779.0,0.2158379906327842,0.5115021738036661,2.399157857770544,-0.0019707353636887297,0.03,0.9999999999999998,-1.3382640389988385,0.1092771248641207,22,2026-10-07 21:31:20.731244,36.6,0.44185853212619863,0.5589259938844409,0.9006718634484028
0164,cdot_cos,S,R-S,23,4,4692,0.0005626324458144215,-0.004259792309533187,-0.07072754279041224,0.06987389436329502,779.0,0.22235339436239857,0.511588895919405,2.453494154614126,-0.0005145840834373248,0.045,1.0000000000000002,16.79100270841526,0.11424426657134401,23,2026-10-07 21:31:20.776243,36.6,0.05902680919178445,0.1256992375123158,0.14478674954698606
0164,cdot_cos,T,S-T,24,4,4923,-0.20103738394570925,-0.07338649823861744,-0.20160001639152367,0.0006241093877013429,779.0,0.22715092200889261,0.5115896705129489,2.506267301488638,-0.00038868922649221117,0.231,1.0000000000000002,162.53021722520404,0.11921141106901179,24,2026-10-07 21:31:21.007244,36.6,0.7233255178348023,0.07427387882075433,0.020768517950190687
0164,cdot_cos,P,T-P,25,5,5261,0.04811307994766862,-0.003057721044779291,0.24915046389337786,0.999890437626171,780.0,0.25666792637758706,0.512830578747875,2.564152894574348,-0.0025736740282912454,0.338,0.9999999999999998,-1.7607948277732408,0.1241785576125193,25,2026-10-07 21:31:21.345243,36.6,0.42785327454021876,0.05284366206244401,0.0873284152919954
0164,cdot_cos,Q,P-Q,26,5,5388,-0.03579962610526259,-0.05395781726298896,-0.08391270605293122,0.044310769272348345,780.0,0.26287323756310477,0.5128855668246028,2.615213514641513,-0.0005810045685672932,0.127,0.9999999999999999,36.23820977745955,0.129145700735704,26,2026-10-07 21:31:21.472243,36.6,0.03239676476328839,0.14521226562699457,0.04886071799620239
0164,cdot_cos,R,Q-R,27,5,5418,0.10679025218008066,0.31695342374192853,0.14258987828534325,0.9946152738360472,780.0,0.2935518418468437,0.5141197641613968,2.671444659408239,-0.0030759577832926055,0.03,0.9999999999999999,-2.0215188773671757,0.13411284209857205,27,2026-10-07 21:31:21.502244,36.6,0.44436265566735333,0.6102096410833027,1.0226201427912973
0164,cdot_cos,S,R-S,28,5,5473,0.0015784822076149946,-0.011945051531673802,-0.10521176997246566,0.020821032450467274,780.0,0.2994858160281029,0.5141455987585801,2.7206027853048953,-0.0006341101886186418,0.055,0.9999999999999999,94.5185085468232,0.13907998411317019,28,2026-10-07 21:31:21.557244,36.6,0.021262180264438133,0.10232875170544538,0.10789043965925887
0164,cdot_cos,T,S-T,29,5,5681,-0.19356232140746193,-0.04227355670184589,-0.19514080361507694,0.0007904215506449009,780.0,0.3048080045344427,0.5141465795068415,2.7687640670515203,-0.0005795289886906717,0.208,1.0,55.65260941794637,0.1440471295642082,29,2026-10-07 21:31:21.765243,36.6,0.9101171047301958,0.09071457993186724,0.025587444742018045
0164,cdot_cos,P,T-P,30,6,6041,0.06862572546319243,-0.00846714462871331,0.26218804687065433,0.9999320100397954,821.0,0.3372230812797597,0.5153871967550266,2.8228919368196785,-0.0037495242184140505,0.36,1.0,-2.5551758484421114,0.14901427903023268,30,2026-10-07 21:31:22.125243,36.6,0.42936868374942433,0.0538678150052152,0.09004187984810283
0164,cdot_cos,Q,P-Q,31,6,6156,-0.027536040782602758,-0.035287375518698726,-0.09616176624579519,0.02876188352163142,821.0,0.3435928313381976,0.515422878937663,2.869753139407274,-0.0007813097257648017,0.115,1.0,83.18477944290258,0.15398142255109504,31,2026-10-07 21:31:22.240243,36.6,0.022392613721468408,0.17352200744464089,0.05538913094293851
0164,cdot_cos,R,Q-R,32,6,6188,0.14234295543830022,0.32141430533898113,0.16987899622090297,0.9980098860062341,821.0,0.3771331429920271,0.5166609166772632,2.9226755045090003,-0.004354510430387881,0.032,0.9999999999999998,-2.886180760351474,0.15894856390673795,32,2026-10-07 21:31:22.272243,36.6,0.44017865011552165,0.6178274456804028,1.0481347391821711
0164,cdot_cos,S,R-S,33,6,6232,-0.000314469142009206,-0.0028339983529974957,-0.14265742458030942,0.0053715019331938086,821.0,0.3831337878617434,0.516667579520605,2.968029280476073,-0.0008217991863423527,0.044,1.0000000000000002,530.2107618028562,0.163915705750648,33,2026-10-07 21:31:22.316243,36.6,0.01358549738924516,0.13366613803825264,0.13637829249355224
0164,cdot_cos,T,S-T,34,6,6462,-0.3198384732193259,-0.010033978630266492,-0.3195240040773167,8.338836263329506e-06,821.0,0.38889576313939334,0.5166675898641432,3.012663864671471,-0.0008013218692907426,0.23,1.0,1979.720747404058,0.16888285342863535,34,2026-10-07 21:31:22.546243,36.6,0.974769328813223,0.08875125012655927,0.025052066424564926
0164,cdot_cos,P,T-P,35,7,6862,0.07046690496142019,-0.0034869261821548372,0.39030537818074607,0.9999993747895143,859.0,0.42395936291996067,0.5179078893219862,3.0639843965680047,-0.005133301156027352,0.4,1.0,-3.4926882047262904,0.17385000721563623,35,2026-10-07 21:31:22.946244,36.6,0.4300312671430273,0.052547701869726515,0.08765899945141833
0164,cdot_cos,Q,P-Q,36,7,6995,-0.022483498771879884,-0.032981735812386614,-0.09295040373330007,0.03223349307865698,859.0,0.43093392463517455,0.5179478649422774,3.1076871935925685,-0.001073874252741381,0.133,1.0,101.54756508371854,0.17881715207057666,36,2026-10-07 21:31:23.079243,36.6,0.02281881892437069,0.16153614402364527,0.05244031364822465
0164,cdot_cos,R,Q-R,37,7,7025,0.11987200841706654,0.3201767925830492,0.1423555071889464,0.9945691370057193,859.0,0.4669279772302503,0.5191812031406493,3.158055973140125,-0.005819494097375614,0.03,1.0,-3.8477846959567144,0.18378429322506667,37,2026-10-07 21:31:23.109244,36.6,0.44243156436520176,0.7106021346130189,1.1998017531691922
0164,cdot_cos,S,R-S,38,7,7072,-0.0001285597602997921,-0.003096537216127006,-0.12000056817736633,0.012224409620748234,859.0,0.4735700527119557,0.519196360876016,3.2005413215449074,-0.0011248785256905412,0.047,0.9999999999999999,309.71747811456765,0.18875143521799317,38,2026-10-07 21:31:23.156243,36.6,0.01539916093581308,0.1365192814534951,0.14132075492990143
0164,cdot_cos,T,S-T,39,7,7300,-0.3959118015195884,-0.007731704464990201,-0.3957832417592886,5.116284494463694e-07,859.0,0.47976078968687885,0.5191963615104122,3.2423802427708117,-0.001062747092225148,0.228,1.0,97937.90260140576,0.19371858477078102,39,2026-10-07 21:31:23.384243,36.6,0.9432130940752773,0.09587181774284632,0.027152355153171808
0164,cdot_cos,P,T-P,40,8,7721,0.08353266453495527,-0.006000171086086803,0.47944446605454366,0.999999976058859,818.0,0.5172876016026936,0.5204361957015027,3.291527515452149,-0.006736221221720304,0.421,0.9999999999999999,-4.575994250089932,0.19868574333668967,40,2026-10-07 21:31:23.805243,36.6,0.43074718513345134,0.05299900863554952,0.08913732046511817
0164,cdot_cos,Q,P-Q,41,8,7852,-0.021262840605159657,-0.03411806777954938,-0.10479550514011493,0.021133920408732028,818.0,0.5243859549580115,0.5204623955970796,3.3325853862487547,-0.0013312077067610486,0.131,0.9999999999999999,206.29904798988412,0.20365288905698067,41,2026-10-07 21:31:23.936243,36.6,0.01724499986106109,0.1733222275265213,0.054185903475709486
0164,cdot_cos,R,Q-R,42,8,7882,0.11294587223894172,0.35657567807261853,0.13420871284410138,0.9926962650733477,818.0,0.5626980252146422,0.5216929200588227,3.380956545816388,-0.007496611620174945,0.03,0.9999999999999998,-5.010387119554126,0.20862003003852225,42,2026-10-07 21:31:23.966244,36.6,0.43936471991901666,0.7581147054171049,1.2770690085543546
0164,cdot_cos,S,R-S,43,8,7931,9.770372768812443e-05,-0.002357313859638737,-0.1128481685112536,0.015824529518234227,818.0,0.5698728372830378,0.5217125337057434,3.421097873886238,-0.001462651053264313,0.049,0.9999999999999997,307.6409293642598,0.2135871721863554,43,2026-10-07 21:31:24.015244,36.6,0.016157694255529022,0.14044477531708752,0.14642473608970719
0164,cdot_cos,T,S-T,44,8,8161,-0.30708803524970835,-0.041256996686847014,-0.3071857389773965,1.3098522175115846e-05,818.0,0.5764616131957168,0.5217125499406243,3.4606495600206157,-0.0013595052662147046,0.23,0.9999999999999998,6353.344246010392,0.21855432403330136,44,2026-10-07 21:31:24.245243,36.6,0.9269366169740367,0.10092006124067411,0.02864685179425619
0164,cdot_cos,P,T-P,45,9,8539,0.06123498206933006,4.107839796249849e-05,0.3683230173190384,0.9999986022179557,800.0,0.6162960654537479,0.5229518557010445,3.5080677026677836,-0.008550264177875456,0.378,0.9999999999999993,-5.802247630336742,0.22352148476345365,45,2026-10-07 21:31:24.623244,36.6,0.43127969762711743,0.06331732970592245,0.1053821488307703
0164,cdot_cos,Q,P-Q,46,9,8674,-0.028344134476214866,-0.051607401631215896,-0.08957911654554493,0.03631282795561682,800.0,0.6243295144533941,0.5229968532363958,3.54713724802554,-0.001793525829312591,0.135,1.0000000000000002,150.15796522674452,0.2284886318523509,46,2026-10-07 21:31:24.758244,36.6,0.023114536273109602,0.1786115113718606,0.05950702962700887
0164,cdot_cos,R,Q-R,47,9,8704,0.08101055183527418,0.3096816758531175,0.10935468631148905,0.9820558058574878,800.0,0.6645211735241503,0.5242136371093659,3.5938276426103597,-0.009319731259693768,0.03,0.9999999999999997,-6.185326414632893,0.2334557726931774,47,2026-10-07 21:31:24.788243,36.6,0.44594660350387066,0.820920420408916,1.3397219690252058
0164,cdot_cos,S,R-S,48,9,8751,0.005358196377332344,-0.029365649323115077,-0.07565235545794184,0.059029403393838574,800.0,0.6735847396779291,0.5242867665323604,3.6323652792939525,-0.002181967466209966,0.047,0.9999999999999997,97.6045413898229,0.23842291484361192,48,2026-10-07 21:31:24.835244,36.6,0.03795890140877993,0.17182441073621935,0.1928418330591232
0164,cdot_cos,T,S-T,49,9,8979,-0.15243120508460956,-0.04363014830897714,-0.1577894014619419,0.0030943073383176683,800.0,0.6806726681333549,0.5242905999306835,3.6700342094899767,-0.0017269465369292025,0.228,0.9999999999999997,118.6990995791326,0.24339006916655784,49,2026-10-07 21:31:25.063244,36.6,0.7683707402945932,0.10769120328005304,0.031087405506253635
0164,cdot_cos,P,T-P,50,10,9339,0.06084921503816993,-0.00020156373670459195,0.21328042012277948,0.9995929076734571,799.0,0.7226919283736333,0.5255287983288378,3.7160497812331705,-0.010606444875960942,0.36,0.9999999999999999,-7.171304980096678,0.24835723337166957,50,2026-10-07 21:31:25.423244,36.6,0.43292987681331324,0.07054860794679543,0.11672016733410655
0164,cdot_cos,Q,P-Q,51,10,9471,-0.022832019353770848,-0.039335784942997026,-0.08368123439194078,0.04467091821347793,799.0,0.7314676658550476,0.5255841251005272,3.753421425700034,-0.002295311812092277,0.132,0.9999999999999997,150.21901350988819,0.2533243816217378,51,2026-10-07 21:31:25.555244,36.6,0.02675813382747582,0.19401309893842733,0.06648285970768453
0164,cdot_cos,R,Q-R,52,10,9501,0.09287596508304734,0.3226857237184719,0.11570798443681818,0.9857256272097472,799.0,0.7739113864933781,0.5268048246041979,3.79884362837187,-0.011489309023344198,0.03,0.9999999999999994,-7.531744859079161,0.258291522344806,52,2026-10-07 21:31:25.585243,36.6,0.44922924894902183,0.8506736506106598,1.4147906879443488
0164,cdot_cos,S,R-S,53,10,9550,0.0005266388484018522,-0.006027718613008686,-0.09234932623464548,0.03292686160269118,799.0,0.7825080848916872,0.5268455950086397,3.835493840244516,-0.0024059640287649405,0.049,0.9999999999999996,222.79261437147673,0.2632586648128973,53,2026-10-07 21:31:25.634243,36.6,0.022929171768773723,0.16277304614143914,0.1754428244552882
0164,cdot_cos,T,S-T,54,10,9778,-0.23178934519089,-0.04640792797270542,-0.23231598403929185,0.00020286539010405796,799.0,0.7898631450152391,0.5268458461977018,3.8715105029965713,-0.002079562975711409,0.228,0.9999999999999996,1299.4238296722851,0.26822582200172934,54,2026-10-07 21:31:25.862243,36.6,0.8547411871124888,0.11287696403216166,0.032259035629613665
0164,cdot_cos,P,T-P,55,11,10138,0.07574869907661615,-0.005151438208607946,0.30753804426750614,0.9999870692886469,819.0,0.8339799804903529,0.5280838681232644,3.916374799525531,-0.012878363857036385,0.36,0.9999999999999998,-8.722624905385315,0.27319299115849915,55,2026-10-07 21:31:26.222244,36.6,0.43234874565167286,0.0725848851955259,0.12254676520864946
0164,cdot_cos,Q,P-Q,56,11,10267,-0.03669741510236036,-0.05217318567458376,-0.11244611417897651,0.016055345879257818,819.0,0.8421242623560178,0.5281037424741006,3.951966556273036,-0.002453941146680132,0.129,0.9999999999999994,524.516387791994,0.27816014058072397,56,2026-10-07 21:31:26.351244,36.6,0.014292320788947788,0.20544214591323898,0.0631339679508903
0164,cdot_cos,R,Q-R,57,11,10297,0.11861730188947399,0.3165107843441949,0.15531471699183436,0.996613339850172,819.0,0.8869840541359686,0.5293372383625096,3.9964085291821174,-0.013940112612124841,0.03,0.9999999999999998,-9.311884679454069,0.28312728115738506,57,2026-10-07 21:31:26.381243,36.6,0.43868859351238615,0.8850265991392622,1.495326392665027
0164,cdot_cos,S,R-S,58,11,10350,0.0005040536150469373,-0.009930587024868496,-0.11811324827442705,0.013087227728683263,819.0,0.8952258583043735,0.5293534339106667,4.0314356646768035,-0.002639771393957991,0.053,0.9999999999999998,697.7436705773824,0.2880944241967927,58,2026-10-07 21:31:26.434243,36.6,0.013831551332809206,0.15027857173688375,0.15550573902650794
0164,cdot_cos,T,S-T,59,11,10560,-0.2556014272653714,-0.022950483602022478,-0.25610548088041835,8.494168926604387e-05,819.0,0.9029135827400783,0.5293535390264793,4.066041704917541,-0.002484313140196985,0.21,0.999999999999999,1478.9235786832746,0.2930615826883004,59,2026-10-07 21:31:26.644243,36.6,0.9393417175107278,0.12805351380679122,0.03660821159859408
0164,cdot_cos,P,T-P,60,12,10957,0.07342002378370868,-0.00932070435338582,0.3290214510490801,0.9999941096256109,802.0,0.9490083341032258,0.5305908543328339,4.109939106158913,-0.015336632037795584,0.397,0.9999999999999996,-10.387262512305021,0.29802876097418196,60,2026-10-07 21:31:27.041243,36.6,0.43256856809013894,0.06908655047926744,0.1161076860532684
0164,cdot_cos,Q,P-Q,61,12,11085,-0.029264635801731397,-0.040815306574130315,-0.10268465958544008,0.02279269910010175,802.0,0.9577683038206166,0.530619051929488,4.1442673029335495,-0.0030009258703432625,0.128,0.999999999999999,437.47367262497124,0.3029959117572328,61,2026-10-07 21:31:27.169244,36.6,0.016397384838086605,0.21713416549016054,0.06843726341711556
0164,cdot_cos,R,Q-R,62,12,11111,0.13278797351161123,0.3415565061818118,0.16205260931334262,0.9973515414112213,802.0,1.004594680468707,0.5318527143494335,4.187812486193548,-0.016503966369447363,0.026,0.9999999999999993,-10.945490663240534,0.3079630516882169,62,2026-10-07 21:31:27.195244,36.6,0.44123864077162134,1.0616293943916602,1.801014486465012
0164,cdot_cos,S,R-S,63,12,11169,0.0005382392961752058,-0.0061927553012479375,-0.132249734215436,0.007842374971879654,802.0,1.012973032328983,0.5318624133612634,4.2215270580137085,-0.0030360160945801036,0.058,0.999999999999999,1388.589942054542,0.31293019553695695,63,2026-10-07 21:31:27.253243,36.6,0.011842503393573607,0.14126048410202985,0.14445434241855212
0164,cdot_cos,T,S-T,64,12,11378,-0.3723937816804466,-0.05055966721009592,-0.3729320209766218,1.1808061809715971e-06,802.0,1.0209808966245424,0.5318624148216168,4.254899344620081,-0.002925332062836441,0.209,0.999999999999999,75792.63499920601,0.31789735690748844,64,2026-10-07 21:31:27.462244,36.6,0.9628704543756976,0.1339706651990192,0.03831514017014087
0164,cdot_cos,P,T-P,65,13,11759,0.060919352236474725,0.0007117899431483714,0.43331313391692133,0.999999870458019,797.0,1.068972770382173,0.533098959090714,4.297981241571827,-0.018008667695352802,0.381,0.999999999999999,-12.19797463743702,0.3228645396878353,65,2026-10-07 21:31:27.843244,36.6,0.43276528137199216,0.07573596978267724,0.12596292324837424
0164,cdot_cos,Q,P-Q,66,13,11901,-0.027482094210783937,-0.05243903211508832,-0.08840144644725867,0.03785169139819058,797.0,1.0786917055989425,0.5331457564985947,4.331296632916831,-0.0037476319401567987,0.142,0.9999999999999989,304.73986489906525,0.3278316938401397,66,2026-10-07 21:31:27.985244,36.6,0.022251499533968978,0.203393059176967,0.06844320575189772
0164,cdot_cos,R,Q-R,67,13,11930,0.08094487377906294,0.34585150436884976,0.10842696798984688,0.9814475556547203,797.0,1.1267363991884316,0.5343589494266873,4.373916541093294,-0.019018104231761406,0.029,0.9999999999999991,-12.587010637800256,0.3327988338739692,67,2026-10-07 21:31:28.014244,36.6,0.4480080941849659,1.0097236245204149,1.65671357205135
0164,cdot_cos,S,R-S,68,13,11988,0.0017870491304538736,-0.0074595494709899625,-0.07915782464860907,0.05229332122451224,797.0,1.1372556758211265,0.5344235792888068,4.406969765784703,-0.004274466426238096,0.058,0.9999999999999989,228.1242342472699,0.33776597806820313,68,2026-10-07 21:31:28.072243,36.6,0.031769941473412874,0.16251187222567026,0.18136683849473997
0164,cdot_cos,T,S-T,69,13,12198,-0.3107272210532149,-0.08155989542273963,-0.31251427018366873,1.0777681751816142e-05,797.0,1.1455877763666094,0.5344235926089372,4.439255801107496,-0.0034139076024218107,0.21,0.9999999999999991,64605.88561751606,0.34273314288080736,69,2026-10-07 21:31:28.282243,36.6,0.7771868874229096,0.13848012850039138,0.039676669264203976
0164,cdot_cos,P,T-P,70,14,12556,0.06607863261033332,0.0012606304464420925,0.3768058536635482,0.9999989752842171,780.0,1.195417329791291,0.5356592769169607,4.481647084708257,-0.02092952166731247,0.358,0.9999999999999987,-14.174829243326597,0.3477003292158386,70,2026-10-07 21:31:28.640243,36.6,0.43305716406379036,0.08364616919486846,0.13918869671698755
0164,cdot_cos,Q,P-Q,71,14,12692,-0.022894173312063195,-0.04582040602126597,-0.08897280592239652,0.037097424339148345,780.0,1.2054784335101352,0.5357051093425,4.51393152634929,-0.004333942724461449,0.136,0.9999999999999987,362.0925305077492,0.35266748457869246,71,2026-10-07 21:31:28.776243,36.6,0.02172676235993897,0.2182542537142214,0.07397870381503145
0164,cdot_cos,R,Q-R,72,14,12722,0.07123119804111744,0.34259657055915155,0.09412537135318064,0.9690813377852987,780.0,1.2547824868015591,0.5369021557404043,4.555765904286373,-0.021755859333152536,0.03,0.9999999999999988,-14.55408632379838,0.3576346245704658,72,2026-10-07 21:31:28.806243,36.6,0.4489732673871707,1.0162603406182062,1.6434684430474653
0164,cdot_cos,S,R-S,73,14,12768,0.0007252762424269588,-0.005360396448247307,-0.07050592179869047,0.07040290478687364,780.0,1.2664540539472275,0.5369891037032531,4.588036955774893,-0.005277691417050961,0.046,0.9999999999999987,189.51758472772696,0.36260176732382027,73,2026-10-07 21:31:28.852243,36.6,0.04405879560044736,0.2209378204152703,0.253729720558009
0164,cdot_cos,T,S-T,74,14,12996,-0.22803205484720698,-0.08003007248737504,-0.22875733108963395,0.00023107934445544017,780.0,1.275108766279764,0.5369893890837751,4.619357432834354,-0.003945069670613837,0.228,0.9999999999999982,4669.631049579909,0.3675689386150931,74,2026-10-07 21:31:29.080243,36.6,0.7133420617571411,0.13214231899777293,0.03795926461638795
0164,cdot_cos,P,T-P,75,15,13336,0.05798243408911786,-0.0008555317756728672,0.28601448893632486,0.9999715726464405,779.0,1.326710951410212,0.5382241138518287,4.661157601603573,-0.02407045155718065,0.34,0.9999999999999986,-16.29948828052852,0.372536128893066,75,2026-10-07 21:31:29.420243,36.6,0.4333960893749257,0.09072016625421335,0.15177113273661177
0164,cdot_cos,Q,P-Q,76,15,13468,-0.03758479330492129,-0.061085166210944855,-0.09556722739403914,0.029376017865669853,779.0,1.336798479332629,0.5382603791654061,4.692445247748369,-0.004816960520313677,0.132,0.9999999999999984,530.9065092111746,0.3775032857245687,76,2026-10-07 21:31:29.552243,36.6,0.01837028755849238,0.23484260188988415,0.0764206660789172
0164,cdot_cos,R,Q-R,77,15,13497,0.08760644257281355,0.3144242059471574,0.12519123587773484,0.9898692672729966,779.0,1.3887093983091414,0.5394821545304893,4.733936747115026,-0.025355620842214842,0.029,0.9999999999999986,-16.81050454025409,0.3824704253879869,77,2026-10-07 21:31:29.581243,36.6,0.44484740897189934,1.0812181532335337,1.7900316888452532
0164,cdot_cos,S,R-S,78,15,13547,0.0016767060142724927,-0.012454166315313417,-0.08592973655854107,0.041287622300392054,779.0,1.399509132220174,0.5395331047943192,4.76502741465525,-0.005396360037605835,0.05,0.9999999999999982,391.7400873775088,0.3874375690773368,78,2026-10-07 21:31:29.631244,36.6,0.024756862682655638,0.19886770444948354,0.21599467822065233
0164,cdot_cos,T,S-T,79,15,13757,-0.1545938177788896,-0.043719987003572366,-0.15627052379316209,0.0032706153011531104,779.0,1.4085961687540898,0.5395371408042836,4.795511057077975,-0.004572946902712983,0.21,0.9999999999999981,204.0166258616455,0.3924047414363516,79,2026-10-07 21:31:29.841243,36.6,0.835218577912954,0.1485063281784221,0.0432716025424559
0164,cdot_cos,P,T-P,80,16,14115,0.045792045873625335,-0.002586102372257439,0.20038586365251493,0.9993475494930928,801.0,1.4618817900551113,0.5407701119729401,4.836794980163491,-0.027400066622179736,0.358,0.9999999999999981,-18.513912003587322,0.39737194197010517,80,2026-10-07 21:31:30.199244,36.6,0.4346976559076344,0.09000577343060363,0.14884251760061884
0164,cdot_cos,Q,P-Q,81,16,14245,-0.03713788887682968,-0.05570931692168094,-0.08292993475045501,0.04585919146354445,801.0,1.473040302530402,0.5408266800894668,4.8674401851867435,-0.005866541909281484,0.13,0.9999999999999977,380.66540014198864,0.40233910060094785,81,2026-10-07 21:31:30.329243,36.6,0.02546207412256254,0.24991000098700383,0.0858347113483896
0164,cdot_cos,R,Q-R,82,16,14275,0.1073234110688659,0.31397806968536085,0.1444612999456956,0.9949699548382636,801.0,1.5268583903117323,0.5420537314788655,4.908505370728892,-0.028909212197663302,0.03,0.999999999999998,-18.778895886074746,0.40730624025997575,82,2026-10-07 21:31:30.359244,36.6,0.450647358098854,1.06687365213195,1.7939362593776784
0164,cdot_cos,S,R-S,83,16,14327,0.0012158476487360713,-0.013434787372557839,-0.10610756342012984,0.020163003328321046,801.0,1.537052721658319,0.5420785923756205,4.938571077370967,-0.005592843331605254,0.052,0.9999999999999978,937.8732028783656,0.4122733846686254,83,2026-10-07 21:31:30.411244,36.6,0.015468259373562302,0.18729142699815235,0.1960448335882048
0164,cdot_cos,T,S-T,84,16,14535,-0.18367503284788889,-0.03179512899039794,-0.18489088049662497,0.0011498121475975456,801.0,1.5463366987195402,0.5420800100827603,4.968245425468654,-0.005125780149453393,0.208,0.9999999999999977,329.44969312878646,0.4172405607460794,84,2026-10-07 21:31:30.619244,36.6,0.9129077822370698,0.154452712388411,0.04463450510202497
0164,cdot_cos,P,T-P,85,17,14916,0.07455124187916315,-0.005856055327830377,0.25822627472705206,0.999921401681856,798.0,1.601305050011898,0.5433126429461304,5.009095137699264,-0.03096787107480778,0.381,0.9999999999999978,-20.964953712739227,0.4222077738427289,85,2026-10-07 21:31:31.000243,36.6,0.43409984825315484,0.08551797229185504,0.14427388790645085
0164,cdot_cos,Q,P-Q,86,17,15044,-0.03555921598789982,-0.05324547362034172,-0.11011045786706297,0.017463186803608432,798.0,1.6115013936059337,0.5433341656684403,5.038673848001139,-0.005863259325795343,0.128,0.9999999999999973,1166.4236237174186,0.42717493421635244,86,2026-10-07 21:31:31.128243,36.6,0.013819398694151615,0.25647765582008025,0.07965893432840439
0164,cdot_cos,R,Q-R,87,17,15075,0.11168232638202813,0.32870576285738273,0.14724154236992795,0.9954544039209906,798.0,1.6669633299018385,0.5445607559304546,5.079324670547122,-0.03253021062394637,0.031,0.9999999999999972,-21.740716622320257,0.4321420738328353,87,2026-10-07 21:31:31.159244,36.6,0.44053756258881055,1.0613858292958496,1.789094719222735
0164,cdot_cos,S,R-S,88,17,15126,0.0007886581043625707,-0.009448836835488644,-0.11089366827766556,0.016978080996975682,798.0,1.6773073150222764,0.5445816715288329,5.108628992119494,-0.006188813175656588,0.051,0.9999999999999976,1259.4140015466626,0.4371092183141665,88,2026-10-07 21:31:31.210243,36.6,0.014174761816810245,0.19461546858604073,0.20282323765564475
0164,cdot_cos,T,S-T,89,17,15336,-0.2583845780458643,-0.04468190607779,-0.25917323615022686,7.592106566740244e-05,798.0,1.6868141076976146,0.5445817650569837,5.13757418004064,-0.005721682301114684,0.21,0.9999999999999967,4994.548380281963,0.4420763990391204,89,2026-10-07 21:31:31.420243,36.6,0.9216016256226546,0.15733117200414132,0.04527044131113463
0164,cdot_cos,P,T-P,90,18,15714,0.08355120559467784,-0.007245302500957508,0.3419357836405421,0.9999963282910597,759.0,1.7433864072640157,0.545813398285748,5.1780406364786735,-0.03470135179480699,0.378,0.9999999999999972,-23.52946381835425,0.44704362004665765,90,2026-10-07 21:31:31.798244,36.6,0.4338239625340379,0.08857331049582695,0.14966216816508224
0164,cdot_cos,Q,P-Q,91,18,15843,-0.030026730972846097,-0.04937843448164126,-0.11357793656752393,0.01541388742975289,759.0,1.7537755304324598,0.5458323782637563,5.20690912779784,-0.006497026599104344,0.129,0.9999999999999963,1486.0041030304794,0.45201078288927193,91,2026-10-07 21:31:31.927244,36.6,0.013022029495384856,0.26093952300913137,0.08053583851507048
0164,cdot_cos,R,Q-R,92,18,15871,0.10651499584948293,0.3698436564583324,0.136541726822329,0.9932900232404785,759.0,1.8107088042003716,0.5470551883029166,5.247169134454627,-0.036273030421485906,0.028,0.9999999999999967,-24.35047380117184,0.4569779215121065,92,2026-10-07 21:31:31.955244,36.6,0.44004183571571287,1.2097632751461782,2.03333120599685
0164,cdot_cos,S,R-S,93,18,15926,0.0013564197829987893,-0.007456655199970836,-0.10515857606648414,0.020860761896958943,759.0,1.8215222738406458,0.5470808633360931,5.2758568845893254,-0.007020293558019116,0.055,0.9999999999999967,1139.3456305333532,0.4619450673072685,93,2026-10-07 21:31:32.010243,36.6,0.015500511041972526,0.187106289594998,0.19660853891407612
0164,cdot_cos,T,S-T,94,18,16136,-0.2866048055892357,-0.08916912082350548,-0.28796122537223445,2.6472414712437497e-05,759.0,1.8312904960558214,0.5470808959176837,5.304146180591985,-0.006377635220889016,0.21,0.9999999999999961,19724.584477154458,0.4669122525098525,94,2026-10-07 21:31:32.220243,36.6,0.9041432245835749,0.16165922354509696,0.04651534388178854
0164,cdot_cos,P,T-P,95,19,16473,0.050523911786197015,-0.003606575460196536,0.3371287173754327,0.9999956219863191,720.0,1.8894191477295865,0.5483113754070392,5.344278319897545,-0.0386390980678412,0.337,0.9999999999999964,-26.218610814756364,0.47187947184924844,95,2026-10-07 21:31:32.557244,36.6,0.43389900648453633,0.10144184775956713,0.17248858063431788
0164,cdot_cos,Q,P-Q,96,19,16602,-0.08616301740461618,-0.10597484303153974,-0.1366869291908132,0.006674649184815304,720.0,1.8996623014457696,0.5483195864947767,5.3724129274117205,-0.00693389390330478,0.129,0.999999999999996,3861.267249607257,0.47684663717108733,96,2026-10-07 21:31:32.686244,36.6,0.01033213546766852,0.267175012011238,0.07940429237351254
0164,cdot_cos,R,Q-R,97,19,16629,0.08267693085970833,0.35881204340322387,0.16883994826432452,0.9979329056226716,720.0,1.958350300828486,0.5495469352870027,5.412409740046098,-0.04043075252941738,0.027,0.999999999999996,-27.292045128721202,0.4818137752779617,97,2026-10-07 21:31:32.713243,36.6,0.4367040653979795,1.3653186282694798,2.1736296067672702
0164,cdot_cos,S,R-S,98,19,16685,0.022970864936539697,-0.04860157491463674,-0.05970606592316863,0.10108361162227658,720.0,1.9733895073723215,0.549671223747398,5.441467615463752,-0.010558128347749773,0.056,0.9999999999999956,240.34913689227173,0.4867809219095443,98,2026-10-07 21:31:32.769243,36.6,0.05905131542977409,0.22416626340400084,0.26855725971135025
0164,cdot_cos,T,S-T,99,19,16895,-0.18475486769875232,-0.09745972814585188,-0.207725732635292,0.0004988222385036082,720.0,1.983456922329734,0.5496718370643789,5.469165844478443,-0.007112860678051599,0.21,0.9999999999999954,5617.434012987856,0.491748112155995,99,2026-10-07 21:31:32.979244,36.6,0.6160842257221419,0.16601415076026146,0.04794007122577371
0164,cdot_cos,P,T-P,100,20,17193,0.06564375671736955,-0.0014050711163765954,0.2503986244161219,0.9998953296143319,741.0,2.0431154506916314,0.5509009326200475,5.509009452721953,-0.042871457429037994,0.298,0.9999999999999958,-29.09342287185859,0.496715328998359,100,2026-10-07 21:31:33.277244,36.6,0.43427006608008567,0.11956454355341746,0.20019640389898435
0164,cdot_cos,Q,P-Q,101,20,17321,-0.030992678609146486,-0.0546875162717047,-0.09663643532651603,0.028280531009369034,741.0,2.054717390287571,0.5509356867682814,5.536835262866215,-0.008484745686825002,0.128,0.9999999999999949,989.4275500793627,0.5016824968963874,101,2026-10-07 21:31:33.405244,36.6,0.01737420403644116,0.27888010567402377,0.09064015309327711
0164,cdot_cos,R,Q-R,102,20,17351,0.0935058256369982,0.3756092101279732,0.1244985042461447,0.9896118314266965,741.0,2.1145087577441815,0.5521515123132141,5.576457064564564,-0.0444659789564692,0.03,0.999999999999995,-29.59407574516414,0.5066496357690368,102,2026-10-07 21:31:33.435244,36.6,0.44522047207295984,1.1969408034723832,1.9930455818870207
0164,cdot_cos,S,R-S,103,20,17405,0.0015831335650085183,-0.007014542689278233,-0.09192269207198969,0.03342772179104255,741.0,2.126533838495914,0.5521925704209558,5.604142659847823,-0.009096766194292456,0.054,0.9999999999999951,861.4428357170887,0.5116167824877449,103,2026-10-07 21:31:33.489243,36.6,0.020484057710410394,0.2067525806836055,0.22268668058763638
0164,cdot_cos,T,S-T,104,20,17614,-0.244759254468056,-0.09579948985612802,-0.24634238803306452,0.00012142025724342189,741.0,2.136838036458011,0.5521927195559369,5.631283045446205,-0.007835988306374277,0.209,0.9999999999999947,8453.938031174932,0.5165839776513413,104,2026-10-07 21:31:33.698244,36.6,0.8513807498783049,0.17093389543355392,0.04930238259376569
0164,cdot_cos,P,T-P,105,21,17934,0.06565844846350058,-0.0011830101026210516,0.31041770293155657,0.9999883627519405,819.0,2.1979842067871393,0.5534206388969003,5.670874187423865,-0.04725405641196814,0.32,0.9999999999999948,-32.101512526601134,0.521551209430994,105,2026-10-07 21:31:34.018244,36.6,0.43423335116996,0.11470356827278094,0.19108178227852657
0164,cdot_cos,Q,P-Q,106,21,18064,-0.02445604789649105,-0.037578271564114446,-0.09011449635999164,0.035633315662417175,819.0,2.2102483201525907,0.5534643823095663,5.698264735305557,-0.009638089998609033,0.13,0.9999999999999944,859.9229945906501,0.5265183807712546,106,2026-10-07 21:31:34.148243,36.6,0.020184415410099944,0.28379450576860693,0.09433933358039462
0164,cdot_cos,R,Q-R,107,21,18094,0.11991537191962806,0.3360585986318094,0.14437141981611912,0.9949534643333119,819.0,2.271770778286977,0.5546854492314155,5.737711064752061,-0.04913212888367677,0.03,0.9999999999999942,-32.343877455346515,0.5314855194682256,107,2026-10-07 21:31:34.178244,36.6,0.447609870416976,1.2125230114814776,2.0507486044795504
0164,cdot_cos,S,R-S,108,21,18144,0.00021286015175725365,-0.005235581727122732,-0.1197025117678708,0.012356837215062429,819.0,2.2829997008414793,0.5547006101690665,5.764618002241141,-0.00911296852926559,0.05,0.9999999999999939,2639.62304151078,0.5364526653939786,108,2026-10-07 21:31:34.228243,36.6,0.012382741209677453,0.21778889676915103,0.22457845109004282
0164,cdot_cos,T,S-T,109,21,18354,-0.25311865240434456,-0.020011418302915692,-0.2533315125561018,9.401771070521089e-05,819.0,2.2935496679638923,0.5547007255215474,5.79124575986898,-0.008602893024676119,0.21,0.9999999999999937,4421.885863288952,0.5414198662510282,109,2026-10-07 21:31:34.438244,36.6,0.9424323308498443,0.17414855446646155,0.050237938678156964
0164,cdot_cos,P,T-P,110,22,18753,0.07915519731478456,-0.0028418206053621776,0.3322738497191291,0.9999947706738378,799.0,2.356142093717393,0.5559273061695871,5.830614948945493,-0.05182777472378424,0.399,0.9999999999999939,-35.24014647401215,0.5463871345807287,110,2026-10-07 21:31:34.837244,36.6,0.43430423571135846,0.09329606290771637,0.15687324750250847
0164,cdot_cos,Q,P-Q,111,22,18900,-0.02401463371471317,-0.047857248860154356,-0.10316983102949773,0.022400521487918865,799.0,2.36799992616425,0.5559547746121498,5.857347195595463,-0.009975610105672342,0.147,0.9999999999999934,1523.6453440168534,0.5513543147039621,111,2026-10-07 21:31:34.984244,36.6,0.015063975441962503,0.2504929356683989,0.0806655268493659
0164,cdot_cos,R,Q-R,112,22,18926,0.07385177048780747,0.33611668822710994,0.09786640420252064,0.9729306415747137,799.0,2.4297870168039024,0.557147489986708,5.89629500170548,-0.052760941090821974,0.026,0.9999999999999934,-35.87220547148304,0.5563214514326678,112,2026-10-07 21:31:35.010243,36.6,0.4444453742696842,1.4643854113643313,2.3764265630635575
0164,cdot_cos,S,R-S,113,22,18983,0.0018932252526029588,-0.007743679634204736,-0.07195854523520451,0.06700186446765632,799.0,2.444147967555195,0.5572296034647406,5.9234321296126184,-0.01245719388908414,0.057,0.9999999999999932,490.82986334789,0.5612886001606782,113,2026-10-07 21:31:35.067244,36.6,0.039345278581462834,0.22086006404328637,0.25194650440864447
0164,cdot_cos,T,S-T,114,22,19193,-0.20620143838652633,-0.05708097334051795,-0.2080946636391293,0.0004921352673614576,799.0,2.454965064104837,0.5572302065847257,5.949590715465834,-0.009431599365803577,0.21,0.9999999999999928,5016.571491910917,0.5662558063963505,114,2026-10-07 21:31:35.277244,36.6,0.7255731623582949,0.17815254595395,0.0515099835697234
0164,cdot_cos,P,T-P,115,23,19552,0.05615722129670378,0.0004010878935720352,0.26235865968323013,0.999932433246866,819.0,2.518972036855854,0.558455289551645,5.988765995038038,-0.05662852004674468,0.359,0.9999999999999926,-38.52548925696357,0.5712230710296705,115,2026-10-07 21:31:35.636243,36.6,0.4345484242070377,0.10812154029168622,0.1782924032061757
0164,cdot_cos,Q,P-Q,116,23,19699,-0.024066984364436928,-0.04452698353925594,-0.0802242056611407,0.050392521995612304,819.0,2.5325963300342678,0.5585170100419237,6.015412513075463,-0.012241514112805416,0.147,0.9999999999999922,719.1615901551214,0.5761902546956095,116,2026-10-07 21:31:35.783243,36.6,0.026624036658221217,0.26264018107074977,0.09268226651982059
0164,cdot_cos,R,Q-R,117,23,19725,0.08347716411689501,0.32487718035938523,0.10754414848133194,0.980849981355109,819.0,2.5961882500906546,0.5597179874713261,6.054275936683677,-0.05797772135568696,0.026,0.9999999999999925,-38.082486917043774,0.5811573909356136,117,2026-10-07 21:31:35.809243,36.6,0.4543632415829012,1.4847103859120077,2.4458430790918
0164,cdot_cos,S,R-S,118,23,19783,0.0013171146114514354,-0.006539406729770621,-0.08216004950544357,0.0471080413433479,819.0,2.609801270101692,0.5597756502701797,6.080720239334826,-0.012597674379820884,0.058,0.9999999999999919,786.9900157124047,0.5861245406612725,118,2026-10-07 21:31:35.867244,36.6,0.027262152087340133,0.2125513260168299,0.23470724156961362
0164,cdot_cos,T,S-T,119,23,19991,-0.24044564038448196,-0.053179508605976235,-0.2417627549959334,0.00014357393670447552,819.0,2.620844203908607,0.5597758260100042,6.1064335628737405,-0.010267679976247302,0.208,0.9999999999999918,13258.203771355355,0.5910917518807417,119,2026-10-07 21:31:36.075244,36.6,0.796980466270178,0.18375896475174933,0.05309102791785904
0164,cdot_cos,P,T-P,120,24,20371,0.07853062654659208,-0.006630418187646633,0.31897626693107406,0.9999914923081268,839.0,2.68624499943842,0.5609994868041556,6.145441711416991,-0.0616611258124677,0.38,0.9999999999999916,-41.99974869004658,0.5960590362929477,120,2026-10-07 21:31:36.455244,36.6,0.43453355109260067,0.1019973760160807,0.17210735665740273
0164,cdot_cos,Q,P-Q,121,24,20500,-0.03176967343883775,-0.04346816737340018,-0.11030029998542984,0.017344366518217753,839.0,2.698362209680828,0.5610207041075398,6.171228002143969,-0.011591086343962368,0.129,0.9999999999999912,2359.8681963389163,0.6010262158709109,121,2026-10-07 21:31:36.584243,36.6,0.013303846802428264,0.3020760386481208,0.09393186234425042
0164,cdot_cos,R,Q-R,122,24,20530,0.12553456346598196,0.3108090923930833,0.1573042369048197,0.9968504308403332,839.0,2.764180617409635,0.5622397705469174,6.210141506650424,-0.06383290824584226,0.03,0.9999999999999909,-42.853957925829405,0.6059933533212286,122,2026-10-07 21:31:36.614244,36.6,0.4411302072018367,1.294609420081779,2.1939469242935625
0164,cdot_cos,S,R-S,123,24,20582,7.424737011421511e-05,-0.007753486108959203,-0.12546031609586775,0.01003244758022669,839.0,2.776038774885735,0.5622520356147007,6.235676990100229,-0.011663902785022294,0.052,0.9999999999999903,4253.46246613444,0.6109605009682617,123,2026-10-07 21:31:36.666244,36.6,0.011416579500562915,0.2223311570936573,0.22804148992499737
0164,cdot_cos,T,S-T,124,24,20792,-0.27424040723424825,0.005495036182638418,-0.27431465460436244,4.362151870912402e-05,839.0,2.7873030577473754,0.562252088943583,6.260974552673946,-0.011125998481998616,0.21,0.9999999999999907,10086.54747150909,0.6159277188591935,124,2026-10-07 21:31:36.876243,36.6,0.9528034791750079,0.18574978717504909,0.053639442198288076
0164,cdot_cos,P,T-P,125,25,21210,0.05722735408429648,0.0007216936260789134,0.3314677613185447,0.9999946140963365,879.0,2.8540536854992555,0.5634742380484473,6.299833775067856,-0.0668139889930195,0.418,0.9999999999999897,-45.56562721305975,0.620895032321879,125,2026-10-07 21:31:37.294244,36.6,0.4345353373231272,0.09598532064578337,0.1596904970140673
0164,cdot_cos,Q,P-Q,126,25,21359,-0.03132139799022581,-0.05030247149310779,-0.08854875207452229,0.037655831315160516,879.0,2.8675467858072503,0.5635202443753642,6.32549935337715,-0.013697693618505483,0.149,0.99999999999999,1154.543275547545,0.6258622240956395,126,2026-10-07 21:31:37.443244,36.6,0.020697245228202165,0.26972164701591494,0.09055772018788441
0164,cdot_cos,R,Q-R,127,25,21386,0.10027172336831197,0.2959349028188009,0.1315931213585378,0.9919684059808642,879.0,2.934430736309998,0.5647317940361876,6.364204411524051,-0.06880843515305662,0.027,0.9999999999999893,-45.48781062519356,0.6308293595185408,127,2026-10-07 21:31:37.470243,36.6,0.44891127220675964,1.4788741701811967,2.4771833519536246
0164,cdot_cos,S,R-S,128,25,21441,0.0009636133491632976,-0.011579869950834801,-0.09930811001914867,0.025713811545426866,879.0,2.947405990997035,0.5647631896215227,6.389566404677683,-0.01353210627663588,0.055,0.9999999999999892,1760.6401755637492,0.6357965088270453,128,2026-10-07 21:31:37.525243,36.6,0.016826030336356303,0.2236119680886964,0.2359137215824864
0164,cdot_cos,T,S-T,129,25,21651,-0.16465983904310474,-0.0006794772835420342,-0.16562345239226806,0.0023247429460049995,879.0,2.959028052799755,0.5647660280185919,6.414509328456166,-0.01217150926717857,0.21,0.9999999999999886,479.3540073164625,0.6407637327138069,129,2026-10-07 21:31:37.735244,36.6,0.8942361416450648,0.18974641507484663,0.0553431514415231
0164,cdot_cos,P,T-P,130,26,22089,0.07228746012249339,-0.005202427696351228,0.23694729916559815,0.9998287596451547,841.0,3.0270994853284705,0.5659863739339281,6.4532378653203795,-0.07220457796375279,0.438,0.9999999999999887,-49.19348517672736,0.6457310697021972,130,2026-10-07 21:31:38.173243,36.6,0.4354260823266096,0.09283123738546564,0.1554142295176158
0164,cdot_cos,Q,P-Q,131,26,22221,-0.0239935007900904,-0.03656816396660638,-0.09628096091258379,0.02864026818052757,841.0,3.0403482167494227,0.5660213192423397,6.478410454999913,-0.014243806483973344,0.132,0.9999999999999879,1658.613820121863,0.6506982567170101,131,2026-10-07 21:31:38.305243,36.6,0.017091206909585988,0.308999282525318,0.10036917743145587
0164,cdot_cos,R,Q-R,132,26,22251,0.11719498223823661,0.32580921879550784,0.141188483028327,0.9943334856805415,841.0,3.1086752959151545,0.5672341419246573,6.517024480710669,-0.07439759575318661,0.03,0.9999999999999879,-49.598173043948066,0.6556653929276655,132,2026-10-07 21:31:38.335244,36.6,0.44550589438499,1.347605213192978,2.2775693055243926
0164,cdot_cos,S,R-S,133,26,22301,4.301035885171639e-05,-0.004938474948876589,-0.11715197187938489,0.01354951777329903,841.0,3.1212045295410014,0.5672506632073504,6.5418541345789105,-0.013821658000057312,0.05,0.9999999999999873,3666.539631229009,0.6606325399689387,133,2026-10-07 21:31:38.385243,36.6,0.012491805170916302,0.2424359954306654,0.25058467251693806
0164,cdot_cos,T,S-T,134,26,22530,-0.2745265932328829,-0.011408303086344298,-0.27456960359173466,4.321639119868425e-05,841.0,3.132918895458221,0.5672507159019914,6.566402126608085,-0.012973022987078989,0.229,0.9999999999999867,16104.768855638904,0.6655997798576083,134,2026-10-07 21:31:38.614244,36.6,0.9366783206817187,0.1770640798271812,0.05115443631973641
0164,cdot_cos,P,T-P,135,27,22930,0.05732496554860606,-0.00011907331652228335,0.331851558781489,0.9999946892227689,819.0,3.2022998781018504,0.5684696204512153,6.605020488843124,-0.07777951595177261,0.4,0.9999999999999867,-53.16781613946447,0.6705671115695311,135,2026-10-07 21:31:39.014244,36.6,0.4346528042948359,0.10434415374062977,0.17345245660907338
0164,cdot_cos,Q,P-Q,136,27,23072,-0.030269785527525742,-0.053875949836609004,-0.08759475107613181,0.038941757178983946,819.0,3.216394218450725,0.568517070314094,6.62999177307463,-0.01600822217838932,0.142,0.9999999999999861,1301.8223873741201,0.6755343073018497,136,2026-10-07 21:31:39.156243,36.6,0.02109492230367867,0.29309011508059196,0.09925591794982021
0164,cdot_cos,R,Q-R,137,27,23101,0.08648956651481482,0.3148094023085692,0.11675935204234056,0.9862570666671244,819.0,3.2855374707847385,0.5697183860701205,6.668383147175797,-0.07949682186392892,0.029,0.9999999999999859,-52.849219172433834,0.6805014423725165,137,2026-10-07 21:31:39.185244,36.6,0.44994466759185936,1.4418867803421103,2.3842500804832287
0164,cdot_cos,S,R-S,138,27,23160,0.001808668283615002,-0.009436362059023385,-0.08468089823119981,0.04313527686442508,819.0,3.300023651710567,0.5697709086027808,6.69329306160214,-0.016869075280812117,0.059,0.9999999999999856,1192.397689353053,0.6854685946475809,138,2026-10-07 21:31:39.244244,36.6,0.024414517674292632,0.22413077095147815,0.2455284902682841
0164,cdot_cos,T,S-T,139,27,23370,-0.208871858144723,-0.039551599527602996,-0.210680526428338,0.00044771437624042357,819.0,3.311984901757013,0.5697714537421557,6.7175067773849,-0.013984741048190513,0.21,0.9999999999999847,5291.003302309823,0.6904358312125874,139,2026-10-07 21:31:39.454243,36.6,0.8136307260877554,0.1967168397304111,0.056958333554503145
0164,cdot_cos,P,T-P,140,28,23749,0.05003884389509749,-0.001109770783537096,0.2589107020398205,0.9999233459680259,818.0,3.38264472439734,0.5709885411992269,6.756027952141456,-0.08358722721645521,0.379,0.9999999999999843,-57.187744203487114,0.6954031652238164,140,2026-10-07 21:31:39.833244,36.6,0.43487665206457626,0.11210558851777745,0.1864375267554802
0164,cdot_cos,Q,P-Q,141,28,23880,-0.038056625107761456,-0.05567523526805526,-0.08809546900285894,0.03826165639017764,818.0,3.396960937853488,0.5710350955984279,6.7806665181069405,-0.01714990439357735,0.131,0.999999999999984,1427.0901131396497,0.700370358631954,141,2026-10-07 21:31:39.964243,36.6,0.020776806833085675,0.32516978387004397,0.10928407218433822
0164,cdot_cos,R,Q-R,142,28,23909,0.10302092954701875,0.3034790084375672,0.1410775546547802,0.9943105641461526,818.0,3.4678392077712914,0.5722444676556651,6.819080290545329,-0.08591377050336693,0.029,0.9999999999999835,-56.859149091705596,0.7053374932447815,142,2026-10-07 21:31:39.993243,36.6,0.44915719301138485,1.4555809519905747,2.444078273027697
0164,cdot_cos,S,R-S,143,28,23959,0.0003837437825425161,-0.008839055646788885,-0.10263718576447622,0.022831431809383358,818.0,3.4813846330689415,0.5722722272657568,6.843380967959017,-0.01662048179084676,0.05,0.999999999999983,2496.1909941667363,0.7103046409170308,143,2026-10-07 21:31:40.043243,36.6,0.015465393564765678,0.25704400574042996,0.27090850595300253
0164,cdot_cos,T,S-T,144,28,24187,-0.24496665915790755,-0.028472357829039643,-0.24535040294045007,0.0001259090591213808,818.0,3.4935436083453344,0.5722723803511005,6.8672690249857755,-0.014974465977743517,0.228,0.9999999999999823,10752.275645371885,0.7152718951780092,144,2026-10-07 21:31:40.271244,36.6,0.8959044579773089,0.1843867151423657,0.05332883893154767
0164,cdot_cos,P,T-P,145,29,24567,0.0824223592180131,-0.00268751655119183,0.32738901837592066,0.9999937469694616,840.0,3.5654649751738603,0.5734877744686779,6.905707753590521,-0.08957809562839689,0.38,0.9999999999999822,-61.38225335445614,0.7202392436200725,145,2026-10-07 21:31:40.651244,36.6,0.434815534399447,0.11239679799272276,0.18926675481191027
0164,cdot_cos,Q,P-Q,146,29,24702,-0.023310790290856205,-0.038507475224692694,-0.1057331495088693,0.02043552459346767,840.0,3.5789651748198037,0.5735126026400228,6.929779651306404,-0.017017724790325976,0.135,0.9999999999999813,2922.5016144048027,0.7252064431519519,146,2026-10-07 21:31:40.786243,36.6,0.014068577562203281,0.31631240119763276,0.10000147885883999
0164,cdot_cos,R,Q-R,147,29,24733,0.10448781168561135,0.33719119810483716,0.12779860197646756,0.990782843819998,840.0,3.650869323497221,0.5747159090020634,6.968060596649178,-0.09165564005878117,0.031,0.9999999999999812,-62.027358636983735,0.7301735784680963,147,2026-10-07 21:31:40.817244,36.6,0.4429361018869318,1.3805402573450414,2.3194886670134665
0164,cdot_cos,S,R-S,148,29,24778,2.6864042298069885e-05,-0.0029741714746265124,-0.10446094764331328,0.0213887229608821,840.0,3.6645586707751963,0.5747418759135956,6.992037212174818,-0.01765600663609637,0.045,0.9999999999999807,2849.766454930363,0.7351407232665224,148,2026-10-07 21:31:40.862243,36.6,0.01512831009780928,0.28943292356598727,0.3042077172883357
0164,cdot_cos,T,S-T,149,29,25008,-0.3461781096286894,-0.019623567347237122,-0.34620497367098746,3.140573357018611e-06,840.0,3.67691828661816,0.5747418797263685,7.015619239154922,-0.015997731920899108,0.23,0.9999999999999799,434926.17301789415,0.7401079865268777,149,2026-10-07 21:31:41.092243,36.6,0.901534593712332,0.18589670950667359,0.05373746018679889
0164,cdot_cos,P,T-P,150,30,25407,0.05249507331373024,0.00012947665570159253,0.3986731829424196,0.9999995397237369,860.0,3.750071157148266,0.5759554633239266,7.053985536265652,-0.09571700191958882,0.399,0.9999999999999793,-65.68914589740466,0.7450753614362712,150,2026-10-07 21:31:41.491244,36.6,0.4348021146412629,0.10807568522441328,0.1833405276443762
0164,cdot_cos,Q,P-Q,151,30,25541,-0.07298458872071649,-0.08482540143684482,-0.12547966203444672,0.010025417697357982,860.0,3.763162683427242,0.575967625400749,7.077609244431007,-0.017328414158649132,0.134,0.9999999999999782,6445.329108301499,0.7500425640978237,151,2026-10-07 21:31:41.625243,36.6,0.010848783286378498,0.3233784437923671,0.09769795730578877
0164,cdot_cos,R,Q-R,152,30,25574,0.10086619372657377,0.2938852658140774,0.17385078244729024,0.998278675876136,860.0,3.8367365800846205,0.5771781983454657,7.115931317119144,-0.09843361089635147,0.033,0.9999999999999788,-66.99736442291109,0.7550097001932381,152,2026-10-07 21:31:41.658243,36.6,0.4386917127904256,1.3280550287494453,2.229512019920566
0164,cdot_cos,S,R-S,153,30,25618,-0.00031718751331545885,-0.009863252089921216,-0.10118338123988922,0.024049169252313762,860.0,3.850814315324705,0.5772073504491322,7.13966120338242,-0.019051300197991096,0.044,0.9999999999999779,2723.0388450351024,0.7599768443563936,153,2026-10-07 21:31:41.702244,36.6,0.015502312993312312,0.304686361225008,0.3199485281837434
0164,cdot_cos,T,S-T,154,30,25847,-0.16113185780347794,-0.008131702494519612,-0.16081467029016247,0.0027708763003254054,860.0,3.863548979872421,0.5772107092363556,7.162997110838204,-0.017293802630376325,0.229,0.9999999999999772,523.2536182519165,0.7649441148995391,154,2026-10-07 21:31:41.931243,36.6,0.9033674742190801,0.19013699058766417,0.055609888854654975
0164,cdot_cos,P,T-P,155,31,26267,0.0643644407203817,0.0003985302340155882,0.22549629852385963,0.9997396347031591,859.0,3.9378970570138554,0.5784221004713861,7.2012976794852905,-0.1020262902306487,0.42,0.999999999999977,-69.94642618339797,0.7699115196818865,155,2026-10-07 21:31:42.351244,36.6,0.4358327960688846,0.10583987842987187,0.17701923128912908
0164,cdot_cos,Q,P-Q,156,31,26414,-0.03040559032218662,-0.05023118388985946,-0.09477003104256831,0.030219476839224477,859.0,3.9524544777535136,0.5784587029990048,7.2249475256913955,-0.020204021179085704,0.147,0.9999999999999759,2235.4267416687558,0.7748787353271568,156,2026-10-07 21:31:42.498244,36.6,0.01742583869360146,0.3023425930978849,0.09903007305889902
0164,cdot_cos,R,Q-R,157,31,26441,0.09831805243698234,0.3057898160437365,0.12872364275916898,0.99108694602279,859.0,4.026785779384634,0.5796586503474261,7.263102723678322,-0.10424428299164287,0.027,0.9999999999999762,-70.03662445949995,0.7798458665111212,157,2026-10-07 21:31:42.525243,36.6,0.4465580790461345,1.645676470195016,2.7530111715229633
0164,cdot_cos,S,R-S,158,31,26495,0.001130330616086075,-0.010458470512990738,-0.09718772182089627,0.027731295922731367,859.0,4.041321007144044,0.5796922122343267,7.286618773133141,-0.020611183203645564,0.054,0.9999999999999749,2491.906966849339,0.7848130178508127,158,2026-10-07 21:31:42.579243,36.6,0.017289491029632082,0.2533305816544717,0.26917088443353426
0164,cdot_cos,T,S-T,159,31,26706,-0.1908112531604676,-0.007471890450615631,-0.19194158377655368,0.0008885222367154494,859.0,4.0541454822033165,0.5796932875589387,7.309654883325546,-0.018246964090590963,0.211,0.9999999999999738,2198.609691087847,0.7897802834019939,159,2026-10-07 21:31:42.790244,36.6,0.8784750200536624,0.20942481164720592,0.060779502650578625
0164,cdot_cos,P,T-P,160,32,27126,0.06163958092738145,0.000533046027184275,0.2524508340878491,0.9999029027621547,859.0,4.129698277659165,0.5809029277414542,7.347906079811251,-0.10858518863281283,0.42,0.9999999999999741,-74.68189784697324,0.7947477049451339,160,2026-10-07 21:31:43.210243,36.6,0.4351967051417593,0.10822973835668787,0.17988760822821145
0164,cdot_cos,Q,P-Q,161,32,27273,-0.025718887712183922,-0.0428470229177813,-0.08735846863956537,0.039266702391259435,859.0,4.145058462422934,0.5809504111955572,7.371435055427771,-0.022320334458893875,0.147,0.9999999999999729,1816.735024937514,0.7997149251648564,161,2026-10-07 21:31:43.357243,36.6,0.020965964217326064,0.30881442467155046,0.10449105281475506
0164,cdot_cos,R,Q-R,162,32,27300,0.09935943026317115,0.31265935340596684,0.12507831797535507,0.9898277391693666,859.0,4.220489718512601,0.5821468677884647,7.409520689881124,-0.110725207024295,0.027,0.9999999999999726,-73.88890920862599,0.8046820555169436,162,2026-10-07 21:31:43.384243,36.6,0.4500408763246916,1.6683438594175024,2.793750225543216
0164,cdot_cos,S,R-S,163,32,27356,0.00043541381824611334,-0.003996846027948793,-0.09892401644492503,0.026068354822721698,859.0,4.235149030831479,0.5821783649752041,7.432756525440664,-0.021749613594778297,0.056,0.9999999999999716,2824.8743027604796,0.8096492088218946,163,2026-10-07 21:31:43.440243,36.6,0.016724098766437934,0.2467116641855108,0.2617734342656838
0164,cdot_cos,T,S-T,164,32,27565,-0.3018483952048013,-0.008515364707022301,-0.3022838090230474,1.5672498290657673e-05,859.0,4.248121424901378,0.582178383911357,7.455521773972843,-0.019309675256914342,0.209,0.9999999999999705,128850.79429157072,0.8146164804300663,164,2026-10-07 21:31:43.649244,36.6,0.8812989934358231,0.21461335251948663,0.062068871147841716
0164,cdot_cos,P,T-P,165,33,27985,0.06841062448047229,-0.005793554968320454,0.3702590196852736,0.9999986978338652,878.0,4.324857412184625,0.5833861277158394,7.493731246625944,-0.11533608093938319,0.42,0.9999999999999706,-79.5089201253423,0.8195839192721026,165,2026-10-07 21:31:44.069243,36.6,0.4349261386466987,0.10878053513044246,0.18270473162677736
0164,cdot_cos,Q,P-Q,166,33,28113,-0.03250873407807221,-0.04028329729198518,-0.1009193585585445,0.024277019218724213,878.0,4.33949707441095,0.5834154357948734,7.516782870231516,-0.022237855276367097,0.128,0.9999999999999695,3176.5379626208473,0.8245511290687563,166,2026-10-07 21:31:44.197243,36.6,0.015199769400658954,0.3584425035599442,0.11437236114316546
0164,cdot_cos,R,Q-R,167,33,28143,0.1392690620931173,0.294026191140639,0.1717777961711895,0.9981432466350441,878.0,4.4166186930959705,0.584619917019516,7.554955123760347,-0.1182909267871342,0.03,0.9999999999999694,-79.7464248886665,0.8295182610762863,167,2026-10-07 21:31:44.227243,36.6,0.4439660904436175,1.511858908199537,2.5707206228340183
0164,cdot_cos,S,R-S,168,33,28195,-0.00035067903893810324,-0.0050029146727986595,-0.13961974113205539,0.005999375076689821,878.0,4.430208608902922,0.5846271535555625,7.577634783978162,-0.0210603674281671,0.052,0.9999999999999682,13436.063709778036,0.8344854116905132,168,2026-10-07 21:31:44.279244,36.6,0.009884819032840638,0.25728312814199406,0.26134453474907077
0164,cdot_cos,T,S-T,169,33,28423,-0.28482066304739195,0.04523126182664548,-0.28446998400845386,3.008055838510797e-05,878.0,4.443376138422738,0.5846271898390905,7.600154280629856,-0.02046751039829354,0.228,0.9999999999999671,16339.564072390855,0.839452706551864,169,2026-10-07 21:31:44.507244,36.6,0.9714497246328586,0.19968805786908184,0.057752322455332024
0164,cdot_cos,P,T-P,170,34,28863,0.06790219887747481,-0.003080223630199425,0.3527228619248668,0.9999975259627327,899.0,4.5212663632912236,0.585832889455782,7.638327200091137,-0.12221086491720051,0.44,0.9999999999999675,-84.38532542465937,0.8444201795303451,170,2026-10-07 21:31:44.947244,36.6,0.43495052553996194,0.10575691322799856,0.17702323833746733
0164,cdot_cos,Q,P-Q,171,34,28998,-0.027824206271941685,-0.040364284189475824,-0.0957264051494165,0.029210358095698618,899.0,4.536442222063377,0.585868093079032,7.661220320822692,-0.024057732946944164,0.135,0.9999999999999658,2788.1542554128064,0.8493873990001283,171,2026-10-07 21:31:45.082243,36.6,0.01690916539603207,0.34545443712212387,0.11241376868261559
0164,cdot_cos,R,Q-R,172,34,29030,0.11982299157097463,0.30229843126740724,0.14764719784291633,0.9955210937707992,899.0,4.614539061314197,0.5870673446314405,7.699316941777428,-0.1249720237094861,0.032,0.9999999999999656,-84.14772577101981,0.8543545318526546,172,2026-10-07 21:31:45.114244,36.6,0.4459738094781063,1.4419821467892557,2.4405262265881356
0164,cdot_cos,S,R-S,173,34,29074,-0.00030061588085775567,-0.003172791085632192,-0.12012360745183238,0.012170152419637818,899.0,4.628729079457889,0.5870819990104169,7.721858986626012,-0.022935891483060283,0.044,0.9999999999999643,6962.842464405261,0.8593216757324242,173,2026-10-07 21:31:45.158243,36.6,0.011693130976685083,0.3130791069954064,0.32250041235663707
0164,cdot_cos,T,S-T,174,34,29304,-0.27951426912181027,0.03022617959178302,-0.2792136532409525,3.646140804027424e-05,899.0,4.642090022729793,0.5870820429142606,7.744144919663078,-0.021660193752105907,0.23,0.999999999999963,29056.62976785522,0.8642889809956357,174,2026-10-07 21:31:45.388243,36.6,0.9428048610393204,0.20084718813325886,0.058091057703929284
0164,cdot_cos,P,T-P,175,35,29762,0.03462792242848935,-0.0023036986892981267,0.3141421915502996,0.9999898457108469,861.0,4.721118785999188,0.5882856257562534,7.78228825499554,-0.12928218572121608,0.458,0.999999999999963,-89.41801778339904,0.8692564887249263,175,2026-10-07 21:31:45.846244,36.6,0.43497878592162953,0.1063904765698938,0.17255188486767542
0164,cdot_cos,Q,P-Q,176,35,29893,-0.03393812898010696,-0.04527701939509103,-0.06856605140859631,0.07519365673061977,861.0,4.7395436992678155,0.5883760859849575,7.805691832293411,-0.030452794305295655,0.131,0.9999999999999618,1092.5175939940307,0.8742237088463277,176,2026-10-07 21:31:45.977243,36.6,0.038955675546260136,0.37323469932754416,0.14064819289028538
0164,cdot_cos,R,Q-R,177,35,29923,0.12947653270627998,0.30853744825520263,0.16341466168638694,0.9974800085986965,861.0,4.818906277223005,0.5895755171658736,7.8437930878544355,-0.13240990130893968,0.03,0.9999999999999617,-85.00454934460484,0.8791908391028431,177,2026-10-07 21:31:46.007244,36.6,0.4630078825768884,1.5587676801481987,2.6454192651729733
0164,cdot_cos,S,R-S,178,35,29973,-0.00023209028934273164,-0.007534345564004746,-0.12970862299562272,0.008600172915673722,861.0,4.833069760076707,0.5895858539335703,7.8660573955321365,-0.023861635914208878,0.05,0.9999999999999601,10501.180695930321,0.8841579883267329,178,2026-10-07 21:31:46.057244,36.6,0.010577030556833962,0.27745150109006467,0.2832696570740545
0164,cdot_cos,T,S-T,179,35,30201,-0.2160691564297281,0.011153458543571151,-0.21583706614038536,0.0003707407857464932,861.0,4.846651427332011,0.5895862995346202,7.888128078901428,-0.022947200524082233,0.228,0.9999999999999589,2052.1392183927082,0.8891253009057021,179,2026-10-07 21:31:46.285243,36.6,0.960934010199699,0.20555890191879347,0.05956871603203395
0164,cdot_cos,P,T-P,180,36,30623,0.03276568142811986,0.0019606192776199416,0.24883483785784796,0.9998891647736649,859.0,4.926804619351677,0.590787549937242,7.926247758001508,-0.13661352015168876,0.422,0.9999999999999589,-94.6233353008804,0.8940927959118081,180,2026-10-07 21:31:46.707244,36.6,0.4351657289341473,0.11857644288072977,0.1899364739802514
0164,cdot_cos,Q,P-Q,181,36,30770,-0.029251228433667426,-0.05113089879729057,-0.06201690986178728,0.0936535832636238,859.0,4.946729945123347,0.5909000085590491,7.949747645301613,-0.034305684029350636,0.147,0.9999999999999576,909.7375948447744,0.8990600355391359,181,2026-10-07 21:31:46.854244,36.6,0.05067910698073366,0.3390447101752508,0.13554643382088322
0164,cdot_cos,R,Q-R,182,36,30801,0.08805785616625766,0.30442582170275057,0.11730908459992509,0.9865271260631716,859.0,5.026483764143201,0.5920840441561107,7.987651552664173,-0.13857509520676453,0.031,0.9999999999999574,-88.06273344836752,0.9040271659498006,182,2026-10-07 21:31:46.885243,36.6,0.4712154971285102,1.5516320322335115,2.572703839350126
0164,cdot_cos,S,R-S,183,36,30853,0.00090103413266133,-0.008475576026997955,-0.08715682203359633,0.039546070328138616,859.0,5.042931131121825,0.5921314853995068,8.010207361581871,-0.02885250287338346,0.052,0.9999999999999557,2312.810214887576,0.9089943173693829,183,2026-10-07 21:31:46.937243,36.6,0.022306447384506673,0.2905474938179694,0.3162955188196887
0164,cdot_cos,T,S-T,184,36,31062,-0.24040573726101988,-0.020966875081482973,-0.2413067713936812,0.00014598979536460866,859.0,5.05670070350027,0.5921316605322462,8.032065734213132,-0.024227511965446816,0.209,0.9999999999999547,26408.488345516296,0.9139616211310241,184,2026-10-07 21:31:47.146244,36.6,0.8262166080445482,0.22739500801589096,0.06588312142796654
0164,cdot_cos,P,T-P,185,37,31482,0.054083702159937616,-0.00014941378272237063,0.2944894394209575,0.9999791537051244,859.0,5.137982244472467,0.5933307074286144,8.070171250201026,-0.14422760050147596,0.42,0.999999999999954,-100.0795622752536,0.9189291341534136,185,2026-10-07 21:31:47.566243,36.6,0.4351698374442541,0.11803394505960141,0.19352747850523197
0164,cdot_cos,Q,P-Q,186,37,31628,-0.021567222981208375,-0.03505699606660201,-0.07565092514114599,0.05903231121569193,859.0,5.155849217350335,0.593401456808759,8.09291807844918,-0.03201009733146403,0.146,0.999999999999953,1586.1270153975584,0.923896378209687,186,2026-10-07 21:31:47.712243,36.6,0.030026024718517508,0.33912738789731545,0.12237652656073808
0164,cdot_cos,R,Q-R,187,37,31654,0.1070520305173266,0.32545286920829664,0.12861925349853498,0.9910531325101152,859.0,5.237007441738483,0.5945886390344246,8.130878560034317,-0.14666433389267364,0.026,0.9999999999999525,-96.57677994372557,0.9288635029000576,187,2026-10-07 21:31:47.738244,36.6,0.45760639451627727,1.8555423065952457,3.1214701687749367
0164,cdot_cos,S,R-S,188,37,31712,0.00038547384379316755,-0.0036389318488539188,-0.10666655667353343,0.019762746266468588,859.0,5.252337417293288,0.5946123016265727,8.152914332653317,-0.0279601065805059,0.058,0.9999999999999513,5016.535237094889,0.9338306609127538,188,2026-10-07 21:31:47.796243,36.6,0.014328775243418612,0.2524295136430614,0.2643099233586969
0164,cdot_cos,T,S-T,189,37,31922,-0.29495449830727033,-0.0044357365793300605,-0.2953399721510635,2.0207369602144905e-05,859.0,5.266289265321078,0.5946123258213022,8.174569193289113,-0.02551759671348846,0.21,0.9999999999999494,100952.14632829218,0.9387979743476116,189,2026-10-07 21:31:48.006243,36.6,0.9087196498619537,0.22936371582139622,0.0664373715609081
0164,cdot_cos,P,T-P,190,38,32341,0.0660889095827578,-0.0032195924319093393,0.36104340789002815,0.9999981754744061,878.0,5.348670177938274,0.5958090808127199,8.21266266304704,-0.15190886730655745,0.419,0.9999999999999494,-105.6116510893714,0.9437655061592138,190,2026-10-07 21:31:48.425244,36.6,0.4351691987603635,0.11813298152387164,0.19661315660428572
0164,cdot_cos,Q,P-Q,191,38,32475,-0.022765376697055202,-0.0345300508953092,-0.08885428627981301,0.03725268798393172,878.0,5.365284703838083,0.5958536413192833,8.234862470370036,-0.030921501354108313,0.134,0.9999999999999474,2715.1254616064803,0.9487327429788739,191,2026-10-07 21:31:48.559244,36.6,0.019985942693367245,0.36965820128958854,0.12398899925230386
0164,cdot_cos,R,Q-R,192,38,32507,0.11773918072944296,0.3200246767685174,0.14050455742649817,0.99419068754862,878.0,5.447738575883884,0.5970422751458603,8.272861766898968,-0.15472741778020713,0.032,0.9999999999999474,-104.15816347969461,0.9536998731110392,192,2026-10-07 21:31:48.591244,36.6,0.4492593251157016,1.5239524636371793,2.5766835014312814
0164,cdot_cos,S,R-S,193,38,32551,-0.0001419437085549004,-0.0019878857782138393,-0.11788112443799786,0.013197413342380124,878.0,5.462817661510862,0.5970580460706311,8.294596793748795,-0.028551273497050177,0.044,0.9999999999999457,8000.554572226803,0.9586670168343621,193,2026-10-07 21:31:48.635243,36.6,0.012042869537772801,0.33197968380493936,0.34270649152223776
0164,cdot_cos,T,S-T,194,38,32781,-0.303796832005182,0.013262995803312085,-0.30365488829662707,1.4905447359708194e-05,878.0,5.4769527880587185,0.597058063882545,8.31605787213819,-0.026835611173637794,0.23,0.9999999999999443,96321.05392080608,0.9636343606342028,194,2026-10-07 21:31:48.865243,36.6,0.938068505346746,0.21216345492904756,0.061457071947200875
0164,cdot_cos,P,T-P,195,39,33219,0.053839205837993724,-0.006495157504894226,0.3576360378431757,0.9999979331421522,859.0,5.560412850778224,0.5982524767096066,8.354142560621773,-0.15970788713775178,0.438,0.999999999999944,-111.24485015034531,0.9686019330714797,195,2026-10-07 21:31:49.303244,36.6,0.4351908284092624,0.11572874555314751,0.1905480884006979
0164,cdot_cos,Q,P-Q,196,39,33350,-0.024984928257928796,-0.03531524417439768,-0.07882413409592252,0.05290190576948747,859.0,5.578331169163276,0.5983156312168018,8.376420277813823,-0.034601369593137324,0.131,0.9999999999999423,1980.9594453482466,0.9735691712705511,196,2026-10-07 21:31:49.434243,36.6,0.02689937614799782,0.3877614485484177,0.13678105637443919
0164,cdot_cos,R,Q-R,197,39,33380,0.12828709819435705,0.30990714148857945,0.15327202645228585,0.9963513988873085,859.0,5.66200635029791,0.5995044679154006,8.414447643171567,-0.16289607690885777,0.03,0.9999999999999417,-107.91617340458184,0.97853629840252,197,2026-10-07 21:31:49.464243,36.6,0.45494159479496077,1.6442779909864167,2.7891727044877968
0164,cdot_cos,S,R-S,198,39,33430,-0.0001654976318430279,-0.005984032447997847,-0.12845259582620008,0.009001114495236665,859.0,5.676987848622461,0.5995152026420026,8.43592812470674,-0.029421212042223685,0.05,0.9999999999999397,12433.9323966494,0.9835034488120034,198,2026-10-07 21:31:49.514244,36.6,0.010708813570217563,0.29300467821319565,0.2996299664910218
0164,cdot_cos,T,S-T,199,39,33658,-0.30026759786529517,0.01981063054451224,-0.30010210023345213,1.6975255315693726e-05,859.0,5.691306818119229,0.5995152228865971,8.457204431032986,-0.02819277706022953,0.228,0.9999999999999385,60679.6537868392,0.9884708003729342,199,2026-10-07 21:31:49.742244,36.6,0.9573629660466088,0.2167691662700033,0.06280249779284418
0164,cdot_cos,P,T-P,200,40,34078,0.04749571237991673,-1.602766852772079e-05,0.3477633102452119,0.999997033536696,841.0,5.775834588441582,0.6007072220783981,8.495284507330027,-0.16770785364772112,0.42,0.999999999999938,-117.04292884351297,0.9934383737277621,200,2026-10-07 21:31:50.162244,36.6,0.43522439979206246,0.12302302998637095,0.20125659600560247
0164,cdot_cos,Q,P-Q,201,40,34213,-0.02657185712798044,-0.044665831192594256,-0.07406756950789717,0.06233480317634368,841.0,5.794646163307781,0.6007814860019489,8.517549179219166,-0.037657224529693306,0.135,0.9999999999999359,1751.195235854313,0.9984056213237738,201,2026-10-07 21:31:50.297244,36.6,0.031633541257234936,0.38176922623462456,0.13934499900887817
0164,cdot_cos,R,Q-R,202,40,34244,0.09816883524270949,0.3207179046547919,0.12474069237068992,0.9897025621185856,841.0,5.878912279524931,0.6019599666504095,8.555460197812133,-0.17001808184972178,0.031,0.9999999999999358,-112.31483308014086,1.003372748804252,202,2026-10-07 21:31:50.328243,36.6,0.4590893282174303,1.6241856591606887,2.7182618134564542
0164,cdot_cos,S,R-S,203,40,34290,6.519495024190471e-05,-0.005916240131407085,-0.09810364029246758,0.02684161846410447,841.0,5.8953456741757435,0.6019919117092604,8.577066080213735,-0.03344166744394418,0.046,0.9999999999999338,4275.353350997484,1.0083398947865554,203,2026-10-07 21:31:50.374244,36.6,0.01683964629414173,0.3364708906351302,0.35724770980027426
0164,cdot_cos,T,S-T,204,40,34520,-0.22436683863819623,-0.023518511712885565,-0.22443203358843813,0.00027070438293301107,841.0,5.909867601463363,0.6019922338786814,8.59817050831918,-0.02962955122207929,0.23,0.9999999999999316,11832.64448152643,1.0133072590786494,204,2026-10-07 21:31:50.604243,36.6,0.8792735155698712,0.2176222348165999,0.06313881429399723
0164,cdot_cos,P,T-P,205,41,34919,0.06542452226303523,-0.003892567051606038,0.2897913609012315,0.9999752426604795,839.0,5.9954519021913795,0.6031817144925448,8.636249499126729,-0.17592174044456327,0.399,0.999999999999932,-122.98829213141589,1.0182748285102778,205,2026-10-07 21:31:51.003244,36.6,0.4353628811829302,0.12877221699416105,0.214496994305806
0164,cdot_cos,Q,P-Q,206,41,35052,-0.02435724437464856,-0.03892808186206884,-0.0897817666376838,0.03605416692175042,839.0,6.012627830624703,0.6032245786031898,8.657903183158103,-0.03560919137100078,0.133,0.9999999999999296,3273.4272789548586,1.0232420788881413,206,2026-10-07 21:31:51.136243,36.6,0.019441479024319856,0.3856240900293524,0.12914231904754842
0164,cdot_cos,R,Q-R,207,41,35083,0.10420072503851288,0.31706943385391684,0.12855796941316144,0.9910332223311036,839.0,6.098027910139187,0.6044021765461794,8.695834770855349,-0.17838172214661405,0.031,0.9999999999999292,-121.24047228984229,1.0282092057122842,207,2026-10-07 21:31:51.167244,36.6,0.449159842892748,1.6396511747967113,2.754841274660768
0164,cdot_cos,S,R-S,208,41,35129,-1.0962807351592237e-06,-0.003725481639174146,-0.10420182131924804,0.0215881390711962,839.0,6.1142862034620995,0.6044278152929246,8.717183661245596,-0.03424424911255776,0.046,0.9999999999999275,5621.861102145214,1.0331763519004549,208,2026-10-07 21:31:51.213243,36.6,0.014859734307480806,0.33634540681481007,0.35344115919374536
0164,cdot_cos,T,S-T,209,41,35359,-0.25995094291076126,-0.014447605276397213,-0.2599498466300261,7.37936271543181e-05,839.0,6.12897168756615,0.6044279029315512,8.738114572168174,-0.031009871242688107,0.23,0.9999999999999251,36905.84839201189,1.0381437268081068,209,2026-10-07 21:31:51.443244,36.6,0.9009535671066118,0.22023990362234055,0.06384993088717494
0164,cdot_cos,P,T-P,210,42,35758,0.042354210980146106,-0.004944924437432662,0.3023051538909074,0.9999843397404395,840.0,6.215596559128376,0.605614883981344,8.7761952338214,-0.18423836426611667,0.399,0.9999999999999251,-129.09093456056587,1.0431113165225363,210,2026-10-07 21:31:51.842243,36.6,0.43531466803473645,0.13400761698344,0.21710494125871282
0164,cdot_cos,Q,P-Q,211,42,35889,-0.02563937403722162,-0.037892109793306206,-0.06799358501736773,0.07666369915159894,840.0,6.235909765918935,0.6057058325546312,8.798387298684801,-0.043573959115572714,0.131,0.9999999999999231,1546.6367427929672,1.048078569581501,211,2026-10-07 21:31:51.973243,36.6,0.03962972104873273,0.40842221570506776,0.1550626472561733
0164,cdot_cos,R,Q-R,212,42,35918,0.11698777085860464,0.30761090584677925,0.14262714489582626,0.9946225739017287,840.0,6.322603179643104,0.6068851190590618,8.836382601140956,-0.18736773032326975,0.029,0.9999999999999223,-121.932855728827,1.053045693201779,212,2026-10-07 21:31:52.002244,36.6,0.4641992059533874,1.768551954884173,2.9894280594541054
0164,cdot_cos,S,R-S,213,42,35968,7.503989082545395e-06,-0.007572033890435838,-0.11698026686952209,0.013633771950317891,840.0,6.338485779302217,0.6069012754885215,8.857434400612751,-0.03460643594338065,0.05,0.9999999999999205,9455.139501066777,1.0580128448665254,213,2026-10-07 21:31:52.052243,36.6,0.012103686321127117,0.30777388417941864,0.3176519931822597
0164,cdot_cos,T,S-T,214,42,36196,-0.21017746510182467,-0.01150110662517019,-0.21018496909090723,0.00045590510289831383,840.0,6.353380568061046,0.6069018157457268,8.87821005894897,-0.03253298075017542,0.228,0.9999999999999181,3837.9038221824576,1.0629802282299747,214,2026-10-07 21:31:52.280244,36.6,0.9382545940160354,0.2248940215683454,0.0653280208720565
0164,cdot_cos,P,T-P,215,43,36598,0.06636019601331086,-0.004679406840659313,0.27653766111513556,0.999959786934821,858.0,6.441037453137382,0.6080861576994773,8.91629526569509,-0.19279989361598598,0.402,0.999999999999918,-135.32148579072728,1.0679478429949056,215,2026-10-07 21:31:52.682244,36.6,0.43550004464309927,0.13107454498621862,0.2180519529262105
0164,cdot_cos,Q,P-Q,216,43,36728,-0.022023889793382524,-0.0313855923133867,-0.08838408580669338,0.037874838769405464,858.0,6.458764502229966,0.6081309913616942,8.937665779158804,-0.039309912725131894,0.13,0.9999999999999157,3423.543232940653,1.0729150998983594,216,2026-10-07 21:31:52.812243,36.6,0.020148758424401784,0.4059443865202047,0.13636191609679352
0164,cdot_cos,R,Q-R,217,43,36758,0.12938494736805875,0.3305840795456726,0.15140883716144127,0.9960949167150279,858.0,6.546582993632636,0.6093094440192768,8.97569063970478,-0.19612061801937447,0.03,0.9999999999999151,-133.06491719058246,1.0778822240430392,217,2026-10-07 21:31:52.842243,36.6,0.44952555726249166,1.7253519093862006,2.9272830467556687
0164,cdot_cos,S,R-S,218,43,36808,-0.0001081568811932697,-0.0030101634713782153,-0.12949310424925203,0.00866768889364903,858.0,6.562285616793138,0.6093196929516743,8.996499504039553,-0.03534668543550877,0.05,0.9999999999999126,15686.895605095244,1.0828493761264457,218,2026-10-07 21:31:52.892244,36.6,0.010583206645145362,0.3073738337855225,0.31405246321003943
0164,cdot_cos,T,S-T,219,43,37037,-0.3104537344036956,0.02033723314500927,-0.31034557752250236,1.1668008174124894e-05,858.0,6.577320377011188,0.6093197067482082,9.017110274771822,-0.033922677334388245,0.229,0.9999999999999104,103214.91686692266,1.0878167717084706,219,2026-10-07 21:31:53.121243,36.6,0.9588908207632398,0.2264390066744593,0.06565397475131127
0164,cdot_cos,P,T-P,220,44,37456,0.05702213159918206,-0.0072005050921938275,0.3674758660028777,0.9999985581998738,859.0,6.66599468185004,0.6105014849773862,9.055202482741242,-0.2014334217363858,0.419,0.99999999999991,-141.74465247892996,1.0927844310016968,220,2026-10-07 21:31:53.540244,36.6,0.435354951442224,0.12841137552164386,0.21163318577291668
0164,cdot_cos,Q,P-Q,221,44,37587,-0.022588448734873527,-0.031612576051334246,-0.07961058033405559,0.05147815680958674,859.0,6.684929109698325,0.610562285845584,9.076663113610156,-0.043358676445958935,0.131,0.9999999999999081,2599.876448739549,1.0977516943329568,221,2026-10-07 21:31:53.671244,36.6,0.026101916057340063,0.4115878698945808,0.14453761716248453
0164,cdot_cos,R,Q-R,222,44,37616,0.13700160213655102,0.3249150394593407,0.15959005087142455,0.997102472799021,859.0,6.77383070376242,0.6117392837068159,9.114712265089832,-0.20499766073131487,0.029,0.9999999999999074,-137.3315870907259,1.1027188161764019,222,2026-10-07 21:31:53.700243,36.6,0.4545297787515329,1.8039340675536095,3.0655722091067137
0164,cdot_cos,S,R-S,223,44,37667,-0.00011831879877994742,-0.00423109913559741,-0.13711992093533096,0.006570395947964329,859.0,6.789557285616435,0.6117470352168667,9.135333582204915,-0.036545484201448944,0.051,0.9999999999999051,21731.53042763791,1.1076859700059285,223,2026-10-07 21:31:53.751244,36.6,0.00995794877817236,0.3032736129958321,0.3083643500787187
0164,cdot_cos,T,S-T,224,44,37895,-0.30345310485613264,0.022536468237744803,-0.3033347860573527,1.5081100042752121e-05,859.0,6.804764612287995,0.6117470530089255,9.155793750411004,-0.03541943380791165,0.228,0.9999999999999026,63289.4936181696,1.1126533752518681,224,2026-10-07 21:31:53.979244,36.6,0.968708168529243,0.23001447072480477,0.06669880119105358
0164,cdot_cos,P,T-P,225,45,38315,0.03262347015065458,-0.001714240227962787,0.3360765750067872,0.9999954501086078,859.0,6.894443884266946,0.6129261494268129,9.193894521836999,-0.21024904096871214,0.42,0.9999999999999024,-148.27422465929232,1.117621058603121,225,2026-10-07 21:31:54.399244,36.6,0.4353801102661922,0.13391863762105602,0.21352207614035895
0164,cdot_cos,Q,P-Q,226,45,38447,-0.027244777187581625,-0.04016156240645278,-0.0598682473382362,0.10054552301696582,859.0,6.917256267889682,0.6130446298927716,9.216083993563272,-0.05391570643082447,0.132,0.9999999999998992,1319.486155568625,1.1225883286904854,226,2026-10-07 21:31:54.531244,36.6,0.055045895151714104,0.42623669560625344,0.17282108805103255
0164,cdot_cos,R,Q-R,227,45,38477,0.1148505184458043,0.29888090349950147,0.1420952956333859,0.9945174527084232,859.0,7.006970371906997,0.6142158231840509,9.25409688167387,-0.2135215466651062,0.03,0.9999999999998992,-136.2762589426652,1.127555451059615,227,2026-10-07 21:31:54.561243,36.6,0.4735523084756066,1.7704677163160376,2.9904701339104873
0164,cdot_cos,S,R-S,228,45,38527,-0.00018047459732032403,-0.007658175672397497,-0.11503099304312461,0.014627241685921635,859.0,7.023484330868644,0.6142330391255802,9.274717907814031,-0.03960278140137006,0.05,0.9999999999998964,10102.193073033004,1.1325226038559058,228,2026-10-07 21:31:54.611244,36.6,0.012381157004453542,0.3194554355013679,0.3302791792329529
0164,cdot_cos,T,S-T,229,45,38756,-0.20228963507564407,-0.0009142417162022107,-0.20210916047832375,0.0006125940628833398,859.0,7.0389159154571335,0.614233760129075,9.29504586193618,-0.03709133137637748,0.229,0.9999999999998931,3483.270251970331,1.1374900221712148,229,2026-10-07 21:31:54.840243,36.6,0.9345315497526089,0.23166550173373657,0.06738683226414473
0164,cdot_cos,P,T-P,230,46,39174,0.03779619776113456,-0.002500042532130741,0.24008583283677865,0.9998473395149023,842.0,7.129587130662696,0.6154098781942992,9.33315537559512,-0.21933123213429626,0.418,0.9999999999998934,-154.95034567230562,1.1424577262894584,230,2026-10-07 21:31:55.258244,36.6,0.43566182542127896,0.1334272403711328,0.21691678278842633
0164,cdot_cos,Q,P-Q,231,46,39303,-0.032290885694123535,-0.04432580401128491,-0.0700870834552581,0.07141279415451794,842.0,7.1504610884074005,0.6154938294826743,9.354698887823908,-0.05088690245667836,0.129,0.9999999999998908,2006.453181813493,1.1474249973494999,231,2026-10-07 21:31:55.387244,36.6,0.03650994373586673,0.43318277146056433,0.16181362592794415
0164,cdot_cos,R,Q-R,232,46,39334,0.1259091098561416,0.31033575831520804,0.15819999555026512,0.996951704776907,842.0,7.241348285699521,0.6166651033992969,9.392765621511044,-0.22304388499611277,0.031,0.9999999999998899,-146.98268278341578,1.152392120355241,232,2026-10-07 21:31:55.418243,36.6,0.4621561258295032,1.7294581004189806,2.931845073939381
0164,cdot_cos,S,R-S,233,46,39386,4.610173722608901e-05,-0.005487015442150689,-0.12586300811891551,0.009887119605365308,842.0,7.257687490633377,0.6166767125797951,9.413164088028077,-0.04039590423466349,0.052,0.9999999999998874,15733.064085851129,1.1573592766152392,233,2026-10-07 21:31:55.470243,36.6,0.010873267677708371,0.3067325114537957,0.31421547949723055
0164,cdot_cos,T,S-T,234,46,39596,-0.2752329962322017,-0.004884076734546485,-0.2752790979694278,4.210866178908747e-05,842.0,7.273248466890716,0.6166767620223286,9.433343143497444,-0.03855650887064266,0.21,0.9999999999998849,37202.69236570994,1.1623266772126835,234,2026-10-07 21:31:55.680243,36.6,0.953413590863178,0.25530971244838585,0.07409988693970841
0164,cdot_cos,P,T-P,235,47,40016,0.05079560086572733,-0.0005256786366316009,0.32602859709792903,0.9999934277428214,879.0,7.364917569861699,0.6178502371759239,9.471467449329996,-0.22854458889902735,0.42,0.9999999999998843,-161.9020900837073,1.167294408231144,235,2026-10-07 21:31:56.100243,36.6,0.4354847659917454,0.1325354089955409,0.21825976897853167
0164,cdot_cos,Q,P-Q,236,47,40162,-0.02824359348643549,-0.04447364627283021,-0.07903919435216282,0.052508917484939646,879.0,7.38457821044697,0.6179118176545898,9.492544239890009,-0.04938663907675791,0.146,0.9999999999998802,2909.3302569846055,1.172261711510589,236,2026-10-07 21:31:56.246243,36.6,0.026578297017126013,0.3808905903881438,0.13466192181692507
0164,cdot_cos,R,Q-R,237,47,40190,0.1070126093355884,0.30743758536449556,0.13525620282202389,0.9929690455299551,879.0,7.476137622255037,0.6190756193187394,9.530550829307533,-0.23145665445763328,0.028,0.9999999999998803,-156.44419576759122,1.1772288288398634,237,2026-10-07 21:31:56.274244,36.6,0.45537827384941487,1.9435397375719659,3.2699789931452474
0164,cdot_cos,S,R-S,238,47,40245,0.0005035931980754512,-0.007641902684987677,-0.10650901613751294,0.019874755788263747,879.0,7.4934164357510005,0.6190988994648106,9.550995456633188,-0.04399867271977232,0.055,0.9999999999998773,8052.268278954585,1.1821959904003392,238,2026-10-07 21:31:56.329243,36.6,0.014114717990099954,0.30017746947772683,0.31416024538114845
0164,cdot_cos,T,S-T,239,47,40455,-0.23336314221298254,0.0036262326700297175,-0.23386673541105799,0.00019167406463559207,879.0,7.509157143897587,0.619099123978123,9.571043015993807,-0.04017045364206547,0.21,0.9999999999998742,17051.189691282234,1.1871634015238512,239,2026-10-07 21:31:56.539244,36.6,0.9091007327762233,0.25805322822443605,0.07495575307898472
0164,cdot_cos,P,T-P,240,48,40895,0.05093094969904841,9.34179618259496e-05,0.284294091912031,0.9999697251747086,879.0,7.601798791605264,0.6202697220858251,9.609180093033073,-0.23784744679172093,0.44,0.999999999999874,-168.86836895515748,1.1921311890553916,240,2026-10-07 21:31:56.979244,36.6,0.4355662696402119,0.1281133668509258,0.21054919933562807
0164,cdot_cos,Q,P-Q,241,48,41042,-0.02652617298933605,-0.043211764648570614,-0.07745712268838446,0.055465516622991345,879.0,7.621896906726402,0.6203346110756807,9.630185875801061,-0.05198128001878346,0.147,0.9999999999998707,2864.371400859131,1.1970985003197179,241,2026-10-07 21:31:57.126244,36.6,0.027997597140546126,0.3828295512738458,0.13672187157236973
0164,cdot_cos,R,Q-R,242,48,41072,0.10537749891406137,0.31893290058742974,0.1319036719033974,0.9920584565789814,879.0,7.714350679679774,0.6214944895599399,9.668188335289212,-0.24060115596688222,0.03,0.9999999999998701,-162.6203766238153,1.2020656197276451,242,2026-10-07 21:31:57.156243,36.6,0.4565977408692922,1.833380708184788,3.0817924317790775
0164,cdot_cos,S,R-S,243,48,41125,0.00041730928101880305,-0.00597938468911553,-0.10496018963304257,0.02100958806769427,879.0,7.731899749217489,0.6215190382348166,9.68852601025554,-0.04599601180839309,0.053,0.9999999999998668,7927.317671368562,1.2070327784549264,243,2026-10-07 21:31:57.209243,36.6,0.01453910400466114,0.31550941784429165,0.3311145195795275
0164,cdot_cos,T,S-T,244,48,41353,-0.2884599890344116,0.006515081805087439,-0.2888772983154304,2.559957730215284e-05,879.0,7.747794677971269,0.6215190681462893,9.708441252947097,-0.04175072042944123,0.228,0.9999999999998636,141928.5307484198,1.212000230277794,244,2026-10-07 21:31:57.437243,36.6,0.9033168770397264,0.24013894862134605,0.06971459979728051
0164,cdot_cos,P,T-P,245,49,41774,0.054209216377185614,-0.003558586424242127,0.34266920541159723,0.99999642554018,859.0,7.841403109788823,0.6226867929100499,9.746593097105894,-0.24731751081530365,0.421,0.9999999999998633,-176.04044785677596,1.2169680111724088,245,2026-10-07 21:31:57.858243,36.6,0.4355325478823567,0.13498931054589053,0.22234781904407092
0164,cdot_cos,Q,P-Q,246,49,41907,-0.025008846569945835,-0.03836989697667369,-0.07921806294713145,0.052184165804365176,859.0,7.861455677450909,0.622747690923858,9.767419115670437,-0.05336263572791099,0.133,0.9999999999998591,3184.9129874541245,1.2219353050665602,246,2026-10-07 21:31:57.991244,36.6,0.026392986815907644,0.4271257718363544,0.15077118542921775
0164,cdot_cos,R,Q-R,247,49,41938,0.11484555162476455,0.3239695163850461,0.13985439819471038,0.9940516244383336,859.0,7.955018565097293,0.6239069899952633,9.805471299926783,-0.25047989500950163,0.031,0.9999999999998584,-170.03141306983073,1.2269024251778233,247,2026-10-07 21:31:58.022244,36.6,0.45522730767229735,1.7870181063837374,3.018157666012397
0164,cdot_cos,S,R-S,248,49,41984,-0.0001598482321906013,-0.004464612346061272,-0.11500539985695515,0.01464074890353705,859.0,7.972250800046701,0.623924054002496,9.82556910353209,-0.046455245024094545,0.046,0.9999999999998556,11956.432460646794,1.2318695722283095,248,2026-10-07 21:31:58.068243,36.6,0.012377760552334529,0.36195232733942,0.37461380324798693
0164,cdot_cos,T,S-T,249,49,42214,-0.24393476057489308,-0.005074141689182576,-0.2437749123427025,0.000133381757741682,859.0,7.98831817921252,0.623924209459474,9.845361244516598,-0.043405540615573425,0.23,0.999999999999852,19617.67459022381,1.2368370395487942,249,2026-10-07 21:31:58.298244,36.6,0.9321507606060803,0.24049552645887115,0.06985817028617061
0164,cdot_cos,P,T-P,250,50,42633,0.04743678210046106,-0.0006969586726582605,0.29137154267535414,0.9999766338421547,820.0,8.082878742217781,0.6250889668313534,9.883527726605585,-0.2569051369479509,0.419,0.9999999999998513,-183.2996308818277,1.2418048417041752,250,2026-10-07 21:31:58.717243,36.6,0.4355940786735338,0.13794940706751704,0.22568153461876253
0164,cdot_cos,Q,P-Q,251,50,42767,-0.0267171194562446,-0.04636039607204903,-0.07415390155670566,0.06215037342345653,820.0,8.1039197823351,0.6251613110046077,9.9044213267265,-0.057571717888383986,0.134,0.9999999999998478,2755.348635457854,1.2467721431927163,251,2026-10-07 21:31:58.851244,36.6,0.03135599880088907,0.4291910489981401,0.15702268744266998
0164,cdot_cos,R,Q-R,252,50,42798,0.09237394525367115,0.3250444456427139,0.11909106470991575,0.9873670449300135,820.0,8.197901943349283,0.6263098725993739,9.94236451465726,-0.2586585897825644,0.031,0.9999999999998469,-175.07713370402058,1.2517392623676393,252,2026-10-07 21:31:58.882244,36.6,0.45958931779398055,1.8201955597882957,3.031682613360767
0164,cdot_cos,S,R-S,253,50,42843,0.00022963760173920443,-0.00550429077254522,-0.09214430765193195,0.03316663814920287,820.0,8.216771907041974,0.6263484292971371,9.962685175138752,-0.05229144658810227,0.045,0.9999999999998439,5352.30336534184,1.2567064077013017,253,2026-10-07 21:31:58.927244,36.6,0.01932259957659275,0.3900955039103001,0.4193325265042347
0164,cdot_cos,T,S-T,254,50,43073,-0.23225818340762727,-0.04245883347159277,-0.23248782100936646,0.00020159378249362824,820.0,8.23301053870121,0.6263486636479252,9.982358595731109,-0.04509587600033938,0.23,0.9999999999998394,30704.273050823005,1.2616738875162978,254,2026-10-07 21:31:59.157243,36.6,0.8525174420126477,0.24292296144652625,0.07060274634450629
0164,cdot_cos,P,T-P,255,51,43453,0.0378471983690716,0.0024818756280806857,0.27010538177669885,0.9999491132438142,838.0,8.328516469307376,0.6275103630791211,10.02054051923941,-0.26669217271255186,0.38,0.9999999999998392,-190.75183370287695,1.266641643867621,255,2026-10-07 21:31:59.537244,36.6,0.4356541264613657,0.15677834151097458,0.25133139633201484
0164,cdot_cos,Q,P-Q,256,51,43600,-0.024628041242948668,-0.04289486222169042,-0.06247523961202027,0.09223936202625357,838.0,8.35216207824955,0.6276174490413727,10.041882906409326,-0.06649562266213505,0.147,0.9999999999998351,1869.493870541291,1.2716089756756368,256,2026-10-07 21:31:59.684243,36.6,0.049258535671317195,0.4032728965947677,0.16085448259983023
0164,cdot_cos,R,Q-R,257,51,43627,0.09435756954127855,0.3266492874527403,0.11898561078422722,0.9873188118967484,838.0,8.447078700906237,0.6287628978588231,10.079839817915714,-0.26848168344282786,0.027,0.9999999999998346,-176.33791899169074,1.276576086692725,257,2026-10-07 21:31:59.711244,36.6,0.471268561165505,2.108175416674247,3.5154304687661724
0164,cdot_cos,S,R-S,258,51,43682,0.0006858494309863325,-0.00462776291576923,-0.09367172011029222,0.031420045421975386,838.0,8.46600355074996,0.6287993264936058,10.100016487423884,-0.05389153515145674,0.055,0.999999999999831,5890.699708385964,1.281543251064861,258,2026-10-07 21:31:59.766243,36.6,0.018650362581104512,0.32107115361021954,0.3440881789767758
0164,cdot_cos,T,S-T,259,51,43892,-0.29115815281422674,-0.03094004389224726,-0.29184400224521306,2.2965592324493857e-05,838.0,8.482396527803362,0.628799353119549,10.119571667077178,-0.04677910324554615,0.21,0.9999999999998268,267124.12946301326,1.2865107063918877,259,2026-10-07 21:31:59.976243,36.6,0.8589514054286167,0.2686794104905386,0.07806179549238801
0164,cdot_cos,P,T-P,260,52,44291,0.0683261874724057,-0.003905028970544518,0.35948434028663245,0.9999980683360693,821.0,8.578848903155986,0.6299579913573428,10.15777123789686,-0.2767137402717631,0.399,0.9999999999998265,-198.45248458574864,1.2914785223587144,260,2026-10-07 21:32:00.375243,36.6,0.4356362523528807,0.14522489290313492,0.24173527657299432
0164,cdot_cos,Q,P-Q,261,52,44422,-0.020860726047479898,-0.03262194791980643,-0.08918691351988559,0.03681851406052831,821.0,8.598285992340063,0.6300006223149279,10.177975524359882,-0.0561394884278025,0.131,0.9999999999998224,5174.039344607953,1.296445830772635,261,2026-10-07 21:32:00.506243,36.6,0.019662554863063706,0.44214353103049014,0.14837472659600717
0164,cdot_cos,R,Q-R,262,52,44452,0.12055080181195002,0.3576021861884439,0.14141152785942993,0.994379296688774,821.0,8.694690508285975,0.6311512131915413,10.216078890677476,-0.27995830325622684,0.03,0.9999999999998218,-194.52510825325078,1.3014129465778024,262,2026-10-07 21:32:00.536243,36.6,0.4495662881791831,1.899188696959886,3.2134838648637163
0164,cdot_cos,S,R-S,263,52,44502,0.00012527280762312097,-0.0029684654803838807,-0.1204255290043269,0.012038018562574733,821.0,8.712237314157656,0.6311651332134272,10.23578239736129,-0.05129082742312146,0.05,0.9999999999998177,16427.23536705982,1.3063801021322146,263,2026-10-07 21:32:00.586244,36.6,0.011582582513016465,0.3409437362195966,0.3509361174336334
0164,cdot_cos,T,S-T,264,52,44730,-0.3788897567167754,-0.02334555959115178,-0.37901502952439853,9.451227481022989e-07,821.0,8.728784881907934,0.6311651343063003,10.25522361879841,-0.04846470953095052,0.228,0.9999999999998136,2585952.4099078183,1.31134760389549,264,2026-10-07 21:32:00.814244,36.6,0.9433547229933686,0.24983163902776595,0.07257705153630697
0164,cdot_cos,P,T-P,265,53,45112,0.03239810448152875,0.0019741491510915994,0.4112878611983041,0.9999997099278088,839.0,8.826160541554318,0.6323207079476916,10.293439476306839,-0.28668232069575544,0.382,0.9999999999998129,-206.14662937274537,1.3163154107827038,265,2026-10-07 21:32:01.196243,36.6,0.43563685184576045,0.15972785419940536,0.25491010378634366
0164,cdot_cos,Q,P-Q,266,53,45258,-0.027946917758125148,-0.047845611195471684,-0.0603450222396539,0.09897837968453067,839.0,8.85081696251628,0.6324350024102313,10.314706990527274,-0.07308573058582873,0.146,0.9999999999998084,1868.8271099367823,1.3212827551140534,266,2026-10-07 21:32:01.342243,36.6,0.05379641390363075,0.4165425706865125,0.16887959562987953
0164,cdot_cos,R,Q-R,267,53,45285,0.09761769286594592,0.33464832001668743,0.12556461062407107,0.9900053930571118,839.0,8.94779097219478,0.6335773822354649,10.352744025970997,-0.28904653150252535,0.027,0.9999999999998079,-189.04465585475526,1.3262498640539162,267,2026-10-07 21:32:01.369244,36.6,0.47371523404495325,2.148687855406681,3.591629988092564
0164,cdot_cos,S,R-S,268,53,45341,0.0011641443229549386,-0.008019498987544678,-0.09645354854299099,0.02846505961967186,839.0,8.96684610670824,0.6336102063007465,10.372650416024054,-0.057164984795524384,0.056,0.9999999999998034,7064.376234865194,1.3312170322876113,268,2026-10-07 21:32:01.425244,36.6,0.017311983860145073,0.319409056019412,0.3402702591689558
0164,cdot_cos,T,S-T,269,53,45551,-0.2636265175286929,-0.03455458784154889,-0.26479066185164785,6.181280350611818e-05,839.0,8.983564786468953,0.6336102775779233,10.391985533172795,-0.050255825673602546,0.21,0.9999999999997994,96933.68101054887,1.3361845110546666,269,2026-10-07 21:32:01.635243,36.6,0.8715519853534704,0.2738540370156359,0.07961276076529819
0164,cdot_cos,P,T-P,270,54,45951,0.03744243374645218,0.0024054894254850116,0.3010689512751451,0.9999836149299713,819.0,9.081864802254808,0.6347626050034101,10.430218309366749,-0.2969838839019697,0.4,0.9999999999997985,-214.11280576277568,1.3411523790337325,270,2026-10-07 21:32:02.035244,36.6,0.4357096127502105,0.15302573510213024,0.24575003946463614
0164,cdot_cos,Q,P-Q,271,54,46098,-0.025943615246659793,-0.048488359232101805,-0.06338604899311198,0.08948581207907826,819.0,9.105985374550658,0.6348656486614814,10.451212137677453,-0.07335808716069049,0.147,0.9999999999997939,2170.2043670309827,1.3461197328206078,271,2026-10-07 21:32:02.182244,36.6,0.047434110223589156,0.4131160445659351,0.1640855258221071
0164,cdot_cos,R,Q-R,272,54,46125,0.08536798145797009,0.33650763968703695,0.11131159670462988,0.9832753323315997,819.0,9.203320919357193,0.6359970830253864,10.489137193972638,-0.29761016963743825,0.027,0.9999999999997933,-198.20158343324556,1.3510868406190752,272,2026-10-07 21:32:02.209243,36.6,0.4707116999831443,2.182944958261784,3.605020178019821
0164,cdot_cos,S,R-S,273,54,46180,0.0014909756613459741,-0.00777746735380112,-0.08387700579662412,0.044366134488902496,819.0,9.223864402296794,0.636048098871777,10.509243921272391,-0.06321374912883299,0.055,0.9999999999997885,4594.580646837701,1.3560540077321093,273,2026-10-07 21:32:02.264243,36.6,0.02452658987424585,0.34053068555728316,0.3735178716291123
0164,cdot_cos,T,S-T,274,54,46391,-0.209213695059311,-0.04227031230925954,-0.210704670720657,0.00044731909116300776,819.0,9.240779294768494,0.636048613220645,10.528482548027926,-0.052154093901174044,0.211,0.999999999999784,21502.244715576497,1.361021500719509,274,2026-10-07 21:32:02.475244,36.6,0.8089183624176468,0.27517339700593846,0.08016536716445484
0164,cdot_cos,P,T-P,275,55,46770,0.036735716166571515,0.002040743998889252,0.2459494112258825,0.9998768209583109,819.0,9.3399875758333,0.637197540345463,10.566730479536346,-0.30739747436016185,0.379,0.9999999999997834,-222.1580246000422,1.3659893504535652,275,2026-10-07 21:32:02.854244,36.6,0.4359025272590403,0.16334217795161554,0.2617632745773247
0164,cdot_cos,Q,P-Q,276,55,46903,-0.025635146921856915,-0.04518495164715922,-0.06237086308842843,0.09255972923568759,819.0,9.364592665655818,0.6373038188714912,10.587691062235953,-0.07673737192127501,0.133,0.9999999999997787,2170.335918826399,1.3709566822631598,276,2026-10-07 21:32:02.987243,36.6,0.049497262177665445,0.46239156251898433,0.18500067535728212
0164,cdot_cos,R,Q-R,277,55,46936,0.0889612511951144,0.32143727648459264,0.11459639811697131,0.9851417192345258,819.0,9.46298373146335,0.6384341408969165,10.625666662830923,-0.30845940665629157,0.033,0.999999999999778,-205.00532549370598,1.3759238020350688,277,2026-10-07 21:32:03.020243,36.6,0.47178884383654895,1.7961909285872395,2.98154744871307
0164,cdot_cos,S,R-S,278,55,46980,0.00016682610957744824,-0.004238493761396288,-0.08879442508553695,0.03733134486972322,819.0,9.483141266942576,0.6384769437323851,10.645542950376639,-0.06358923051609114,0.044,0.9999999999997731,5720.886793123826,1.380890946517548,278,2026-10-07 21:32:03.064243,36.6,0.021262462902106472,0.42283717445816427,0.45812580634605676
0164,cdot_cos,T,S-T,279,55,47210,-0.24273618343038023,-0.043658126835113366,-0.24290300953995766,0.00013770623620911601,819.0,9.500193402815668,0.6384771016175482,10.664675062976052,-0.05389853592871444,0.23,0.999999999999768,61378.12061043046,1.3858584931829458,279,2026-10-07 21:32:03.294244,36.6,0.8354413458938726,0.25473235214957857,0.07413972118735633
0164,cdot_cos,P,T-P,280,56,47589,0.04753843644448277,-0.0060940235023094055,0.290274619874863,0.9999756766900698,819.0,9.600318148931382,0.6396228192636791,10.702941893798597,-0.31798898180691765,0.379,0.9999999999997676,-230.50220686574508,1.3908263677943389,280,2026-10-07 21:32:03.673243,36.6,0.4358304986385924,0.160625602720315,0.2641813881681114
0164,cdot_cos,Q,P-Q,281,56,47718,-0.030664739123518858,-0.04400828314104335,-0.07820317556800163,0.054052246821650385,819.0,9.621947609677667,0.6396847042409911,10.723074794206234,-0.06912632101922878,0.129,0.9999999999997624,4021.3743560599255,1.3957936974996017,281,2026-10-07 21:32:03.802243,36.6,0.027320597951301987,0.4721493915325386,0.1676702383432913
0164,cdot_cos,R,Q-R,282,56,47748,0.12011491753869162,0.3277272745592859,0.1507796566622105,0.9960043105139889,819.0,9.722132691946777,0.6408242073434849,10.76127359958833,-0.32176701376831307,0.03,0.9999999999997616,-221.71128116824406,1.400760810029823,282,2026-10-07 21:32:03.832243,36.6,0.4560437461304237,1.9738889289638333,3.3395027423036794
0164,cdot_cos,S,R-S,283,56,47799,0.0002285959009730747,-0.005687268670068616,-0.11988632163771855,0.012275003313602817,819.0,9.740380945415497,0.640838240985421,10.78057306485507,-0.05896621860043245,0.051,0.9999999999997561,18726.485709468576,1.4057279703696253,283,2026-10-07 21:32:03.883244,36.6,0.011599392190611795,0.34750073871202136,0.3578088915435218
0164,cdot_cos,T,S-T,284,56,48027,-0.28117215774245863,-0.02703592300036922,-0.2814007536434317,3.365660484263477e-05,819.0,9.757577767295404,0.6408382794636732,10.799603872033046,-0.05566989110167287,0.228,0.9999999999997518,85667.28751729771,1.4106955261756624,284,2026-10-07 21:32:04.111244,36.6,0.9425069042215863,0.25924462529577186,0.07542465736801125
0164,cdot_cos,P,T-P,285,57,48408,0.05304811174173665,-0.00029894931261033526,0.33422026948419525,0.9999951302440393,840.0,9.858596494550369,0.6419807323720146,10.837887460168414,-0.3285405652350859,0.381,0.9999999999997508,-238.846321052806,1.4156634297730337,285,2026-10-07 21:32:04.492243,36.6,0.4358077905219359,0.1613579288291095,0.26514101641723203
0164,cdot_cos,Q,P-Q,286,57,48554,-0.024437298249314884,-0.04139562651805382,-0.07748540999105154,0.055411302350594535,840.0,9.880532509063185,0.6420439904965876,10.857954604524062,-0.07178350494655003,0.146,0.9999999999997451,4058.8787925943825,1.4206308043650409,286,2026-10-07 21:32:04.638243,36.6,0.02796433442806434,0.4195525419626821,0.1502466747453152
0164,cdot_cos,R,Q-R,287,57,48580,0.10135247924528007,0.33713508155968347,0.12578977749459497,0.9900866080439095,840.0,9.981105836803472,0.6431734483133328,10.896054751951004,-0.3306949451410946,0.026,0.9999999999997442,-229.23515721964094,1.4255979067152582,287,2026-10-07 21:32:04.664243,36.6,0.4570642299259971,2.3081876291306878,3.868204913087968
0164,cdot_cos,S,R-S,288,57,48638,0.000873826351595891,-0.005703132387601106,-0.10047865289368418,0.024662042917578567,840.0,10.00055826577798,0.6432015617045951,10.915498012484557,-0.06434577732507035,0.058,0.999999999999739,9474.103118012305,1.4305650837560393,288,2026-10-07 21:32:04.722244,36.6,0.015933334859969617,0.31724894042556867,0.33538670645704494
0164,cdot_cos,T,S-T,289,57,48848,-0.3004591984558833,-0.02647753182312486,-0.3013330248074792,1.622747222635172e-05,840.0,10.017906713892838,0.6432015802027085,10.934432432521549,-0.05749180878322429,0.21,0.9999999999997333,370522.57184950844,1.4355326115669573,289,2026-10-07 21:32:04.932243,36.6,0.8876156679932229,0.2839354337686625,0.08261165768979696
0164,cdot_cos,P,T-P,290,58,49248,0.037100858418300596,0.0020348513244677364,0.3375600568741839,0.999995690559131,839.0,10.119811147960819,0.6443406884393761,10.972732191402391,-0.3392325101635149,0.4,0.9999999999997328,-247.3344431293909,1.4405005843332421,290,2026-10-07 21:32:05.332243,36.6,0.435820907598076,0.15924774740778913,0.2547610851699522
0164,cdot_cos,Q,P-Q,291,58,49381,-0.024446461871016227,-0.039961522092301444,-0.06154732028931682,0.09512268232301957,839.0,10.14530491181907,0.6444489590877582,10.993481553454686,-0.08539216387991377,0.133,0.9999999999997271,2344.4982557752655,1.4454679360670069,291,2026-10-07 21:32:05.465244,36.6,0.051167937813848215,0.47782468199775247,0.1916824350244392
0164,cdot_cos,R,Q-R,292,58,49412,0.10689344871239422,0.33913869378939665,0.13133991058341044,0.9918942332360947,839.0,10.246912513372221,0.6455770719040305,11.031631737071546,-0.3419833364640855,0.031,0.9999999999997263,-227.4516953296029,1.4504350490195805,292,2026-10-07 21:32:05.496243,36.6,0.47222337930229924,1.9484729618402046,3.277664566230701
0164,cdot_cos,S,R-S,293,58,49458,-4.423080545219542e-07,-0.003611106249772217,-0.10689389102044873,0.019602203679960288,839.0,10.266110235453162,0.6455993498518776,11.05088670518251,-0.06499522969785063,0.046,0.9999999999997204,12433.28643493889,1.455402198651995,293,2026-10-07 21:32:05.542243,36.6,0.014098762528201381,0.39895837625636904,0.4173417843682815
0164,cdot_cos,T,S-T,294,58,49686,-0.2863281293519976,-0.0241088922270528,-0.28632768704394307,2.810335905170379e-05,839.0,10.283616683987807,0.6455993817909539,11.069729362198709,-0.05937535596278851,0.228,0.9999999999997149,175956.0510482586,1.4603697820837014,294,2026-10-07 21:32:05.770243,36.6,0.9096913274931033,0.2638026784201983,0.07678266901160088
0164,cdot_cos,P,T-P,295,59,50087,0.03694004987810728,-0.0028232275164759373,0.32326817923010487,0.9999927290429461,800.0,10.386404256812773,0.6467350359343828,11.108045043119008,-0.35014897928619326,0.401,0.999999999999714,-256.0406484719685,1.465337784314394,295,2026-10-07 21:32:06.171244,36.6,0.43586256427498016,0.15801536231841326,0.25632811178295617
0164,cdot_cos,Q,P-Q,296,59,50217,-0.0319734583570764,-0.04833544302989469,-0.06891350823518368,0.07431409105129871,800.0,10.410345004567175,0.6468193657466665,11.128307365465275,-0.08204602643281922,0.13,0.9999999999997076,3179.219134878942,1.4703051355173393,296,2026-10-07 21:32:06.301243,36.6,0.03809340746263613,0.4871127136426209,0.1841595981107848
0164,cdot_cos,R,Q-R,297,59,50245,0.11043261024650211,0.3301982482297979,0.14240606860357852,0.9945791233539978,800.0,10.513053562359854,0.6479471083811983,11.166524536683777,-0.3536150203540937,0.028,0.9999999999997069,-240.80759705784575,1.4752722401849518,297,2026-10-07 21:32:06.329243,36.6,0.463949653456127,2.176869156547832,3.6681627783099784
0164,cdot_cos,S,R-S,298,59,50297,0.0005969429714494083,-0.007731576064293951,-0.1098356672750527,0.017636592905095082,800.0,10.532249677333853,0.6479670914906895,11.185652558125863,-0.06647361095751815,0.052,0.9999999999997006,14369.20562949913,1.4802394047668441,298,2026-10-07 21:32:06.381243,36.6,0.013304804349810184,0.3545187483759299,0.36915605719229233
0164,cdot_cos,T,S-T,299,59,50525,-0.23232497944297228,-0.03951711293189129,-0.2329219224144217,0.00019841677865935564,800.0,10.54992351219095,0.6479673163035127,11.204408608020797,-0.06130936237073834,0.228,0.9999999999996948,22971.325722256708,1.48520700213673,299,2026-10-07 21:32:06.609244,36.6,0.9192173974166281,0.2660792421531493,0.07751681954867326
0164,cdot_cos,P,T-P,300,60,50887,0.04940694134908609,-0.0008091209239248141,0.2817319207920584,0.999966748861561,819.0,10.65358181175569,0.6490994773824185,11.242739137817019,-0.3611198715413695,0.362,0.9999999999996942,-264.8125913853101,1.4901749348790887,300,2026-10-07 21:32:06.971244,36.6,0.4359514713898932,0.17525631049486334,0.28634889382524475
0164,cdot_cos,Q,P-Q,301,60,51020,-0.024051043361687674,-0.04104924714781922,-0.07345798471077376,0.0636516552415411,819.0,10.676809080989232,0.6491714870879656,11.262710946845061,-0.08139463491363381,0.133,0.9999999999996878,3884.5490965763643,1.495142300382073,301,2026-10-07 21:32:07.104243,36.6,0.03217213805426747,0.47431479079863614,0.1746411220567102
0164,cdot_cos,R,Q-R,302,60,51050,0.09479073900024282,0.32440686803023405,0.11884178236193049,0.9872527337761577,819.0,10.779749546108127,0.6502875039439637,11.30079860410057,-0.36233235351550125,0.03,0.9999999999996867,-251.7325048380192,1.5001094091226104,302,2026-10-07 21:32:07.134243,36.6,0.46053833246931086,2.0566471590551734,3.4313488372964924
0164,cdot_cos,S,R-S,303,60,51096,0.00016072665007539532,-0.0045637819427618055,-0.09463001235016742,0.030370024275387007,819.0,10.800207910532542,0.6503218090200237,11.320090212403379,-0.07242072614506867,0.046,0.9999999999996804,8450.98337236769,1.5050765593684237,303,2026-10-07 21:32:07.180243,36.6,0.01825788476317098,0.4163609024400789,0.4447470527046874
0164,cdot_cos,T,S-T,304,60,51326,-0.21010018842801773,-0.03369557588471838,-0.2102609150780931,0.0004546401934691575,819.0,10.818054749132614,0.6503223225562442,11.338763800365875,-0.06328826624731211,0.23,0.9999999999996737,17783.477644509774,1.510044176165459,304,2026-10-07 21:32:07.410244,36.6,0.8656285256945666,0.2660195130064696,0.07759495043509407
0164,cdot_cos,P,T-P,305,61,51706,0.0627673062321176,-0.004798589726091976,0.2728674946601353,0.9999540058479899,839.0,10.922576886515518,0.6514509694684596,11.377108842548786,-0.37219489337464146,0.38,0.9999999999996732,-273.6964269197269,1.515012179534593,305,2026-10-07 21:32:07.790244,36.6,0.4360670175346963,0.1654088846429147,0.27505825627080105
0164,cdot_cos,Q,P-Q,306,61,51836,-0.025568369018006503,-0.037420571115746204,-0.0883356752501241,0.037939457609899425,839.0,10.943765501461229,0.6514937583436342,11.39649327336098,-0.0758829209931959,0.13,0.9999999999996662,6924.976905147398,1.5199795441981403,306,2026-10-07 21:32:07.920243,36.6,0.020143830298248483,0.4833513112757123,0.16298934573623677
0164,cdot_cos,R,Q-R,307,61,51866,0.12027762485708306,0.3124953357059235,0.14584599387508956,0.9952173357516041,839.0,11.048248227447203,0.6526153100107757,11.434751020460544,-0.37576971342592724,0.03,0.9999999999996653,-267.3856240587347,1.5249466519848813,307,2026-10-07 21:32:07.950243,36.6,0.4502014905073673,2.0586072883987803,3.482757532865814
0164,cdot_cos,S,R-S,308,61,51915,-1.4232946597096421e-05,-0.006016810494950831,-0.12029185780368015,0.012096343104012279,839.0,11.067281938765156,0.6526289314996822,11.453598303222336,-0.0688375381837332,0.049,0.9999999999996584,22532.938752088536,1.529913810323774,308,2026-10-07 21:32:07.999244,36.6,0.011576354081360091,0.37743739031863427,0.38844308812147743
0164,cdot_cos,T,S-T,309,61,52144,-0.2780943668937938,-0.007300523737440326,-0.2780801339471967,3.8005833037820704e-05,839.0,11.08523709169843,0.6526289742970189,11.472177497747172,-0.06504541847563938,0.229,0.9999999999996518,88606.44126274883,1.5348814386826386,309,2026-10-07 21:32:08.228243,36.6,0.9433673037439626,0.2692870958756688,0.0784067813680077
0164,cdot_cos,P,T-P,310,62,52545,0.05174607469655901,-0.006624105659052131,0.3298404415903528,0.9999942835688874,859.0,11.190615428676212,0.6537541853168619,11.510537383360157,-0.38329136282576515,0.401,0.999999999999651,-282.83223212170225,1.5398495229121714,310,2026-10-07 21:32:08.629244,36.6,0.43591948539215186,0.16040361825522093,0.2627888702687844
0164,cdot_cos,Q,P-Q,311,62,52675,-0.023577828370691715,-0.03250860890986836,-0.07532390306725073,0.05970067928310832,859.0,11.213880793539117,0.6538213073368496,11.530271741749017,-0.08510379788616942,0.13,0.9999999999996435,4442.470071583057,1.5448168940595883,311,2026-10-07 21:32:08.759244,36.6,0.030082540790174032,0.4952304017044854,0.1789643450992665
0164,cdot_cos,R,Q-R,312,62,52705,0.13569387643907999,0.3177614378182474,0.1592717048097717,0.9970686144580224,859.0,11.319375333119378,0.6549414139765147,11.568579349663182,-0.3875194994392742,0.03,0.9999999999996427,-269.9883125802394,1.5497840006879589,312,2026-10-07 21:32:08.789243,36.6,0.4582280253210715,2.0704327376452154,3.5164846526753855
0164,cdot_cos,S,R-S,313,62,52755,-9.864334879664959e-05,-0.0025708435651470344,-0.13579251978787663,0.006895230510897752,859.0,11.33810675779783,0.6549491541075096,11.587240839316301,-0.06918591242940259,0.05,0.9999999999996357,41127.67435318443,1.5547511620310743,313,2026-10-07 21:32:08.839243,36.6,0.010040453145348448,0.36829774067657084,0.37462849356902694
0164,cdot_cos,T,S-T,314,62,52983,-0.31828215801357657,0.026892100188478308,-0.3181835146647799,8.758154095402574e-06,859.0,11.356205107187035,0.6549491639387834,11.605736229009338,-0.0669562629220963,0.228,0.9999999999996282,226791.5179442069,1.5597188019079071,314,2026-10-07 21:32:09.067244,36.6,0.9672482555736047,0.2726436225854338,0.07937872539125324
0164,cdot_cos,P,T-P,315,63,53404,0.04603285309560624,-0.005237077242601003,0.3643150111091828,0.9999983813709384,860.0,11.462432249696787,0.6560708245984623,11.64410961657921,-0.39453840005436347,0.421,0.9999999999996272,-292.0510176634413,1.5646869678709712,315,2026-10-07 21:32:09.488243,36.6,0.43592191236316297,0.1550928136727792,0.2523210035861094
0164,cdot_cos,Q,P-Q,316,63,53537,-0.024645522547232998,-0.03786299524341789,-0.07067837564283924,0.06999093833403566,860.0,11.486793256299515,0.6561492658521462,11.6639723202996,-0.09098720873378871,0.133,0.9999999999996205,3869.790155879732,1.569654353623296,316,2026-10-07 21:32:09.621243,36.6,0.03557200509796904,0.49036815324242916,0.18316546317840599
0164,cdot_cos,R,Q-R,317,63,53568,0.11543620819354618,0.3278959532118488,0.14008173074077918,0.9941006210372033,860.0,11.592870178459274,0.6572624675802812,11.7022334340791,-0.39782786612269555,0.031,0.9999999999996193,-275.63796357284707,1.574621461631849,317,2026-10-07 21:32:09.652243,36.6,0.4624161636001069,2.0261034204496995,3.4218361987018766
0164,cdot_cos,S,R-S,318,63,53614,-0.0001351239008692676,-0.003660942291072359,-0.11557133209441545,0.014344917861323036,860.0,11.612411668367397,0.6572785185114537,11.720962905425584,-0.0736851227485899,0.046,0.9999999999996118,20194.637924128765,1.5795886121205893,318,2026-10-07 21:32:09.698244,36.6,0.01228930842913373,0.41073464216802846,0.4248149980026785
0164,cdot_cos,T,S-T,319,63,53843,-0.2938855212351978,-0.004485083072390095,-0.2937503973343285,2.1417848092767768e-05,860.0,11.630657765538732,0.657278542476216,11.739378059249693,-0.06891261923179647,0.229,0.9999999999996041,199146.70798286452,1.584556268984936,319,2026-10-07 21:32:09.927244,36.6,0.9330892527505444,0.2736169010722021,0.07967728022417207
0164,cdot_cos,P,T-P,320,64,54264,0.030067433666951117,0.001795795069393962,0.3239529549021489,0.9999929090074938,857.0,11.737728209058465,0.6583965743030972,11.777764010506038,-0.40593118228956065,0.421,0.999999999999603,-301.4391495436176,1.589524464408173,320,2026-10-07 21:32:10.348243,36.6,0.4359465175589476,0.16299094659160726,0.25432409387110017
0164,cdot_cos,Q,P-Q,321,64,54414,-0.021140819447649433,-0.04118773701439979,-0.051208253114600547,0.13305394996688763,857.0,11.767896142568866,0.6585452016102687,11.798815530683203,-0.11502191536680989,0.15,0.9999999999995953,1957.3069879205943,1.5944919047975021,321,2026-10-07 21:32:10.498244,36.6,0.07972565737345895,0.45148665712967906,0.201119556736001
0164,cdot_cos,R,Q-R,322,64,54443,0.07969628819038217,0.311864388563304,0.10083710763803161,0.9756515696648679,857.0,11.873174206197369,0.6596340958097167,11.836719024158754,-0.40308670433870386,0.029,0.9999999999995941,-264.54800578233255,1.599459005781653,322,2026-10-07 21:32:10.527244,36.6,0.48936472392926783,2.2137366562385967,3.630278056155295
0164,cdot_cos,S,R-S,323,64,54493,0.0007116893166182787,-0.0063646089393884445,-0.0789845988737639,0.05260842006032637,857.0,11.896292868630704,0.6596927626664024,11.856139139747937,-0.08898965807586773,0.05,0.9999999999995866,5353.9095838257235,1.6044261675607494,323,2026-10-07 21:32:10.577244,36.6,0.029316920492837836,0.4156124922303128,0.46237324866670093
0164,cdot_cos,T,S-T,324,64,54723,-0.20900301255739773,-0.028763086073404397,-0.209714701874016,0.00046381628925212066,857.0,11.9147354554204,0.6596932798744538,11.874487430608623,-0.07111432882529228,0.23,0.9999999999995786,34561.19680007945,1.6093938422542475,324,2026-10-07 21:32:10.807244,36.6,0.7777419887911844,0.27467637210208995,0.08018515995520102
0164,cdot_cos,P,T-P,325,65,55121,0.03647569920655914,-0.0024882866341646107,0.24547871176395686,0.9998746807626664,841.0,12.022643999797666,0.6608073678532771,11.912882761775567,-0.41763609259712275,0.398,0.9999999999995776,-311.0362649616157,1.6143620025854077,325,2026-10-07 21:32:11.205244,36.6,0.4361706191298017,0.16680626053516526,0.2711269959227768
0164,cdot_cos,Q,P-Q,326,65,55252,-0.03369696705448361,-0.046753307549155486,-0.07017266626104275,0.07120535853460083,841.0,12.047513238806392,0.6608866391193128,11.93262771900152,-0.09677379269722709,0.131,0.9999999999995688,4047.649494527486,1.6193293965871494,326,2026-10-07 21:32:11.336244,36.6,0.03631258757861592,0.5068737039515405,0.18984151915058317
0164,cdot_cos,R,Q-R,327,65,55281,0.11747791556503194,0.2970019691992967,0.15117488261951556,0.996061467209054,841.0,12.15544491023297,0.6619945838634717,11.970950452139839,-0.42163799197662205,0.029,0.9999999999995678,-293.21335833045055,1.6242964963419415,327,2026-10-07 21:32:11.365243,36.6,0.4627902615668303,2.201933196742904,3.7217817733302487
0164,cdot_cos,S,R-S,328,65,55332,8.558832456731291e-05,-0.009014035683586002,-0.11739232724046463,0.013432439388094913,841.0,12.17522536421748,0.6620095130046736,11.989511056210704,-0.07767898816293634,0.051,0.99999999999956,23039.436707121764,1.6292636615083214,328,2026-10-07 21:32:11.416243,36.6,0.011938888989620524,0.3762851280020601,0.38785203891198483
0164,cdot_cos,T,S-T,329,65,55560,-0.20215877504512472,-0.011196370865176579,-0.20224436336969204,0.0006095720177947367,841.0,12.19382599328918,0.6620101904902465,12.007786137897504,-0.07316090666494543,0.228,0.9999999999995508,6668.896990514493,1.6342313451757406,329,2026-10-07 21:32:11.644243,36.6,0.940112804577153,0.27926578332184626,0.08158170645481976
0164,cdot_cos,P,T-P,330,66,55962,0.05964222449315758,-0.0035548847889575034,0.2618009995382823,0.9999310401112846,858.0,12.302570561412242,0.663120629345133,12.046193448922955,-0.42926058686941915,0.402,0.9999999999995501,-320.6837356576829,1.6391995456873487,330,2026-10-07 21:32:12.046243,36.6,0.43623888559012874,0.16275371440401024,0.27050887592801737
0164,cdot_cos,Q,P-Q,331,66,56095,-0.028253075669030223,-0.04421978787738744,-0.0878953001621878,0.03853215679598592,858.0,12.324679979670004,0.6631633839846849,12.065209557304415,-0.08773594761804132,0.133,0.9999999999995409,7988.013530960217,1.6441669524156937,331,2026-10-07 21:32:12.179244,36.6,0.020391399647587058,0.4908483879452405,0.16623622750196426
0164,cdot_cos,R,Q-R,332,66,56128,0.1062931910493798,0.30673799501708604,0.13454626671841002,0.9927852967484463,858.0,12.433136232605676,0.664264039793544,12.103476159295965,-0.43196623877233264,0.033,0.9999999999995399,-312.75016983838844,1.6491340627615354,332,2026-10-07 21:32:12.212243,36.6,0.45072780622714814,1.9540795106394708,3.28655311926281
0164,cdot_cos,S,R-S,333,66,56172,-0.00020024854993501074,-0.005509563552882376,-0.10649343959931482,0.019885864259260796,858.0,12.453649227372209,0.6642860681736195,12.122092556036028,-0.08212339526717946,0.044,0.9999999999995314,15881.46029378677,1.6541012072381778,333,2026-10-07 21:32:12.256243,36.6,0.014122787415438896,0.4456435860588788,0.46620442651209876
0164,cdot_cos,T,S-T,334,66,56402,-0.23243747842652857,-0.006756692587132567,-0.23223722987659356,0.0002034508541825768,858.0,12.472352868178858,0.6642862935407053,12.140284374395442,-0.0749976556762,0.23,0.9999999999995225,31618.368596684417,1.6590689114331068,334,2026-10-07 21:32:12.486243,36.6,0.9093612662962663,0.2788553662688935,0.081320177420213
0164,cdot_cos,P,T-P,335,67,56820,0.06600758120542409,-0.003057786234645371,0.29844505963195267,0.9999819633943751,859.0,12.5819226958559,0.6653930904197819,12.178702701026708,-0.4408900373601207,0.418,0.9999999999995209,-330.586748662681,1.6640371888352083,335,2026-10-07 21:32:12.904243,36.6,0.43609512916383153,0.1574830645705326,0.26212877434699056
0164,cdot_cos,Q,P-Q,336,67,56955,-0.02345566640164198,-0.03679115387468803,-0.08946324760706607,0.03646152366993396,859.0,12.604008710159823,0.6654334123700316,12.197605710247897,-0.0893319938279784,0.135,0.9999999999995112,8718.775787254128,1.669004608441093,336,2026-10-07 21:32:13.039244,36.6,0.01953768248701799,0.4867887332489744,0.1636001059549867
0164,cdot_cos,R,Q-R,337,67,56985,0.11455633368377564,0.33753283528803035,0.1380120000854176,0.9936393213230551,859.0,12.713355653833123,0.6665313233669152,12.235898443834397,-0.4438589732202431,0.03,0.9999999999995098,-322.9104912862513,1.6739717083659937,337,2026-10-07 21:32:13.069243,36.6,0.4498964250594461,2.159201427478615,3.6448981224433297
0164,cdot_cos,S,R-S,338,67,57031,-4.5252436499960024e-05,-0.0015810091692206928,-0.1146015861202756,0.014855501637185698,859.0,12.73356079580854,0.666547724132793,12.254340665253308,-0.08243402886136607,0.046,0.999999999999501,22037.077234900156,1.6789388587177874,338,2026-10-07 21:32:13.115244,36.6,0.012470188362120466,0.42422040432538893,0.43924221685689147
