record_id,input,event,transition,event_index,k,peak,value_cos,value_sin,value_return,x_input,rr,knowledge,decision,decision_norm,entropy,delta_t,cosine_similarity,delta_h_over_delta_d,frobenius_norm,matrix_size,timestamp,scale,P,zdot,zdot_back
0002,cdot_cos,Q,P-Q,1,0,1381,-0.00905017651214272,-0.006227257493811914,-0.018619047126490006,0.2319728526538631,919.0,0.001152241990275631,0.5002880604656984,0.5002880604656984,,,1.0,,0.004967141530112327,1,2026-10-07 19:46:17.465244,64.3,,,
0002,cdot_cos,R,Q-R,2,0,1433,0.09596913496880188,0.14639128742937896,0.10501931148094461,0.9988336880879813,919.0,0.008645922294499718,0.5015283928105838,0.7092682550279087,-1.3240987395135105e-05,,1.0,,0.009934283060224654,2,2026-10-07 19:46:17.517244,64.3,,,
0002,cdot_cos,S,R-S,3,0,1481,-0.003543808347626568,-0.012114881525391724,-0.09951294331642845,0.0016609847643409303,919.0,0.010603339007790227,0.5015304553778861,0.8686762302576544,-6.794818227072119e-06,0.048,1.0,3.125313370826624,0.014901424597396443,3,2026-10-07 19:46:17.565243,64.3,0.3872483814650373,0.06008007151815597,0.04077951486021892
0002,cdot_cos,T,S-T,4,0,1731,-0.023370394186021243,0.0034954034741924486,-0.019826585838394674,0.218428233190553,919.0,0.014413609160242691,0.5018016933466944,1.0036033866940062,-1.7189728223237504e-05,0.25,1.0000000000000002,-0.03832394867810819,0.01986856617620655,4,2026-10-07 19:46:17.815244,64.3,0.5462293334844562,0.03121111868426235,0.01524108060980986
0002,cdot_cos,P,T-P,5,1,2211,0.012386214814758488,-0.0001449552642390519,0.03575660900077973,0.9088066144642345,979.0,0.026208898349921402,0.5029302103678497,1.1245861383256608,-8.640621011002526e-05,0.48,1.0000000000000002,-0.061334016757613685,0.02483570790754043,5,2026-10-07 19:46:18.295244,64.3,0.44885332662760286,0.017682731614791343,0.02457351914516398
0002,cdot_cos,Q,P-Q,6,1,2340,-0.007283479319080725,-0.007816312945469075,-0.019669694133839212,0.22015534430956837,979.0,0.03138903151044238,0.5032035857637732,1.232592021886547,-5.380399473273518e-05,0.129,0.9999999999999998,0.11925804539633474,0.029802849501519086,6,2026-10-07 19:46:18.424243,64.3,0.5455590986270039,0.08071886613990488,0.04015607101179053
0002,cdot_cos,R,Q-R,7,1,2365,0.10222953367789236,0.15646706865719553,0.1095130129969731,0.9991261143301865,979.0,0.04703436581401686,0.504444212764064,1.3346339373202623,-0.00022124870587901825,0.025,1.0,-0.13496781152355392,0.034769991018943784,7,2026-10-07 19:46:18.449243,64.3,0.4691575307413465,0.3782043448084474,0.6258133721429793
0002,cdot_cos,S,R-S,8,1,2420,-0.001857599095163711,-0.00774408210863433,-0.10408713277305608,0.0012382679720032072,979.0,0.05029924875086475,0.5044457503056077,1.4267880431707058,-5.730343835343814e-05,0.055,1.0000000000000002,106.62818718871333,0.03973713261384468,8,2026-10-07 19:46:18.504243,64.3,0.05721138994295794,0.05827679251172926,0.059361507942688865
0002,cdot_cos,T,S-T,9,1,2650,-0.08047785799074783,0.027952032771571923,-0.07862025889558412,0.006335174162233003,979.0,0.05344481299030708,0.5044536166092273,1.5133608498861373,-5.884531613575751e-05,0.23,1.0,-0.19601045889942037,0.04470427454237481,9,2026-10-07 19:46:18.734244,64.3,0.9741380817558716,0.047177991343638453,0.013676366258444915
0002,cdot_cos,P,T-P,10,2,3190,0.011564334623966152,-0.00010880928206204036,0.09204219261471398,0.997317481288903,959.0,0.07200112476893844,0.5056919427688945,1.5991383336802931,-0.0004197363001782629,0.54,0.9999999999999999,-0.29143451523263014,0.049671417354226595,10,2026-10-07 19:46:19.274244,64.3,0.4232449957245545,0.023960596813346148,0.03436354033079881
0002,cdot_cos,Q,P-Q,11,2,3319,-0.007132784758054942,-0.007978127297655,-0.018697119382021093,0.23107967763300094,959.0,0.07932225754872092,0.505978855041966,1.6781420143589576,-0.000199759191934812,0.129,0.9999999999999998,0.7667051182177992,0.05463855913900208,11,2026-10-07 19:46:19.403244,64.3,0.33246807311493887,0.1086513806640883,0.05675296728513552
0002,cdot_cos,R,Q-R,12,2,3347,0.09583243458282194,0.16254221826549695,0.10296521934087688,0.9986692269472507,959.0,0.10003318098027322,0.5072187712509627,1.757057365118989,-0.0006697427642435623,0.028,1.0,-0.37904462325648647,0.059605700600362084,12,2026-10-07 19:46:19.431243,64.3,0.49572326610009426,0.44337738684273864,0.7396758368411536
0002,cdot_cos,S,R-S,13,2,3399,-0.0018036616406878286,-0.008522189050613006,-0.09763609622350977,0.001873632204276588,959.0,0.10415139121191429,0.507221097414917,1.8288116751355623,-0.00015160914426741616,0.052,1.0,222.74165972174043,0.06457284223732158,13,2026-10-07 19:46:19.483244,64.3,0.03279229171233811,0.08348873093087782,0.07919635060848201
0002,cdot_cos,T,S-T,14,2,3629,-0.053825460522427794,0.011390270736160099,-0.05202179888173997,0.034059222818824605,959.0,0.10871600899708452,0.5072633827865889,1.898005783694887,-0.00017518885275389777,0.23,1.0000000000000002,-0.557632759373077,0.06953998484958478,14,2026-10-07 19:46:19.713243,64.3,0.8740690158114082,0.05938270434367282,0.019846164283348813
0002,cdot_cos,P,T-P,15,3,4149,0.010535875306543919,-8.042356749815712e-05,0.06436133582897172,0.9843025322819421,998.0,0.13146743521000379,0.508485371517187,1.9693553763782228,-0.0009851699335256309,0.52,0.9999999999999998,-0.6628384210837169,0.07450712950823421,15,2026-10-07 19:46:20.233243,64.3,0.43947520691127767,0.030814457635439493,0.04375274271715244
0002,cdot_cos,Q,P-Q,16,3,4278,-0.006479306386248942,-0.00680464264165254,-0.017015181692792862,0.25085148398687523,998.0,0.1407630449379416,0.5087967821754104,2.035187130027885,-0.000456209929314717,0.129,1.0,1.6985931285354012,0.07947427164291064,16,2026-10-07 19:46:20.362243,64.3,0.3136535568684922,0.13205060722762094,0.07205899013905274
0002,cdot_cos,R,Q-R,17,3,4308,0.09099060633085064,0.14640073998192538,0.09746991271709958,0.9981062776801389,998.0,0.16553649187473,0.5100357757420442,2.1029313777449787,-0.0013678621474591524,0.03,0.9999999999999999,-0.7358006067951386,0.08444141303304718,17,2026-10-07 19:46:20.392244,64.3,0.5135131707759266,0.49376323944117184,0.8257815645596134
0002,cdot_cos,S,R-S,18,3,4357,-0.002000110783452017,-0.007468754653746403,-0.09299071711430265,0.0025242015019506644,998.0,0.1703888393044119,0.5100389089953837,2.1639118288582053,-0.0002938353802691589,0.049,0.9999999999999999,342.78325139862494,0.0894085546991588,18,2026-10-07 19:46:20.441243,64.3,0.025856353399352487,0.09871681839912663,0.0990274985649369
0002,cdot_cos,T,S-T,19,3,4588,-0.07892524134362942,0.03136919682381015,-0.07692513056017741,0.0070595744453080395,998.0,0.1752107400778444,0.5100476719347199,2.223246259979325,-0.0003004004734704809,0.231,0.9999999999999999,-0.7491884799694374,0.09437569834327986,19,2026-10-07 19:46:20.672243,64.3,0.9783826084976331,0.0682465322958897,0.020874029322218626
0002,cdot_cos,P,T-P,20,4,5147,0.013694092677068182,-0.00010528236032347685,0.09261933402069761,0.9974149529540158,939.0,0.20191873722511294,0.5112856829191619,2.286539088070055,-0.00181549491737546,0.559,0.9999999999999999,-1.22381340952955,0.09934284622672823,20,2026-10-07 19:46:21.231244,64.3,0.4340761860090436,0.0326223863013136,0.04777817020978272
0002,cdot_cos,Q,P-Q,21,4,5276,-0.006922224848744936,-0.008018075328083426,-0.020616317525813117,0.20988326305176655,939.0,0.211682567962713,0.5115461770165556,2.3441990813649136,-0.0007278720488750172,0.129,0.9999999999999998,4.175230377126884,0.10430998882605118,21,2026-10-07 19:46:21.360243,64.3,0.2244168359343619,0.1473740067561672,0.07568861036899276
0002,cdot_cos,R,Q-R,22,4,5300,0.10229905931394694,0.16900484616583178,0.10922128416269188,0.9991095818609915,939.0,0.23994123096820408,0.512786121495775,2.405180109781408,-0.0023000055638381146,0.024,0.9999999999999997,-1.2679063791250165,0.10927712998138421,22,2026-10-07 19:46:21.384243,64.3,0.504829435954683,0.7016919901578437,1.1774442918954613
0002,cdot_cos,S,R-S,23,4,5356,-0.0015552962760355853,-0.008848522585118123,-0.10385435558998252,0.0012569177654624584,939.0,0.2453637834902895,0.5127876812970753,2.459243330839534,-0.0004742626605479289,0.056,0.9999999999999997,1170.4971029886053,0.1142442717963627,23,2026-10-07 19:46:21.440243,64.3,0.021287291034422243,0.09628870005446621,0.09683129503723978
0002,cdot_cos,T,S-T,24,4,5587,-0.08956391110485672,0.01867006793429812,-0.08800861482882114,0.003474050646068984,939.0,0.2507255653743043,0.5127919924996339,2.5121574559050384,-0.00047936822284126067,0.231,0.9999999999999991,-1.1842547929298062,0.11921141674617285,24,2026-10-07 19:46:21.671244,64.3,0.9894059104196654,0.07647153570645475,0.023211176987077003
0002,cdot_cos,P,T-P,25,5,6086,0.011315543996337638,-6.138965779929548e-05,0.10087945510119435,0.9984785197994648,979.0,0.2806936329866716,0.5140309958226467,2.570154984430551,-0.002869712574900398,0.499,0.9999999999999989,-1.9292477329655646,0.12417856725772441,25,2026-10-07 19:46:22.170244,64.3,0.43476222109593704,0.0411384247623183,0.06005624772017497
0002,cdot_cos,Q,P-Q,26,5,6215,-0.008521872251313846,-0.009273039130982572,-0.019837416247651486,0.21830936974682974,979.0,0.29178171328709795,0.5143018715796286,2.622435286751028,-0.0011437792906258694,0.129,0.9999999999999989,6.371678674772267,0.12914571050510362,26,2026-10-07 19:46:22.299244,64.3,0.2211367337996831,0.16442854125934683,0.08595411085601821
0002,cdot_cos,R,Q-R,27,5,6242,0.09469831970795416,0.14823229027500734,0.103220191959268,0.998690838420429,979.0,0.3231161966315831,0.5155409261505175,2.678829240751452,-0.003471285548982176,0.027,0.9999999999999991,-1.878453389414909,0.1341128515561542,27,2026-10-07 19:46:22.326244,64.3,0.5114514175370949,0.6910198255429247,1.160536420166116
0002,cdot_cos,S,R-S,28,5,6295,-0.0022841434006150526,-0.009729079953166627,-0.09698246310856921,0.001953899443271225,979.0,0.3290967838664159,0.5155433501298929,2.7279989973995775,-0.00070274525481527,0.053,0.9999999999999989,1142.1468029861626,0.1390799934134007,28,2026-10-07 19:46:22.379244,64.3,0.019455854714793806,0.1217974145120929,0.11284126858175098
0002,cdot_cos,T,S-T,29,5,6526,-0.05119055193674959,0.014031488219988359,-0.04890640853613454,0.04130133162638417,979.0,0.33602672256986493,0.5155945877929654,2.7765618375573684,-0.0008304119111593942,0.231,0.9999999999999988,-2.491656502045379,0.14404714005226568,29,2026-10-07 19:46:22.610244,64.3,0.8574958399959924,0.08538151266964884,0.029999734646965565
0002,cdot_cos,P,T-P,30,6,7065,0.012905302807249506,-0.00010907158363403776,0.06409585474399909,0.9840365838275725,939.0,0.36854304271979366,0.5168152658817013,2.8307138021446487,-0.004126848015611438,0.539,0.9999999999999989,-2.700495843147015,0.14901429599046626,30,2026-10-07 19:46:23.149244,64.3,0.44987830340119994,0.04190527673847813,0.06032712458242805
0002,cdot_cos,Q,P-Q,31,6,7194,-0.0052437529436849,-0.006020720311425852,-0.018149055750934406,0.237400521482954,939.0,0.38120061089394436,0.5171097270831138,2.8791451245982542,-0.0017093806405672138,0.129,0.9999999999999982,8.209799333320039,0.15398144000591646,31,2026-10-07 19:46:23.278244,64.3,0.2431113171574804,0.18149759178321254,0.09812068352054808
0002,cdot_cos,R,Q-R,32,6,7212,0.1015798986149091,0.15750551146730946,0.106823651558594,0.998961315239751,939.0,0.4153694213998625,0.5183486623323731,2.9322228487171724,-0.004901772151595905,0.018,0.9999999999999982,-2.5767218367038844,0.15894858051895674,32,2026-10-07 19:46:23.296243,64.3,0.5213816718351229,1.1290233147836968,1.8982672503287854
0002,cdot_cos,S,R-S,33,6,7255,-0.002298375702485044,-0.00728064826581821,-0.10387827431739415,0.0012549885683373443,939.0,0.42184545022615744,0.5183502186599315,2.977695319379448,-0.0009764385210720827,0.043,0.9999999999999977,2522.1770374626312,0.16391572209156316,33,2026-10-07 19:46:23.339243,64.3,0.017952031391011383,0.1508497463994094,0.1506053215417429
0002,cdot_cos,T,S-T,34,6,7505,-0.08374539513900776,0.017879772944206857,-0.08144701943652272,0.005287841126671851,939.0,0.4283424995902117,0.5183567761762062,3.022513441967079,-0.0009947865157182009,0.25,0.9999999999999976,-2.7980097764653267,0.16888287144695277,34,2026-10-07 19:46:23.589243,64.3,0.9817248995027756,0.08415314080089564,0.025988197456217055
0002,cdot_cos,P,T-P,35,7,8004,0.012551259355885155,-0.00010209917784772477,0.09629665449489291,0.9979581903499758,920.0,0.46392202062660526,0.5195942405667159,3.073961000500313,-0.005716244526771299,0.499,0.9999999999999972,-3.8154293951913876,0.17385003123040024,35,2026-10-07 19:46:24.088243,64.3,0.43780922835689123,0.04912065985204628,0.07130164536351415
0002,cdot_cos,Q,P-Q,36,7,8094,-0.006218611336642952,-0.0043300465679881805,-0.018769870692528105,0.23024954382233606,920.0,0.4773649181225539,0.5198797155573425,3.119278317610065,-0.0022783077636747587,0.09,0.999999999999997,12.042864965335909,0.17881717450336043,36,2026-10-07 19:46:24.178244,64.3,0.22113387647880756,0.27893775833062,0.14936552773276252
0002,cdot_cos,R,Q-R,37,7,8150,0.0999646574304599,0.16060183266874634,0.10618326876710285,0.9989177002110051,920.0,0.5141308171261169,0.5211180713605692,3.16983750353176,-0.006562135078246629,0.056,0.9999999999999966,-3.4592863403310115,0.1837843165071226,37,2026-10-07 19:46:24.234244,64.3,0.5205808940732007,0.3902676521397496,0.6565339107779102
0002,cdot_cos,S,R-S,38,7,8194,-0.002277669513056096,-0.007943370933536,-0.102242326943516,0.0013940019094212902,920.0,0.5210748951622058,0.5211197993235029,3.212398213904658,-0.0012940475988363507,0.044,0.9999999999999963,3048.7271321318503,0.1887514581231754,38,2026-10-07 19:46:24.278244,64.3,0.017060059878199738,0.1671763772614695,0.15781995536565877
0002,cdot_cos,T,S-T,39,7,8444,-0.05591101313469742,0.011808123728436272,-0.05363334362164133,0.030809921275864075,920.0,0.5288423383251262,0.5211579902482313,3.2546306320811618,-0.0014680448951754801,0.25,0.9999999999999961,-4.5559854226310295,0.19371861006903202,39,2026-10-07 19:46:24.528243,64.3,0.8882312582976647,0.09117611716711416,0.031069772651681316
0002,cdot_cos,P,T-P,40,8,8924,0.01470910654241397,-0.00023572679140982744,0.07062011967711139,0.9894484374418047,839.0,0.5666629537457629,0.5223843427319121,3.3038487041080855,-0.007456865696951217,0.48,0.9999999999999956,-4.883441654393258,0.1986857747456733,40,2026-10-07 19:46:25.008243,64.3,0.44792546871371164,0.053413794072979554,0.07879294879299323
0002,cdot_cos,Q,P-Q,41,8,9052,-0.006680128999844666,-0.009398785957014296,-0.021389235542258633,0.20176041656830587,839.0,0.5801195806351865,0.522634378090644,3.346492891625962,-0.002777224175283704,0.128,0.999999999999995,18.715919002028233,0.20365292075893798,41,2026-10-07 19:46:25.136243,64.3,0.18544317753594103,0.20547078290951556,0.10512989757362201
0002,cdot_cos,R,Q-R,42,8,9075,0.08677359931454148,0.17816229474560602,0.09345372831438614,0.9975496589955427,839.0,0.6192634741705989,0.5238704410128308,3.395068527760052,-0.008447253192582419,0.023,0.9999999999999946,-4.587168594352343,0.20862006087046187,42,2026-10-07 19:46:25.159244,64.3,0.5110808181727285,1.0129183822530268,1.7019084145831465
0002,cdot_cos,S,R-S,43,8,9133,-0.00011976219338862171,-0.009708767709720137,-0.0868933615079301,0.003731363779413563,839.0,0.6267138262188258,0.5238750640030275,3.4352785666258794,-0.0016702447776210318,0.058,0.999999999999994,1465.9361423045816,0.21358720339173254,43,2026-10-07 19:46:25.217243,64.3,0.017292296763701212,0.1270674189530254,0.12845434565908379
0002,cdot_cos,T,S-T,44,8,9363,-0.10303779346910873,-0.013787522387046645,-0.1029180312757201,0.001334811608532652,839.0,0.6340032947691498,0.5238767177729727,3.475005059369493,-0.0016535090540536008,0.23,0.9999999999999933,10.119741029224846,0.2185543569449914,44,2026-10-07 19:46:25.447244,64.3,0.9899297106425784,0.10381211554376246,0.0316933415231482
0002,cdot_cos,P,T-P,45,9,9763,0.011848249054223646,-7.885278023068492e-05,0.11488604252333237,0.9993812390125533,799.0,0.6744673993689565,0.5251147555020743,3.522576913497903,-0.009524043604486594,0.4,0.9999999999999932,-6.357265506071833,0.22352152251192461,45,2026-10-07 19:46:25.847244,64.3,0.4376280998015181,0.06981771098345607,0.10116026149951662
0002,cdot_cos,Q,P-Q,46,9,9872,-0.006455763757335282,-0.007376266633384117,-0.01830401281155893,0.2356013933445684,799.0,0.6898574635559147,0.5254065751122313,3.5634808220545633,-0.0037767652211874044,0.109,0.999999999999992,19.694627034170168,0.22848866851038688,46,2026-10-07 19:46:25.956243,64.3,0.21833029050000557,0.2589586420862468,0.14119324942163494
0002,cdot_cos,R,Q-R,47,9,9923,0.06068451154389524,0.19108487555269607,0.06714027530123053,0.9868373206663015,799.0,0.7309203833437583,0.5266286965683008,3.6103845028998873,-0.010491244140956469,0.051,0.9999999999999925,-5.494117533427325,0.23345581055404738,47,2026-10-07 19:46:26.007244,64.3,0.5272882690678393,0.4853444291897826,0.8051552899577177
0002,cdot_cos,S,R-S,48,9,9972,0.0005935230072105095,-0.009076335937169559,-0.06009098853668473,0.020555630185686437,799.0,0.7393625953332725,0.5266541497804045,3.6487670391456857,-0.0022320597224780195,0.049,0.9999999999999912,324.48495635195127,0.23842295268913313,48,2026-10-07 19:46:26.056243,64.3,0.02471728622649709,0.16440720552905203,0.17229004060233113
0002,cdot_cos,T,S-T,49,9,10202,-0.13027872533145837,-0.049939128614504336,-0.1308722483386689,0.00022145148004711122,799.0,0.7470322894856054,0.5266544239941329,3.686581026225059,-0.0020500329915264094,0.23,0.9999999999999905,663.8133401267651,0.24339010934782604,49,2026-10-07 19:46:26.286243,64.3,0.9150357912748366,0.10950777564165258,0.03334649631449075
0002,cdot_cos,P,T-P,50,10,10562,0.013403338852360383,-0.00016977356702487526,0.14368206418381876,0.9999028110873758,839.0,0.7897361721284327,0.527892393653356,3.732762977468938,-0.011797955304844518,0.36,0.99999999999999,-7.874120533321367,0.24835727752300962,50,2026-10-07 19:46:26.646244,64.3,0.4376926701345472,0.08095980704700459,0.1186218962300759
0002,cdot_cos,Q,P-Q,51,10,10690,-0.0064729021137718105,-0.009114052867381294,-0.01987624096613219,0.21788365269349666,839.0,0.8053233505594487,0.5281621082383221,3.7718319695274083,-0.004469397679728843,0.128,0.999999999999989,27.171528844233965,0.2533244264352536,51,2026-10-07 19:46:26.774244,64.3,0.1940345005531536,0.23126410466082006,0.12177483149231234
0002,cdot_cos,R,Q-R,52,10,10708,0.0931316457839061,0.1890090729552128,0.09960454789767792,0.9983487538616761,839.0,0.8489397829216027,0.5293977350784618,3.8175414363141575,-0.01296687621118105,0.018,0.999999999999989,-6.877058878465031,0.2582915656374815,52,2026-10-07 19:46:26.792243,64.3,0.5192748580427267,1.4395251880111655,2.4231351312307754
0002,cdot_cos,S,R-S,53,10,10751,-0.0014416664174080605,-0.009033215406482798,-0.09457331220131417,0.0022805306779931883,839.0,0.8571462573278507,0.5294005572174639,3.8540943103253964,-0.0025161579190323435,0.043,0.999999999999988,3703.1196139391895,0.2632587074695228,53,2026-10-07 19:46:26.835244,64.3,0.01571023420033102,0.1898335616402392,0.19084824200576744
0002,cdot_cos,T,S-T,54,10,11002,-0.09855711148468266,-0.012652102798383393,-0.0971154450672746,0.0019372956128892013,839.0,0.8652654692226632,0.5294029546042621,3.8903014005392285,-0.0025132225603100027,0.251,0.9999999999999873,1.2243993020044341,0.2682258696492906,54,2026-10-07 19:46:27.086244,64.3,0.9988327157188029,0.10537747449205445,0.03234745774825726
0002,cdot_cos,P,T-P,55,11,11401,0.011036487252324189,-9.192378715089757e-05,0.10959359873700684,0.999130626873287,999.0,0.910045749522862,0.5306391869534133,3.935325623542661,-0.014282755239342224,0.399,0.9999999999999869,-9.520485924117443,0.2731930476254368,55,2026-10-07 19:46:27.485244,64.3,0.4386567891330022,0.0777613301590892,0.11223127894786657
0002,cdot_cos,Q,P-Q,56,11,11490,-0.006624353978547548,-0.004138324350331947,-0.017660841230871735,0.24313057732244284,999.0,0.9273190106896164,0.5309399580783608,3.973190934805712,-0.005701486676513719,0.089,0.999999999999985,28.530892266754424,0.27816019397649056,56,2026-10-07 19:46:27.574244,64.3,0.2219966130590894,0.3539139504933205,0.1940815861433082
0002,cdot_cos,R,Q-R,57,11,11547,0.1100539771422413,0.1489954671610108,0.11667833112078885,0.9994485549095634,999.0,0.973042432710673,0.5321761139459389,4.017841656192895,-0.015604765573246847,0.057,0.9999999999999849,-8.01135128382796,0.2831273372112589,57,2026-10-07 19:46:27.631244,64.3,0.5301306997456642,0.4758586358726669,0.8021652986150283
0002,cdot_cos,S,R-S,58,11,11590,-0.0031307306511786726,-0.007782595140650556,-0.11318470779341998,0.000690242762730222,999.0,0.9815668951791005,0.5321769675296493,4.052939144035069,-0.0029923279386705284,0.043,0.9999999999999839,14775.864957581369,0.28809447911691205,58,2026-10-07 19:46:27.674243,64.3,0.014773430731665356,0.28718465930561765,0.1982433132192423
0002,cdot_cos,T,S-T,59,11,11841,-0.02439381760029591,0.009843503199465862,-0.021263086949117237,0.20306993648978855,999.0,0.9977403134109561,0.5324280842956801,4.089657824020121,-0.0057486906542887385,0.251,0.9999999999999826,-10.976418497200767,0.2930616456707315,59,2026-10-07 19:46:27.925244,64.3,0.6191073406706914,0.11774121696167893,0.06443592921058046
0002,cdot_cos,P,T-P,60,12,12400,0.009267660011894493,-6.545189513488411e-05,0.033661477612190405,0.8970098056566321,1179.0,1.0406729860938633,0.5335371304881119,4.132760961306088,-0.015711094458848978,0.559,0.9999999999999822,-8.98285740715251,0.2980288510445482,60,2026-10-07 19:46:28.484244,64.3,0.5304126851808222,0.055804670283178676,0.07680263449536158
0002,cdot_cos,Q,P-Q,61,12,12489,-0.005504490985007236,-0.0028238681819994765,-0.014772150996901729,0.2789151281440036,1179.0,1.06012993478755,0.533881908916865,4.169751152604631,-0.00733746009201349,0.089,0.9999999999999799,24.287001936629622,0.30299599812725825,61,2026-10-07 19:46:28.573244,64.3,0.3194300312791616,0.3774880632897038,0.21861740105265887
0002,cdot_cos,R,Q-R,62,12,12546,0.10621546300550173,0.10780796841736273,0.11171995399050896,0.999241639498543,1179.0,1.1078658613594305,0.5351168444923353,4.213514397200303,-0.018571234171754804,0.057,0.9999999999999795,-9.09664787611563,0.30796314145145975,62,2026-10-07 19:46:28.630244,64.3,0.5461280214033807,0.4970926489370845,0.8374723959979059
0002,cdot_cos,S,R-S,63,12,12589,-0.003518493596426707,-0.00556323568534601,-0.10973395660192845,0.0008615690537796113,1179.0,1.1167984967663775,0.5351179090985403,4.247366880997549,-0.003565996809125661,0.043,0.9999999999999774,14094.636394731055,0.31293028316628474,63,2026-10-07 19:46:28.673243,64.3,0.014878081674353474,0.3502581291661041,0.2077357071383023
0002,cdot_cos,T,S-T,64,12,12840,-0.01588439846376287,0.016475759226657116,-0.012365904867336162,0.31106871826788396,1179.0,1.1379880604677155,0.5355022632045247,4.284018259331482,-0.00857268579551205,0.251,0.9999999999999765,-13.026240408083668,0.31789745440737016,64,2026-10-07 19:46:28.924243,64.3,0.5576476029161272,0.1277947791754568,0.08442057251529066
0002,cdot_cos,P,T-P,65,13,13579,0.011299991045541451,-0.00011467764023379716,0.02718438950930432,0.8516948393261653,879.0,1.1809514759124569,0.5365543936623779,4.325839985586846,-0.017870853308381465,0.739,0.9999999999999754,-8.837466345990341,0.3228646985097922,65,2026-10-07 19:46:29.663244,64.3,0.5943434645044458,0.04148363674530799,0.058137233348770447
0002,cdot_cos,Q,P-Q,66,13,13688,-0.0074517720287548645,-0.007346569262548378,-0.018751763074296317,0.2304559665010914,879.0,1.1993008755772807,0.5368390289863539,4.361301103471959,-0.007833673063353896,0.109,0.9999999999999715,35.26329798009286,0.327831849112844,66,2026-10-07 19:46:29.772243,64.3,0.27767981051652685,0.31193476430273626,0.1683431161910445
0002,cdot_cos,R,Q-R,67,13,13720,0.09472938149638363,0.16197072328744536,0.1021811535251385,0.9986005117433128,879.0,1.2489532545304534,0.5380721171125115,4.40431031607198,-0.021794944272007066,0.032,0.9999999999999701,-11.322200670408266,0.33279898814805287,67,2026-10-07 19:46:29.804243,64.3,0.5269899278171291,0.9221538605345102,1.5516368422866453
0002,cdot_cos,S,R-S,68,13,13768,-0.002367543973377884,-0.010476916091845617,-0.09709692546976151,0.0019395994609998717,879.0,1.2583187226514894,0.5380745117131585,4.437076314006054,-0.0042100749431291965,0.048,0.9999999999999672,7343.549894617295,0.33776613013182105,68,2026-10-07 19:46:29.852243,64.3,0.015346708950005844,0.20282785191310057,0.19511391918825005
0002,cdot_cos,T,S-T,69,13,14019,-0.061738964144784775,0.004607853170078242,-0.05937142017140689,0.021508112278675547,879.0,1.268424728314111,0.5381010651909134,4.469803372342732,-0.004578213497452257,0.251,0.9999999999999648,-13.864042884352143,0.34273330562292825,69,2026-10-07 19:46:30.103244,64.3,0.9227370580338945,0.12047701543293778,0.040262970767416945
0002,cdot_cos,P,T-P,70,14,14458,0.012732057474375433,-5.193536290388702e-05,0.07447102161916021,0.9917436879506077,999.0,1.3187981843988241,0.539325214547437,4.512318724322097,-0.023357443362291466,0.439,0.9999999999999635,-15.34063614440762,0.34770051407920466,70,2026-10-07 19:46:30.542243,64.3,0.447538200264224,0.0788669329207212,0.11474591363260389
0002,cdot_cos,Q,P-Q,71,14,14588,-0.006357913641097593,-0.006730673794552846,-0.019089971115473024,0.22662188764851654,999.0,1.3376698954185042,0.5396048770786882,4.546791786204996,-0.00898394327492296,0.13,0.9999999999999596,51.395873530360966,0.3526676700368442,71,2026-10-07 19:46:30.672243,64.3,0.2019147029303815,0.27055020877414343,0.1451670078436931
0002,cdot_cos,R,Q-R,72,14,14618,0.09466204965796152,0.15294527899046342,0.10101996329905912,0.9984921833394763,999.0,1.3891412386801014,0.5408367661320823,4.589152420597351,-0.025141918461591715,0.03,0.9999999999999583,-13.116420786555574,0.3576348084452001,72,2026-10-07 19:46:30.702244,64.3,0.5258860452151775,1.0194937784352358,1.7157114420532398
0002,cdot_cos,S,R-S,73,14,14667,-0.0019825315561052396,-0.00751388611588195,-0.09664458121406676,0.001996728282865914,999.0,1.3988395221246184,0.5408392290993578,4.620932682150008,-0.0048435317388262145,0.049,0.9999999999999545,8241.435818083028,0.3626019507831875,73,2026-10-07 19:46:30.751244,64.3,0.015133816764651484,0.1995328039417363,0.1979241519289174
0002,cdot_cos,T,S-T,74,14,14898,-0.078610507629799,0.031040817576107986,-0.07662797607369376,0.0071947790507806315,999.0,1.4086954534663916,0.5408481038533576,4.652551595041662,-0.004956773582898086,0.231,0.9999999999999515,-12.759998088334063,0.3675691277041066,74,2026-10-07 19:46:30.982244,64.3,0.9774131131231317,0.13467596324313885,0.04266636944490565
0002,cdot_cos,P,T-P,75,15,15457,0.010563806403221269,-8.847858734090115e-05,0.08917431403302027,0.9967760165380435,999.0,1.4610598171429485,0.5420773733256523,4.694528065852831,-0.026907826256642425,0.559,0.9999999999999505,-17.85698999973314,0.3725363696631659,75,2026-10-07 19:46:31.541243,64.3,0.44229114316352464,0.06517590360297579,0.09367506918883174
0002,cdot_cos,Q,P-Q,76,15,15546,-0.006582650681139452,-0.004114122802290268,-0.01714645708436072,0.2492685458955191,999.0,1.4815621136945185,0.5423847031566851,4.728400573232788,-0.010801634666051996,0.089,0.9999999999999452,52.406860526576395,0.37750351929281883,76,2026-10-07 19:46:31.630244,64.3,0.22512750507489987,0.4143940076278779,0.23036288260190999
0002,cdot_cos,R,Q-R,77,15,15602,0.1014330410976624,0.13622843201420043,0.10801569177880184,0.9990378801822023,999.0,1.5348219505007108,0.5436161175636547,4.770212432414569,-0.02875104473225394,0.056,0.9999999999999435,-14.576254723520467,0.382470662680176,77,2026-10-07 19:46:31.686244,64.3,0.5356337678680395,0.5647125883101297,0.9510685143962908
0002,cdot_cos,S,R-S,78,15,15646,-0.0028209293614165167,-0.007007197166353283,-0.10425397045907892,0.0012250714343059097,999.0,1.544809923585253,0.543617627262962,4.801101250547362,-0.005504819776819475,0.044,0.9999999999999397,15397.9172159239,0.3874378039172244,78,2026-10-07 19:46:31.730243,64.3,0.014656289131516264,0.23043354670706054,0.22699938828505103
0002,cdot_cos,T,S-T,79,15,15897,-0.07510248344080228,0.03072094746904934,-0.07228155407938576,0.009492608105697898,999.0,1.5551001026109321,0.5436293253159904,4.831883500593068,-0.005708699310135343,0.251,0.9999999999999349,-17.428501377240067,0.39240499006118046,79,2026-10-07 19:46:31.981244,64.3,0.9649163812871192,0.12819696844948536,0.040996729185972434
0002,cdot_cos,P,T-P,80,16,16456,0.011007103424214501,-9.213385271208868e-05,0.08610958686501678,0.9960765253484497,1000.0,1.6091648017468947,0.5448565532219437,4.873345554725268,-0.030602833213478578,0.559,0.9999999999999339,-20.284849930955154,0.39737224588443876,80,2026-10-07 19:46:32.540244,64.3,0.44332219507175097,0.06719747266727538,0.09671681419671299
0002,cdot_cos,Q,P-Q,81,16,16546,-0.006339969834309284,-0.0039603310508919375,-0.017347073258523783,0.24686240742351,1000.0,1.630226877052946,0.5451606193375211,4.906446022918895,-0.012203704929052176,0.09,0.9999999999999275,60.51028819665108,0.40233939674540214,81,2026-10-07 19:46:32.630244,64.3,0.22142587033412392,0.4223449831908415,0.23402305895612566
0002,cdot_cos,R,Q-R,82,16,16602,0.09892531508778701,0.1330688657167143,0.1052652849220963,0.9988519684645056,1000.0,1.6851868987212462,0.5463905822372466,4.947777614339648,-0.03257725125076455,0.056,0.9999999999999256,-16.5643584259821,0.40730654024611385,82,2026-10-07 19:46:32.686244,64.3,0.535051745580296,0.5827587285347728,0.9814289583625029
0002,cdot_cos,S,R-S,83,16,16646,-0.0029565959549848067,-0.007331165020540659,-0.10188191104277182,0.001426638163899452,1000.0,1.6954958546488406,0.54639233856473,4.977871568971339,-0.006230869085171039,0.044,0.9999999999999208,15000.836924706404,0.4122736812845765,83,2026-10-07 19:46:32.730243,64.3,0.014576218593536135,0.23973799853108355,0.23429445289987272
0002,cdot_cos,T,S-T,84,16,16896,-0.06995254856308439,0.028787944956748763,-0.06699595260809958,0.013283766703420885,1000.0,1.7062838425919815,0.5464086920915316,5.007918846838264,-0.006561052351465398,0.25,0.9999999999999156,-20.190339998190062,0.4172408729224304,84,2026-10-07 19:46:32.980243,64.3,0.9509205705850896,0.13287318896790845,0.04315195177256381
0002,cdot_cos,P,T-P,85,17,17456,0.009637577279068842,-7.504778731654757e-05,0.07959012584215323,0.9940455553287152,1018.0,1.7619324491327948,0.5476321661289634,5.04891959331213,-0.03448940240886677,0.56,0.9999999999999142,-22.827088440738454,0.4222081437563362,85,2026-10-07 19:46:33.540244,64.3,0.444962115503818,0.06970193174365702,0.09937251168002369
0002,cdot_cos,Q,P-Q,86,17,17585,-0.006442531221188404,-0.006545366553285222,-0.016080108500257248,0.2623188422667402,1018.0,1.7843500061448774,0.5479549335355522,5.081525565591828,-0.014204721374278681,0.129,0.9999999999999065,62.84612578749528,0.42717530586867747,86,2026-10-07 19:46:33.669244,64.3,0.23978229796302317,0.3062494362706721,0.17377951172157047
0002,cdot_cos,R,Q-R,87,17,17615,0.09250412930209993,0.1415898244952165,0.09894666052328834,0.9982775269995173,1018.0,1.8409448036906282,0.5491828823290381,5.122437486050267,-0.03664221888188608,0.03,0.9999999999999045,-18.272339715333292,0.4321424424161187,87,2026-10-07 19:46:33.699244,64.3,0.5420808967519498,1.1208132753933953,1.886493251525027
0002,cdot_cos,S,R-S,88,17,17664,-0.002390529641849268,-0.008060741379939824,-0.0948946589439492,0.0022339966768584168,1018.0,1.851598802668481,0.5491856296298244,5.1518184386065204,-0.007025864062356659,0.049,0.9999999999998977,10780.164650012406,0.43710958460492555,88,2026-10-07 19:46:33.748243,64.3,0.014767407219952833,0.23960612116162033,0.21742855056842667
0002,cdot_cos,T,S-T,89,17,17915,-0.048226995974878895,0.01912801851567488,-0.045836466333029624,0.04986499719017713,1018.0,1.864426203564467,0.5492469512974061,5.181585953253894,-0.008512716395346199,0.251,0.9999999999998913,-24.24676939859074,0.4420767826488391,89,2026-10-07 19:46:33.999244,64.3,0.8397403847776268,0.13829051947124377,0.05110518285253341
0002,cdot_cos,P,T-P,90,18,18474,0.01178976373102768,-5.193429091148677e-05,0.06001675970590657,0.9793480560645799,1019.0,1.9210206434430455,0.5504510027406243,5.2220373378160705,-0.0382411683935162,0.559,0.9999999999998896,-24.690350371335406,0.4470440691633903,90,2026-10-07 19:46:34.558244,64.3,0.4596022097157172,0.0696167470219757,0.10124228958600802
0002,cdot_cos,Q,P-Q,91,18,18603,-0.007571578676368104,-0.007709851759108636,-0.019361342407395784,0.22357826447431214,1019.0,1.9422577267350358,0.55072579686289,5.2535899582893935,-0.01464341303404554,0.129,0.9999999999998804,85.87430897321785,0.45201123365349416,91,2026-10-07 19:46:34.687244,64.3,0.19958943508096286,0.3080036396299264,0.1646285526510881
0002,cdot_cos,R,Q-R,92,18,18630,0.0967991162555416,0.13909509184204116,0.10437069493190972,0.9987840776401875,1019.0,2.0004855824675665,0.5519529955387356,5.294147856391614,-0.04095429985785704,0.027,0.9999999999998782,-21.43979401353533,0.4569783685667956,92,2026-10-07 19:46:34.714243,64.3,0.5260047476531388,1.2805939080678335,2.1565872493529867
0002,cdot_cos,S,R-S,93,18,18683,-0.0023566215897424993,-0.008093340685882218,-0.0991557378452841,0.0016995106879880858,1019.0,2.011409797770699,0.5519550831802139,5.322862764087266,-0.007818252370454594,0.053,0.9999999999998704,15872.479940148745,0.4619455118963424,93,2026-10-07 19:46:34.767244,64.3,0.01443220071008139,0.2271825860039286,0.20611726987042203
0002,cdot_cos,T,S-T,94,18,18914,-0.04839460042138247,0.019227797813858815,-0.046037978831639965,0.04925467049415638,1019.0,2.024566936583983,0.552015585736174,5.351990383034107,-0.009472593404011385,0.231,0.9999999999998628,-27.343324712545932,0.4669127101716653,94,2026-10-07 19:46:34.998244,64.3,0.8397550845919711,0.15439832590392508,0.05695731088001759
0002,cdot_cos,P,T-P,95,19,19493,0.011949598375702109,-8.647164352221702e-05,0.060344198797084574,0.9797696191128866,1000.0,2.0827418243383122,0.5532187750520791,5.392110373547703,-0.04260192881399396,0.579,0.9999999999998611,-27.534599062711315,0.47188001952291386,95,2026-10-07 19:46:35.577244,64.3,0.45948512035695754,0.0694284897164579,0.10047476296084513
0002,cdot_cos,Q,P-Q,96,19,19622,-0.006669057809394025,-0.006945641972123638,-0.018618656185096134,0.2319773312230782,1000.0,2.104965127675641,0.553503560129368,5.423206011374336,-0.01659081998960344,0.129,0.9999999999998505,91.33592627819793,0.47684718650118035,96,2026-10-07 19:46:35.706244,64.3,0.20850311860672152,0.3178622942674906,0.1722736692816195
0002,cdot_cos,R,Q-R,97,19,19646,0.09505199438074446,0.13221016642985547,0.1017210521901385,0.9985585506018534,1000.0,2.164750296259325,0.5547290292208773,5.463448184229601,-0.04548227647611183,0.024,0.9999999999998479,-23.575834500178676,0.48181431954929915,97,2026-10-07 19:46:35.730243,64.3,0.5298165293703435,1.4793668992503506,2.491048690986819
0002,cdot_cos,S,R-S,98,19,19703,-0.002177657335628601,-0.008231443753287862,-0.09722965171637307,0.0019231484746266155,1000.0,2.175974738839658,0.5547313887448716,5.491561430976134,-0.00868113327254004,0.057,0.9999999999998385,15596.850590406404,0.4867814642959263,98,2026-10-07 19:46:35.787244,64.3,0.014418984610695637,0.19965301428483492,0.196920045269003
0002,cdot_cos,T,S-T,99,19,19933,-0.07469147142367465,0.03015952495571521,-0.07251381408804605,0.009353211920670136,1000.0,2.187510739887796,0.5547428642292577,5.51962267063449,-0.008968833820911239,0.23,0.9999999999998294,-25.070884913619953,0.491748668242195,99,2026-10-07 19:46:36.017244,64.3,0.9684312253904741,0.15655831602594925,0.050156526296252224
0002,cdot_cos,P,T-P,100,20,20493,0.010176894181593024,-0.00012859656538679134,0.08486836560526767,0.9957519406184802,959.0,2.2479915642115946,0.5559642190472489,5.5596430925023705,-0.047771606814382916,0.56,0.9999999999998275,-31.77027054045653,0.49671598876930767,100,2026-10-07 19:46:36.577244,64.3,0.4438556094458103,0.07518331353604998,0.10800147200678328
0002,cdot_cos,Q,P-Q,101,20,20602,-0.006855202353818787,-0.005885944263254915,-0.017032096535411812,0.25064714754796474,959.0,2.271716051048172,0.5562715482264049,5.590460875288654,-0.01909219339619774,0.109,0.9999999999998154,93.31822476780964,0.5016831512444292,101,2026-10-07 19:46:36.686244,64.3,0.2226500697442242,0.3901434715070401,0.2176558425374069
0002,cdot_cos,R,Q-R,102,20,20634,0.09847612698314386,0.13873074998820917,0.10533132933696264,0.9988568278606759,959.0,2.3330428410001294,0.5574958592990296,5.630433204490637,-0.050252843359332715,0.032,0.9999999999998126,-25.45157898174782,0.5066502863745279,102,2026-10-07 19:46:36.718244,64.3,0.5379028289563731,1.1376490844627467,1.9164621859986686
0002,cdot_cos,S,R-S,103,20,20682,-0.002924688721905427,-0.008332239332371068,-0.10140081570504929,0.0014713941481359861,959.0,2.3445255924537878,0.5574976622933624,5.6579843444615605,-0.009558049552234245,0.048,0.9999999999998019,22570.672057046795,0.5116174280256329,103,2026-10-07 19:46:36.766243,64.3,0.014155581968861911,0.25931829720866884,0.23922398861788335
0002,cdot_cos,T,S-T,104,20,20932,-0.05209696554646724,0.018024818859561188,-0.049172276824561816,0.04062971581202631,959.0,2.3579373975321616,0.5575474479108904,5.685891660627323,-0.011222915576967937,0.25,0.9999999999997919,-33.4407025040401,0.516584646050663,104,2026-10-07 19:46:37.016243,64.3,0.8621334267628051,0.1493885589999886,0.053647220313495225
0002,cdot_cos,P,T-P,105,21,21452,0.009949438270199788,-0.00010468186392544863,0.062046403816667026,0.9818288844501567,999.0,2.419219871953782,0.5587501779188981,5.725486638911672,-0.052065803485427234,0.52,0.9999999999997892,-33.95848414567556,0.5215519696932053,105,2026-10-07 19:46:37.536243,64.3,0.45637179044567006,0.08273744276274851,0.11785091234927017
0002,cdot_cos,Q,P-Q,106,21,21541,-0.0063572746573388956,-0.003947947807956237,-0.016306712927538682,0.2595090873112508,999.0,2.44398433800542,0.5590679592461566,5.7559581143919845,-0.021415699626393874,0.089,0.9999999999997763,96.45029845981121,0.5265191265361852,106,2026-10-07 19:46:37.625243,64.3,0.23902243099960838,0.49207437799350634,0.27825242754649393
0002,cdot_cos,R,Q-R,107,21,21594,0.09945738749815394,0.13071875856606074,0.10581466215549284,0.9988917705426161,999.0,2.506809111236626,0.5602906963160448,5.7956932246869,-0.05527507318984283,0.053,0.9999999999997735,-27.691459102115395,0.531486269735954,107,2026-10-07 19:46:37.678244,64.3,0.5419609370676524,0.7036120535724769,1.1853730798340787
0002,cdot_cos,S,R-S,108,21,21641,-0.002932454340485577,-0.007224018433453931,-0.10238984183863951,0.0013808601944575451,999.0,2.5185672156841026,0.5602923861153666,5.822730482197172,-0.010500963601094081,0.047,0.9999999999997614,26496.70230722563,0.5364534110571579,108,2026-10-07 19:46:37.725244,64.3,0.014068604198407298,0.25496418551698297,0.25017243505268894
0002,cdot_cos,T,S-T,109,21,21892,-0.07276322692366623,0.03020502112544557,-0.06983077258318066,0.011094835827583052,999.0,2.5307757446752226,0.5603059631422659,5.849767202854414,-0.01095515612022303,0.251,0.9999999999997498,-33.453017549244684,0.5414206371319841,109,2026-10-07 19:46:37.976243,64.3,0.9593884328854255,0.15071390406557914,0.04863955773354588
0002,cdot_cos,P,T-P,110,22,22451,0.011589873041247986,-3.960675032890946e-05,0.08435309996491422,0.9956094664775245,940.0,2.5942255955250233,0.5615239454665755,5.889314087871852,-0.05775416015934012,0.559,0.9999999999997472,-38.42338522083656,0.5463879951134217,110,2026-10-07 19:46:38.535244,64.3,0.44471840653959854,0.07820732834115975,0.11350599436458085
0002,cdot_cos,Q,P-Q,111,22,22580,-0.006895107812697461,-0.008075378284468814,-0.018484980853945447,0.23351223376267172,940.0,2.618211537760639,0.5618095067307269,5.919031831009826,-0.022202106270006614,0.129,0.9999999999997319,124.49886715193938,0.5513551707149404,111,2026-10-07 19:46:38.664243,64.3,0.20163584760939057,0.34179369451844127,0.18593753671020075
0002,cdot_cos,R,Q-R,112,22,22611,0.08550212159773653,0.156207497789169,0.09239722941043399,0.9973778676737258,940.0,2.682408368710781,0.5630287333691464,5.958537456593493,-0.06039044245415192,0.031,0.9999999999997287,-31.321769866881397,0.5563223040473233,112,2026-10-07 19:46:38.695244,64.3,0.5313378093379969,1.2312569531587254,2.070865514520708
0002,cdot_cos,S,R-S,113,22,22660,-0.0017380394525031858,-0.009764279903275146,-0.08724016105023971,0.0036493784658255105,940.0,2.69454946885648,0.5630331930972622,5.985126360521363,-0.01158568355971527,0.049,0.9999999999997145,10943.438170929636,0.5612894460683155,113,2026-10-07 19:46:38.744244,64.3,0.014809213260515177,0.25783534287542637,0.24777755399385762
0002,cdot_cos,T,S-T,114,22,22891,-0.05990703350932541,0.008584402493054625,-0.05816899405682222,0.02319690293457346,940.0,2.707676232312573,0.5630615406669983,6.0118535577526995,-0.012584937466141095,0.231,0.999999999999701,-35.25007313597662,0.5662566707804445,114,2026-10-07 19:46:38.975244,64.3,0.9236696578626707,0.1682530434133214,0.05682581582724138
0002,cdot_cos,P,T-P,115,23,23391,0.012222427365032016,-0.00016930238403757534,0.07212946087435743,0.9904149968056318,879.0,2.7722823749134347,0.5642714819427821,6.051138988064882,-0.06279133174736642,0.5,0.9999999999996985,-41.49490168330904,0.5712240214166883,115,2026-10-07 19:46:39.475244,64.3,0.44951986070155814,0.08903994537946058,0.12921228520172345
0002,cdot_cos,Q,P-Q,116,23,23500,-0.006403201713887276,-0.006262102293756166,-0.018625629078919292,0.2318974598007225,879.0,2.7967161776920335,0.564554669661052,6.080441488531439,-0.024129723010725506,0.109,0.999999999999682,136.522900685209,0.5761911908514502,116,2026-10-07 19:46:39.584243,64.3,0.20144476474801037,0.41336082290284754,0.2241633282440262
0002,cdot_cos,R,Q-R,117,23,23532,0.09520581444363962,0.1606214400998602,0.1016090161575269,0.9985481441577931,879.0,2.8623950343062554,0.5657735898266202,6.119778699104857,-0.06586841786509597,0.032,0.9999999999996787,-34.24235321836394,0.5811583241763277,117,2026-10-07 19:46:39.616243,64.3,0.530641943539539,1.218578778479043,2.0524642691944344
0002,cdot_cos,S,R-S,118,23,23580,-0.0020229444335475846,-0.0087861327251463,-0.09722875887718721,0.0019232586725554386,879.0,2.8747052195146923,0.5657759367713724,6.1459014445356095,-0.012515837861691937,0.048,0.9999999999996636,22732.780545100453,0.5861254659522418,118,2026-10-07 19:46:39.664243,64.3,0.014082740595755486,0.25725973731254476,0.2564621918424344
0002,cdot_cos,T,S-T,119,23,23830,-0.08680266273810217,0.0019831303138655157,-0.08477971830455458,0.004272238809100028,879.0,2.8870919690882597,0.5657811501564985,6.1719453304916545,-0.012647858967096717,0.25,0.9999999999996483,-25.323489865038145,0.5910927075960503,119,2026-10-07 19:46:39.914243,64.3,0.9896160714309722,0.15764189287007913,0.049546998294269784
0002,cdot_cos,P,T-P,120,24,24270,0.013920813238496229,-0.00017498979470142382,0.10072347597659839,0.9984632069676744,839.0,2.953526165949732,0.5669991667234713,6.211166384152477,-0.06871731270536666,0.44,0.9999999999996454,-46.03340813140601,0.5960600464657855,120,2026-10-07 19:46:40.354244,64.3,0.4422218355564957,0.10258538858204279,0.15098681104880027
0002,cdot_cos,Q,P-Q,121,24,24399,-0.00653819281205786,-0.00925507193947822,-0.02045900605055409,0.21156560034532645,839.0,2.9773671110404574,0.5672571503393352,6.239830488306237,-0.02503790459617662,0.129,0.9999999999996279,169.31078341125243,0.6010272289754863,121,2026-10-07 19:46:40.483244,64.3,0.17472686527276926,0.3519488011551076,0.1848135278350817
0002,cdot_cos,R,Q-R,122,24,24422,0.08236482449581174,0.17143518513653866,0.0889030173078696,0.9967194688600215,839.0,3.0443289566477496,0.568472059709313,6.2789809936489425,-0.07135243540379797,0.023,0.999999999999625,-38.12179900173721,0.6059943571471917,122,2026-10-07 19:46:40.506243,64.3,0.522518282767056,1.7323037997468946,2.9113845916214016
0002,cdot_cos,S,R-S,123,24,24479,-0.00010399120938676327,-0.010715170541762745,-0.08246881570519851,0.004953254654399803,839.0,3.0570530858288145,0.5684780952266772,6.30472893391671,-0.013737807059390332,0.057,0.9999999999996074,9545.930343260789,0.6109615040277421,123,2026-10-07 19:46:40.563244,64.3,0.015087725518411033,0.2291901970995121,0.22323033650991075
0002,cdot_cos,T,S-T,124,24,24710,-0.062204480791408154,-0.004603344828720901,-0.06210048958202139,0.018109173754660098,839.0,3.070456639117094,0.5685001609961206,6.330551750066727,-0.014533148953184652,0.231,0.9999999999995911,-36.044149551998906,0.6159287441593793,124,2026-10-07 19:46:40.794244,64.3,0.9467444693318134,0.1749933255268543,0.05802404020900202
0002,cdot_cos,P,T-P,125,25,25109,0.012657180987081282,-7.683535136826805e-05,0.07486166177848944,0.991946839170859,920.0,3.137900002222221,0.5697084163557848,6.369535675240067,-0.07404161290209813,0.399,0.9999999999995889,-49.251562157727754,0.6208960774816629,125,2026-10-07 19:46:41.193243,64.3,0.4476621445869423,0.11521161678283427,0.16903098522588275
0002,cdot_cos,Q,P-Q,126,25,25239,-0.007515096427680402,-0.009114764969533706,-0.020172277414761686,0.21465729027533262,920.0,3.1623955093097957,0.5699697740832333,6.397896913334805,-0.027286176443616653,0.13,0.999999999999571,178.89441002923135,0.6258632644478874,126,2026-10-07 19:46:41.323244,64.3,0.18023008323912965,0.35729393133220233,0.18842697759672716
0002,cdot_cos,R,Q-R,127,25,25266,0.09079657455669007,0.16646904480290478,0.09831167098437048,0.9982058720263629,920.0,3.230796424368594,0.571184633239155,6.436926012148752,-0.07726290165670635,0.027,0.999999999999568,-41.13787591712544,0.6308303942977731,127,2026-10-07 19:46:41.350244,64.3,0.5236981190554648,1.504557852596922,2.533367224399929
0002,cdot_cos,S,R-S,128,25,25319,-0.0012706316321171626,-0.00881233164013233,-0.09206720618880723,0.0026782192345865064,920.0,3.2436416333500295,0.5711878915994364,6.462255406817585,-0.01469379003477237,0.053,0.99999999999955,19202.6375903704,0.6357975397342178,128,2026-10-07 19:46:41.403244,64.3,0.014147731104060268,0.24305445909047987,0.24236243361199447
0002,cdot_cos,T,S-T,129,25,25549,-0.08411950017225948,0.012074795533897195,-0.08284886854014233,0.00483425510492397,920.0,3.2565601970321847,0.5711937730085371,6.487516283116003,-0.014836455626108693,0.23,0.999999999999532,-24.25704263939143,0.6407647876477693,129,2026-10-07 19:46:41.633244,64.3,0.9904302037786995,0.178324512874015,0.0561676681832833
0002,cdot_cos,P,T-P,130,26,26029,0.011387733953876482,-0.00012833887116625567,0.09550723412613596,0.9978521015131642,919.0,3.3256709092720764,0.5724073383012197,6.526449989602008,-0.08031532744640316,0.48,0.9999999999995303,-53.95578813526725,0.6457321842853345,130,2026-10-07 19:46:42.113244,64.3,0.44251875749977393,0.09992472452359884,0.14398065049977446
0002,cdot_cos,Q,P-Q,131,26,26158,-0.0059367766018741325,-0.007052989746560633,-0.017324510555750613,0.24713223779270824,919.0,3.3524879325748396,0.5727077609827731,6.5549422832075,-0.031613305095571476,0.129,0.9999999999995108,162.11166912900438,0.6506993743647363,131,2026-10-07 19:46:42.242244,64.3,0.21426224022696355,0.3743082836068802,0.2078839015718073
0002,cdot_cos,R,Q-R,132,26,26176,0.09524645488429571,0.15480102716924798,0.10118323148616985,0.9985079063223139,919.0,3.4222424464426515,0.5739210342896036,6.593853060122537,-0.08335872583428432,0.018,0.9999999999995077,-42.649434754226455,0.655666497885092,132,2026-10-07 19:46:42.260243,64.3,0.53753795994115,2.300039949040341,3.875250770433998
0002,cdot_cos,S,R-S,133,26,26218,-0.0022365281640667357,-0.007769781039717956,-0.09748298304836245,0.0018921344720999335,919.0,3.435289370740292,0.5739233325565326,6.618809144012541,-0.01578200403247463,0.042,0.9999999999994879,29403.339076670876,0.6606336368917509,133,2026-10-07 19:46:42.302243,64.3,0.013816597216092276,0.4240557321465919,0.3106410547057218
0002,cdot_cos,T,S-T,134,26,26469,-0.02707236487872564,0.0038892696714821046,-0.0248358367146589,0.1684091243763146,919.0,3.4578631279429652,0.5741278766323262,6.646013055271618,-0.027444422941898527,0.251,0.9999999999994713,-57.01665454828847,0.6656009067999729,134,2026-10-07 19:46:42.553244,64.3,0.6538045856082887,0.1780362591128021,0.0899352876600534
0002,cdot_cos,P,T-P,135,27,26948,0.01421550264745496,-0.00011596268170565492,0.0412878675261806,0.9343068268439667,840.0,3.5246635728149185,0.575262191819776,6.68394514819036,-0.08220972778507757,0.479,0.9999999999994676,-48.280500383941074,0.6705683239335445,135,2026-10-07 19:46:43.032243,64.3,0.5136743634230835,0.09581441349661485,0.13945813125668738
0002,cdot_cos,Q,P-Q,136,27,27077,-0.006724852390216359,-0.009608058058179535,-0.020940355037671318,0.20644892998950828,840.0,3.5496533360727223,0.5755127291061934,6.711576741418781,-0.03115378167602921,0.129,0.9999999999994457,203.78581902567555,0.6755355180450319,136,2026-10-07 19:46:43.161243,64.3,0.19420592187470978,0.37184357325723283,0.1937190950217347
0002,cdot_cos,R,Q-R,137,27,27101,0.07998833398506768,0.16833632462766435,0.08671318637528404,0.9962253201426242,840.0,3.6205992147152846,0.5767211565471299,6.7503507760372425,-0.08957742238243509,0.024,0.9999999999994418,-48.34683384972903,0.6805026442653102,137,2026-10-07 19:46:43.185244,64.3,0.5208912939531035,1.7598505833352391,2.9560782767734293
0002,cdot_cos,S,R-S,138,27,27158,-7.247626774420409e-05,-0.010036627697484085,-0.08006081025281188,0.005777958756456895,840.0,3.6341261640728137,0.576728162584688,6.775024592050047,-0.01728048453864278,0.057,0.9999999999994204,10319.233553096366,0.6854697932154769,138,2026-10-07 19:46:43.242244,64.3,0.015241500798484242,0.2340678816999076,0.2373149010092839
0002,cdot_cos,T,S-T,139,27,27388,-0.1304215553459159,-0.009882249950005705,-0.1303490790781717,0.00022902604276770196,840.0,3.647282953229074,0.5767284402885365,6.799530752571294,-0.016869427663049223,0.23,0.9999999999993986,1480.1986997668864,0.6904370584502888,139,2026-10-07 19:46:43.472243,64.3,0.9759275057322553,0.18482378484184236,0.05720343111417515
0002,cdot_cos,P,T-P,140,28,27788,0.01149628167257569,-0.00011489888629182216,0.1419178370184916,0.9998911375923891,920.0,3.7191451051000612,0.5779403865099926,6.8382856822664815,-0.09314477540123946,0.4,0.9999999999993963,-62.93624782009929,0.6954044414590222,140,2026-10-07 19:46:43.872243,64.3,0.44092069804218037,0.12475617428702901,0.17965537967746803
0002,cdot_cos,Q,P-Q,141,28,27917,-0.005677115264524409,-0.0067426129222954954,-0.0171733969371001,0.24894452755736032,920.0,3.7470878926586972,0.578241981449536,6.866246069293506,-0.0367019163955927,0.129,0.9999999999993736,187.14789807513947,0.7003716398528559,141,2026-10-07 19:46:44.001244,64.3,0.21483773492950223,0.38889027345523525,0.21661075626849607
0002,cdot_cos,R,Q-R,142,28,27935,0.10060871481836249,0.16365891686529063,0.1062858300828869,0.9989248065136018,920.0,3.819478795651512,0.5794515844067178,6.904965558623862,-0.09628541320950312,0.018,0.9999999999993706,-49.25872283970612,0.7053387611557869,142,2026-10-07 19:46:44.019244,64.3,0.5385787062025573,2.385991150167725,4.021716832934151
0002,cdot_cos,S,R-S,143,28,27977,-0.0022561409875468653,-0.007793750652533357,-0.10286485580590936,0.0013393772613860887,920.0,3.8329835740647353,0.5794532056283224,6.92925553677323,-0.01816627586494915,0.042,0.9999999999993475,48185.35425802972,0.7103059002897958,143,2026-10-07 19:46:44.061243,64.3,0.013565458852662067,0.3398329354242409,0.3215423431719856
0002,cdot_cos,T,S-T,144,28,28228,-0.057483819876889615,0.012291089081671527,-0.05522767888934275,0.02789165422913127,920.0,3.848024762227148,0.5794869661168789,6.953846618022651,-0.02030804184810242,0.251,0.9999999999993251,-63.44001745020637,0.7152731901293428,144,2026-10-07 19:46:44.312243,64.3,0.8999069283927141,0.17433561302566167,0.05992505243989181
0002,cdot_cos,P,T-P,145,29,28708,0.012067695355092865,-0.00010644479754971453,0.06955151523198248,0.9887064134101518,859.0,3.9205000518036175,0.5806832290528727,6.992355153006996,-0.09889048676682632,0.48,0.9999999999993224,-65.68994370241732,0.7202406494851287,145,2026-10-07 19:46:44.792243,64.3,0.45174333772667247,0.10387570627448708,0.1509901866176444
0002,cdot_cos,Q,P-Q,146,29,28837,-0.006805224677854448,-0.009367920911908051,-0.018872920032947313,0.22907727348063547,859.0,3.9477454402506558,0.5809602611821639,7.019772890844734,-0.03764584465804441,0.129,0.9999999999992968,221.07414856709738,0.7252078519347156,146,2026-10-07 19:46:44.921243,64.3,0.19654511632226637,0.3903602164362647,0.21120456160494788
0002,cdot_cos,R,Q-R,147,29,28867,0.07826088227097852,0.18789010166615738,0.08506610694883297,0.995805386648619,859.0,4.021212987644174,0.5821639324051989,7.058365960021983,-0.10272893840950771,0.03,0.9999999999992933,-54.07049076687199,0.7301749809192221,147,2026-10-07 19:46:44.951244,64.3,0.5307087150799925,1.458351138508333,2.4489182464506007
0002,cdot_cos,S,R-S,148,29,28917,-0.0005105576008930264,-0.010930406211211672,-0.07877143987187155,0.006274273215205665,859.0,4.035246508561156,0.5821715132930142,7.082425533241017,-0.01983829811277345,0.05,0.9999999999992679,10934.159997690416,0.7351421259422695,148,2026-10-07 19:46:45.001244,64.3,0.015324321404527608,0.37485498122270755,0.2806704183396391
0002,cdot_cos,T,S-T,149,29,29148,-0.026031470467017054,-0.0017190349049320361,-0.025520912866124026,0.16232975939359978,859.0,4.0586984857664445,0.5823676346453078,7.108706333413756,-0.033302405110764946,0.231,0.9999999999992462,-68.65191801162516,0.740109410879593,149,2026-10-07 19:46:45.232243,64.3,0.667444968161678,0.20204654317021248,0.10152371084540605
0002,cdot_cos,P,T-P,150,30,29567,0.013128498103355023,-7.509441914053246e-05,0.03915996857037208,0.9253931245160092,900.0,4.128592011505794,0.5834851642100385,7.146208140356299,-0.10031870475065088,0.419,0.9999999999992416,-59.968256549917726,0.7450768453465463,150,2026-10-07 19:46:45.651244,64.3,0.5127156169249756,0.11546069490394731,0.16681032396026105
0002,cdot_cos,Q,P-Q,151,30,29697,-0.0070127630761896995,-0.008897733379921861,-0.020141261179544723,0.21499368717513279,900.0,4.155454548095952,0.5837446740184818,7.173178368163249,-0.039004685873247194,0.13,0.9999999999992151,236.26859903750497,0.7500440532459144,151,2026-10-07 19:46:45.781244,64.3,0.2076366799501565,0.39097583183967854,0.20663489684737285
0002,cdot_cos,R,Q-R,152,30,29727,0.08316654633370436,0.17122465623172672,0.09017930940989406,0.9969771555425021,900.0,4.23024572778411,0.5849474742924244,7.211720578648582,-0.10983837962454435,0.03,0.9999999999992113,-58.8906531581633,0.7550111817165717,152,2026-10-07 19:46:45.811244,64.3,0.5247201572888399,1.4826527948390567,2.493039322938599
0002,cdot_cos,S,R-S,153,30,29776,-0.0008543730247601265,-0.007512886907278886,-0.0840209193584645,0.004484895437790337,900.0,4.244413715786296,0.5849528828065226,7.235471345028035,-0.021027772233664265,0.049,0.9999999999991838,16420.518793038504,0.759978326474063,153,2026-10-07 19:46:45.860243,64.3,0.014647420573317272,0.2872335951897706,0.2891426122894987
0002,cdot_cos,T,S-T,154,30,30007,-0.09630829211766727,0.007363873949106675,-0.09545391909290714,0.0021552585579330164,900.0,4.258394620112708,0.5849554819114061,7.259110422391508,-0.020818991755672065,0.231,0.9999999999991562,80.32783875500043,0.7649456210894472,154,2026-10-07 19:46:46.091244,64.3,0.990021749969934,0.19386037107582976,0.06052339535243324
0002,cdot_cos,P,T-P,155,31,30467,0.011106640485719613,-0.00013400438245047023,0.10741493260338689,0.9990000253620401,959.0,4.333977207223329,0.5861597012470463,7.297633336293878,-0.11363916026867624,0.46,0.9999999999991533,-77.07912152370398,0.7699131087439204,155,2026-10-07 19:46:46.551244,64.3,0.4418444503037843,0.112686456903362,0.16430997197961145
0002,cdot_cos,Q,P-Q,156,31,30596,-0.007882846594198686,-0.008751676321032534,-0.0189894870799183,0.22775629241578016,959.0,4.362066160463801,0.5864341007240294,7.3245637210583485,-0.04273322617931216,0.129,0.9999999999991243,258.4040424163977,0.774880320141533,156,2026-10-07 19:46:46.680243,64.3,0.19027794850581556,0.4040169979637794,0.2177438235695487
0002,cdot_cos,R,Q-R,157,31,30620,0.1030909195061099,0.16251871953930636,0.11097376610030858,0.999204396077562,959.0,4.438213592697984,0.5876373002440657,7.36307847572583,-0.11713452679488923,0.024,0.9999999999991205,-61.836212013557166,0.7798474426305416,157,2026-10-07 19:46:46.704243,64.3,0.5298410498867847,1.8819083754627597,3.172809676424304
0002,cdot_cos,S,R-S,158,31,30676,-0.0020573140677395013,-0.009831581006890057,-0.10514823357384939,0.0011566946476482358,959.0,4.452397762486013,0.5876386924829882,7.386508036576102,-0.02204288229661577,0.056,0.99999999999909,68301.23979637017,0.784814593756291,158,2026-10-07 19:46:46.760243,64.3,0.013380742025360498,0.34627476480845026,0.2532887462148065
0002,cdot_cos,T,S-T,159,31,30906,-0.026923455667349695,0.007418515098017902,-0.024866141599610193,0.16813640356237144,959.0,4.476996366356531,0.5878410525287866,7.412397862125518,-0.038388539866610484,0.23,0.9999999999990652,-80.77512290284962,0.7897818977368487,159,2026-10-07 19:46:46.990243,64.3,0.6532500875027987,0.21127835912419682,0.10695045161094463
0002,cdot_cos,P,T-P,160,32,31426,0.013691672944184661,-0.0001467180804606818,0.04061512861153436,0.9316014054483652,800.0,4.549585807683144,0.5889617387838414,7.449846546172504,-0.1144222756278063,0.52,0.99999999999906,-67.84569313512138,0.7947494621958358,160,2026-10-07 19:46:47.510243,64.3,0.5145301279678736,0.0952909672529948,0.13959507947425628
0002,cdot_cos,Q,P-Q,161,32,31515,-0.008316978792214984,-0.006966559134525487,-0.022008651736399647,0.19542204510702826,800.0,4.576098972299645,0.5891967084960441,7.476072772955511,-0.04224406935421696,0.089,0.9999999999990261,307.180894069101,0.7997166417956301,161,2026-10-07 19:46:47.599244,64.3,0.18111922761224167,0.582626303748661,0.2979007260281048
0002,cdot_cos,R,Q-R,162,32,31573,0.07990360120165432,0.18842372959833528,0.08822057999386931,0.996572816060104,800.0,4.653293289750406,0.5903943234161723,7.51449762148116,-0.1242827978384134,0.058,0.9999999999990218,-68.50175887539683,0.8046837942705001,162,2026-10-07 19:46:47.657243,64.3,0.516801092235046,0.7920971158789742,1.3309365077717297
0002,cdot_cos,S,R-S,163,32,31615,-0.0009191158841532426,-0.010659102957697958,-0.08082271708580757,0.005503235195028171,800.0,4.667982237741606,0.5904009338760754,7.537739238517462,-0.02388452301273258,0.042,0.9999999999989887,15187.789699486513,0.809650932743943,163,2026-10-07 19:46:47.699244,64.3,0.014943382784482817,0.4359021031491386,0.3497368569333496
0002,cdot_cos,T,S-T,164,32,31866,-0.03191366383450912,-0.010044033438709632,-0.03099454795035588,0.11994517606373598,800.0,4.689909066414933,0.5905450033304406,7.562670770328929,-0.03578965365300718,0.251,0.99999999999896,-82.63466182149888,0.8146182663099139,164,2026-10-07 19:46:47.950243,64.3,0.7170270708167552,0.1915542423665754,0.08735788316066517
0002,cdot_cos,P,T-P,165,33,32226,0.010793264264373405,-7.524177433725399e-05,0.04270692809888253,0.939690191019758,919.0,4.764142467409627,0.5916731514123788,7.60018410629188,-0.12230707082514664,0.36,0.9999999999989536,-76.68977021482972,0.8195857053518849,165,2026-10-07 19:46:48.310244,64.3,0.4929346333121701,0.14561038953078267,0.20620389165192748
0002,cdot_cos,Q,P-Q,166,33,32335,-0.006045948756064127,-0.005529243126990079,-0.016839213020437532,0.25298380366129286,919.0,4.794748546877097,0.5919767075150935,7.6270914286954135,-0.050974064082763594,0.109,0.9999999999989221,234.9911798987092,0.8245529071970928,166,2026-10-07 19:46:48.419244,64.3,0.24674544348529134,0.4997834127790386,0.2807897198850424
0002,cdot_cos,R,Q-R,167,33,32388,0.07936227734418336,0.17273793516701333,0.08540822610024748,0.9958962787823148,919.0,4.8730952513954575,0.5931710029733749,7.665463838015074,-0.13185196464587362,0.053,0.9999999999989175,-67.72017761793406,0.8295200560450119,167,2026-10-07 19:46:48.472243,64.3,0.5415070014443741,0.8799729594656854,1.4782397078935998
0002,cdot_cos,S,R-S,168,33,32435,-0.0011211858600526663,-0.007691409975291528,-0.08048346320423602,0.005623919281459519,919.0,4.888025680580459,0.5931777441591474,7.688467455415408,-0.025369159392155848,0.047,0.999999999998883,15795.856819186965,0.8344871998319829,168,2026-10-07 19:46:48.519244,64.3,0.015035626155346192,0.32614292318456517,0.3176687060638696
0002,cdot_cos,T,S-T,169,33,32685,-0.06280022536880939,0.0046457937048720085,-0.06167903950875672,0.01859737712196235,919.0,4.903752686174807,0.59320003590309,7.7116056436053455,-0.026806136437668677,0.25,0.9999999999988488,-64.46229820379051,0.8394545444751395,169,2026-10-07 19:46:48.769243,64.3,0.947805210341778,0.18892005176197202,0.06290802237738902
0002,cdot_cos,P,T-P,170,34,33145,0.012170841214307254,-6.915912471504797e-05,0.07497106658311664,0.9920028407121069,980.0,4.982485706461445,0.5943885415486253,7.749883750804027,-0.13536708096632388,0.46,0.9999999999988444,-91.34238860073718,0.8444221017676625,170,2026-10-07 19:46:49.229243,64.3,0.4484426478232217,0.11706466021591484,0.1711587397535625
0002,cdot_cos,Q,P-Q,171,34,33275,-0.007453636203582704,-0.008126734806865472,-0.01962447741788996,0.22065491910029172,980.0,5.011452173573448,0.5946527555464176,7.776099441032659,-0.05033467938032088,0.13,0.9999999999988077,321.8315543328835,0.8493893284085587,171,2026-10-07 19:46:49.359244,64.3,0.1846412945402985,0.41798201436161153,0.22281897778463772
0002,cdot_cos,R,Q-R,172,34,33303,0.0995572646805449,0.1609528354204397,0.10701090088412761,0.998973733398451,980.0,5.091161030195464,0.5958482469187022,7.814482207129441,-0.1398829743454767,0.028,0.9999999999988027,-74.90501147994816,0.8543564515982088,172,2026-10-07 19:46:49.387244,64.3,0.5272050107783183,1.6889743233224104,2.846744879357718
0002,cdot_cos,S,R-S,173,34,33354,-0.001975318003182327,-0.008345279588505922,-0.10153258268372724,0.0014589983646642352,980.0,5.106034735679503,0.5958499921024946,7.837188744355957,-0.026346565337767955,0.051,0.9999999999987648,65056.99256676927,0.8593235995467363,173,2026-10-07 19:46:49.438244,64.3,0.013442367062904612,0.4132750117653224,0.29164128400076234
0002,cdot_cos,T,S-T,174,34,33585,-0.02437953689844984,0.00826786063914253,-0.022404218895267513,0.19145380294509728,980.0,5.133315081395527,0.5960789789004461,7.862827488031892,-0.04851398907973921,0.231,0.9999999999987336,-96.80655802112487,0.8642909364063939,174,2026-10-07 19:46:49.669244,64.3,0.633225620826977,0.22204252899406207,0.1180967347014026
0002,cdot_cos,P,T-P,175,35,34125,0.013995946644462028,-0.0002035541193865821,0.03837548354291187,0.9218349510083513,859.0,5.20861838407476,0.5971809448858079,7.899967223874152,-0.13513757738864912,0.54,0.9999999999987268,-78.60822335679973,0.8692586040768733,175,2026-10-07 19:46:50.209243,64.3,0.5267638312938367,0.09657357516510834,0.13945056051709756
0002,cdot_cos,Q,P-Q,176,35,34214,-0.006191946310620658,-0.004661608461272286,-0.020187892955082685,0.21448807155699798,859.0,5.237614542573844,0.5974372047687323,7.925906451488699,-0.0525497351781566,0.089,0.9999999999986853,322.2815887840126,0.8742257912336824,176,2026-10-07 19:46:50.298244,64.3,0.2077098947187867,0.6170199652570031,0.3257995336975767
0002,cdot_cos,R,Q-R,177,35,34268,0.09346197205377103,0.17267222866229345,0.09965391836439169,0.9983539788511233,859.0,5.3184479378905065,0.598629287241163,7.964250990819083,-0.14789068422890944,0.054,0.9999999999986793,-79.97848408621057,0.8791929416109121,177,2026-10-07 19:46:50.352243,64.3,0.524834780775495,0.8887420000314666,1.4969147280863375
0002,cdot_cos,S,R-S,178,35,34314,-0.0014367978560242284,-0.007322679278963492,-0.09489876990979526,0.0022334075498618147,859.0,5.333598678577243,0.5986319527349797,7.986752756851183,-0.027971396837586454,0.046,0.9999999999986375,44989.52000619221,0.8841600840607466,178,2026-10-07 19:46:50.398243,64.3,0.013743198155983601,0.3289933726121775,0.3293639279725253
0002,cdot_cos,T,S-T,179,35,34564,-0.09559858996238663,-0.005310221593520397,-0.0941617921063624,0.0023415374964239843,859.0,5.348715328170827,0.5986347472718433,8.009193424009336,-0.02798769425203617,0.25,0.999999999998596,-5.831883866734022,0.8891274523943808,179,2026-10-07 19:46:50.648243,64.3,0.9994178630729907,0.19322257465883652,0.060466598374336655
0002,cdot_cos,P,T-P,180,36,34984,0.011736159864319775,-8.639127044099824e-05,0.1073347498267064,0.9989948616223296,999.0,5.430209965906661,0.5998264229686826,8.047522479748626,-0.15209778763634596,0.42,0.9999999999985905,-104.14754090688238,0.8940950135578363,180,2026-10-07 19:46:51.068243,64.3,0.44220185560908365,0.13325522887120703,0.19403485175198595
0002,cdot_cos,Q,P-Q,181,36,35113,-0.007048414876191581,-0.0074152808107311105,-0.018784574740511355,0.23008201642693746,999.0,5.460649720422641,0.6001007152712032,8.073536272795462,-0.05738819034512972,0.129,0.9999999999985488,345.2871131303195,0.8990622489054181,181,2026-10-07 19:46:51.197243,64.3,0.19198605712636505,0.4358566035542847,0.23596708927116122
0002,cdot_cos,R,Q-R,182,36,35141,0.1012454861624865,0.15560152257959567,0.10829390103867809,0.9990549222525321,999.0,5.542660969623666,0.6012910088743821,8.111866139749289,-0.15605652473365905,0.028,0.9999999999985423,-82.89411463274006,0.9040293697891361,182,2026-10-07 19:46:51.225244,64.3,0.5313893798558351,1.7375957081358242,2.928973185750916
0002,cdot_cos,S,R-S,183,36,35193,-0.001979780131504221,-0.0074727957644832275,-0.10322526629399073,0.0013087350553106691,999.0,5.557955080078247,0.601292567345375,8.134142026444783,-0.029359997436126998,0.052,0.9999999999984976,81295.40291850698,0.9089965194149366,183,2026-10-07 19:46:51.277244,64.3,0.013362844897079996,0.31786777807109634,0.29411750874193293
0002,cdot_cos,T,S-T,184,36,35424,-0.051992158649558265,0.017433914115583253,-0.05001237851805404,0.03857560162584204,999.0,5.57571921854306,0.601338503113155,8.156959288885501,-0.03420191970305206,0.231,0.9999999999984549,-105.40636416733305,0.9139638780788443,184,2026-10-07 19:46:51.508243,64.3,0.8679955179539618,0.2152585857145267,0.07690103231520998
0002,cdot_cos,P,T-P,185,37,35983,0.013192685908027873,-8.413131540918644e-05,0.06518484455758614,0.9851000522409687,900.0,5.657404546678358,0.6025109522707408,8.195042089357303,-0.1585181876950142,0.559,0.9999999999984486,-106.03126556714594,0.918931626478741,185,2026-10-07 19:46:52.067244,64.3,0.45646658681979707,0.09862839180066856,0.14612759952647195
0002,cdot_cos,Q,P-Q,186,37,36113,-0.008712123279979753,-0.011000984392388419,-0.021904809188007628,0.19647403240540165,900.0,5.685985760576208,0.6027446520627652,8.220348681308616,-0.05599781874560829,0.13,0.9999999999983993,438.6840401583098,0.9238988674018312,186,2026-10-07 19:46:52.197243,64.3,0.16028654083710683,0.42936108475990326,0.21985549152192016
0002,cdot_cos,R,Q-R,187,37,36139,0.08781010252292375,0.16933858591919135,0.0965222258029035,0.9979875323322773,900.0,5.769038428715933,0.6039310018073766,8.258639925481987,-0.16415425464375408,0.026,0.9999999999983913,-91.16741196212178,0.9288659841012625,187,2026-10-07 19:46:52.223244,64.3,0.5174353216034062,1.8976518680525147,3.194333389989432
0002,cdot_cos,S,R-S,188,37,36193,-0.0012889683091846069,-0.011475412646240819,-0.08909907083210836,0.0032395686785428235,900.0,5.784663657714939,0.6039348508362907,8.28074516516967,-0.031149337727905575,0.054,0.9999999999983422,34555.447590149604,0.9338331359222499,188,2026-10-07 19:46:52.277244,64.3,0.013983019907250547,0.41185948760306906,0.2893560925741766
0002,cdot_cos,T,S-T,189,37,36423,-0.023086357350641795,0.0017666385088731607,-0.02179738904145719,0.19756675898647422,900.0,5.8135192533770645,0.6041695614897497,8.305965959384158,-0.057734109312483566,0.23,0.999999999998302,-113.26614788378323,0.9388005045439216,189,2026-10-07 19:46:52.507244,64.3,0.6309875991394265,0.22980545102716374,0.12545911157446052
0002,cdot_cos,P,T-P,190,38,36883,0.010770237459943575,-6.945353216910651e-05,0.033856594810585366,0.898163089257789,899.0,5.890374165187434,0.6052359789897783,8.342610136491219,-0.1550274686553705,0.46,0.9999999999982913,-91.2338360353906,0.9437681622716371,190,2026-10-07 19:46:52.967244,64.3,0.5338780306078891,0.11760797973148218,0.1670758952399335
0002,cdot_cos,Q,P-Q,191,38,37012,-0.007927892332734825,-0.010027447885120416,-0.0186981297926784,0.23106813394990688,899.0,5.921718594730028,0.6055101720082283,8.368325363760732,-0.06379533146046021,0.129,0.9999999999982409,332.729614016586,0.9487354074077341,191,2026-10-07 19:46:53.096244,64.3,0.23929086763424914,0.44671874965503156,0.24298007397359844
0002,cdot_cos,R,Q-R,192,38,37043,0.0720538483630625,0.15576937582999742,0.07998174069579733,0.99419276132969,899.0,6.005627602598432,0.6066891542829032,8.406539902465212,-0.172265740807503,0.031,0.9999999999982327,-92.00342674953212,0.9537025293211253,192,2026-10-07 19:46:53.127244,64.3,0.5327680791083076,1.6151983432780033,2.7067421893033528
0002,cdot_cos,S,R-S,193,38,37092,-0.0012432820950290394,-0.01080347054448109,-0.07329713045809154,0.008897871550590923,899.0,6.021860892013264,0.6066997004044489,8.42854999952188,-0.03360656107103952,0.049,0.9999999999981807,13147.88371586343,0.9586696753167775,193,2026-10-07 19:46:53.176243,64.3,0.016148055703400627,0.34511714493384293,0.3312916207108625
0002,cdot_cos,T,S-T,194,38,37342,-0.055836724149457104,0.0005001001207966234,-0.054593442054428065,0.029018937691798134,899.0,6.039449082801949,0.606734094145906,8.450836462938621,-0.036512776621230716,0.25,0.9999999999981303,-84.49838334156057,0.9636370814057243,194,2026-10-07 19:46:53.426244,64.3,0.9234907623737227,0.20336669166781718,0.07035276315473737
0002,cdot_cos,P,T-P,195,39,37782,0.013118307492276453,-0.00011411866048832515,0.06895503164173356,0.9882700261693985,919.0,6.123544237847173,0.6079047749488666,8.488936831334552,-0.1758664094469578,0.44,0.9999999999981221,-119.03640383723616,0.9686047386497834,195,2026-10-07 19:46:53.866244,64.3,0.4527643655249584,0.13008654007443363,0.19112535237550965
0002,cdot_cos,Q,P-Q,196,39,37911,-0.007359735756443228,-0.008876305772970676,-0.02047804324871968,0.21136148706651584,919.0,6.15392523806745,0.6081549881749274,8.514178868305558,-0.06411858754291708,0.129,0.9999999999980689,446.61037173508805,0.9735719890592591,196,2026-10-07 19:46:53.995244,64.3,0.1750243146344386,0.4484122287346932,0.23551162961455305
0002,cdot_cos,R,Q-R,197,39,37937,0.09661385217682222,0.1735587334903807,0.10397358793326546,0.9987526697514716,919.0,6.239234592860724,0.6093365575738714,8.552455268239733,-0.18154447925307354,0.026,0.9999999999980603,-99.38129052352309,0.9785391033062157,197,2026-10-07 19:46:54.021244,64.3,0.5237105681380904,1.9471861904699885,3.2811290305105194
0002,cdot_cos,S,R-S,198,39,37991,-0.0012765471972773924,-0.00881157113035037,-0.09789039937409962,0.0018433002847055983,919.0,6.25517891997189,0.60933873710059,8.574165179223815,-0.03420784769320935,0.054,0.9999999999980048,67600.2869331498,0.9835062563260165,198,2026-10-07 19:46:54.075244,64.3,0.013472559192852004,0.31312288429830026,0.29526531687344243
0002,cdot_cos,T,S-T,199,39,38222,-0.05537697351367842,0.00439600792697336,-0.05410042631640103,0.02992563065790656,919.0,6.27305186436494,0.6093741206930962,8.596288997902418,-0.03844814405581748,0.231,0.9999999999979503,-119.83792662876601,0.9884736497014673,199,2026-10-07 19:46:54.306243,64.3,0.8955778621066477,0.22307887351840014,0.07737205364956942
0002,cdot_cos,P,T-P,200,40,38701,0.014062870313125255,-7.907762939484318e-05,0.06943984382680368,0.988625953971166,860.0,6.358241359537391,0.6105424075549933,8.63438289977925,-0.18456706084724656,0.479,0.9999999999979429,-125.07109474307218,0.9934413859102251,200,2026-10-07 19:46:54.785243,64.3,0.4530808500983485,0.12016830253110346,0.17784863292787126
0002,cdot_cos,Q,P-Q,201,40,38831,-0.00753863021561506,-0.010404237717578261,-0.021601500528740315,0.19957120562032132,860.0,6.388173098189737,0.6107780930211935,8.659283803565371,-0.06542520910469948,0.13,0.9999999999978852,505.51208635573744,0.9984086428817989,201,2026-10-07 19:46:54.915244,64.3,0.16185750750763384,0.4467966058614231,0.23024414347959055
0002,cdot_cos,R,Q-R,202,40,38858,0.08129686585378794,0.1824271403453049,0.088835496069403,0.9967052421201625,860.0,6.474408477061361,0.6119543846333995,8.697515907128004,-0.1900026939746646,0.027,0.9999999999978754,-105.90697372765746,1.0033757570700435,202,2026-10-07 19:46:54.942244,64.3,0.5190984736686931,1.9001538248400718,3.1939029211712313
0002,cdot_cos,S,R-S,203,40,38911,-0.00045347515446267155,-0.010127664090662987,-0.08175034100825061,0.005186238206826685,860.0,6.490781404731101,0.6119605019305041,8.719104971097373,-0.036362110987120375,0.053,0.9999999999978161,25115.762788576532,1.0083429090309644,203,2026-10-07 19:46:54.995244,64.3,0.014621046105980839,0.3174669962210407,0.308923163580012
0002,cdot_cos,T,S-T,204,40,39141,-0.062233206908023066,-0.00837108721681095,-0.06177973175356039,0.01847957506560887,860.0,6.508059978660791,0.6119822987625582,8.740865545355142,-0.03847223886423381,0.23,0.9999999999977573,-96.8089248878192,1.0133103128125347,204,2026-10-07 19:46:55.225244,64.3,0.9466289626271996,0.22540608338801046,0.07512423447691163
0002,cdot_cos,P,T-P,205,41,39561,0.010815836014539284,-0.00010288687752922461,0.07304904292256235,0.9909603445654203,1039.0,6.594468203089586,0.6131504874978605,8.778989150885995,-0.19371516371166422,0.42,0.9999999999977498,-132.89198924457418,1.018277992224822,205,2026-10-07 19:46:55.645243,64.3,0.44870128724836494,0.14204278506715456,0.20573386768760749
0002,cdot_cos,Q,P-Q,206,41,39690,-0.007433677352072299,-0.00731649761350039,-0.018249513366611583,0.23623308177756241,1039.0,6.627375918117201,0.6134287781857207,8.804369896146078,-0.0744265371134637,0.129,0.999999999997692,428.64756817918976,1.0232452535200078,206,2026-10-07 19:46:55.774244,64.3,0.20133802304747536,0.46651208588462145,0.25509856610554027
0002,cdot_cos,R,Q-R,207,41,39718,0.09840157605289508,0.13908318269447206,0.10583525340496738,0.9988932352637914,1039.0,6.714828321247818,0.614604688049621,8.842632330795595,-0.1993636223722744,0.028,0.9999999999976833,-106.2471615336393,1.0282123682007824,207,2026-10-07 19:46:55.802243,64.3,0.5343632380482044,1.8528735337210365,3.123300111807773
0002,cdot_cos,S,R-S,208,41,39770,-0.00251297433983973,-0.007796450698751441,-0.10091455039273481,0.0015180558641526753,1039.0,6.731136836005579,0.6146064741102994,8.86399135107092,-0.037467307026533,0.052,0.9999999999976206,90644.35340729934,1.0331795194404856,208,2026-10-07 19:46:55.854244,64.3,0.013286561339989912,0.35202664608320505,0.31362528380308474
0002,cdot_cos,T,S-T,209,41,40000,-0.0459605040692642,0.02138379998585396,-0.04344752972942447,0.057666862381988496,1039.0,6.751439092440472,0.6146743194689818,8.886254309855053,-0.04676648037015842,0.23,0.9999999999975615,-137.06425206134455,1.0381469359899334,209,2026-10-07 19:46:56.084243,64.3,0.8196788166144773,0.2316153243635003,0.08827068015170833
0002,cdot_cos,P,T-P,210,42,40600,0.010374179279112213,-0.00011472005066917805,0.05633468334837641,0.9739748002046225,1019.0,6.837679885212789,0.6158195306006884,8.924083807725992,-0.20000325483955567,0.6,0.9999999999975528,-133.8065708818597,1.0431149121472965,210,2026-10-07 19:46:56.684243,64.3,0.4647891563064252,0.10075328838616024,0.1437346546205287
0002,cdot_cos,Q,P-Q,211,42,40729,-0.006298554892915984,-0.006304518504983778,-0.0166727341720282,0.25501213312554266,1019.0,6.872343038503864,0.6161191654705022,8.949659471929845,-0.08107963017372108,0.129,0.999999999997488,396.89514354503706,1.0480821781511167,211,2026-10-07 19:46:56.813244,64.3,0.23067373924815007,0.47740593473631815,0.2687066146594965
0002,cdot_cos,R,Q-R,212,42,40751,0.09927032142611417,0.13097526777160992,0.10556887631903016,0.9988741367956381,1019.0,6.960850616374759,0.6172919748293472,8.987918572321737,-0.20864374609489392,0.022,0.9999999999974767,-108.76798940861045,1.0530492813802521,212,2026-10-07 19:46:56.835244,64.3,0.5425924536191448,2.3865869348129936,4.023071721404319
0002,cdot_cos,S,R-S,213,42,40809,-0.0024374680760125777,-0.00829179720376441,-0.10170778950212675,0.001442677403111565,1019.0,6.977352863635636,0.61729366773829,9.00911623281751,-0.03919691630507178,0.058,0.9999999999974084,100092.11098431222,1.0580164415035322,213,2026-10-07 19:46:56.893243,64.3,0.013260530628405761,0.41407462371399606,0.2845215044978738
0002,cdot_cos,T,S-T,214,42,41039,-0.02315722216496971,0.010861017288031882,-0.020719754088957133,0.20878244552117528,1019.0,7.0088832727255825,0.6175386333497295,9.033823179309087,-0.07513227548883336,0.23,0.9999999999973528,-146.69552584378664,1.0629838704976364,214,2026-10-07 19:46:57.123244,64.3,0.6198395857088114,0.24663686809078725,0.137088735173682
0002,cdot_cos,P,T-P,215,43,41619,0.011050957066338483,-9.737732826643697e-05,0.03420817923130819,0.900212320607591,919.0,7.090805822957398,0.618594172329362,9.070383092428367,-0.196585012682933,0.58,0.9999999999973374,-115.06229474953547,1.0679518549437679,215,2026-10-07 19:46:57.703244,64.3,0.5391223171351662,0.1008469555165506,0.14124577626175047
0002,cdot_cos,Q,P-Q,216,43,41728,-0.005655779580682961,-0.005220524111638825,-0.016706736647021443,0.25459698907902356,919.0,7.125865741124781,0.6188924960314318,9.095837630623409,-0.08480391223367245,0.109,0.9999999999972675,374.69734946870966,1.0729190943406963,216,2026-10-07 19:46:57.812243,64.3,0.2676399843731757,0.5716285058304335,0.3216506253888386
0002,cdot_cos,R,Q-R,217,43,41760,0.09822588657631295,0.14953564158304106,0.10388166615699591,0.9987452847655219,919.0,7.215420837228432,0.6200619066301182,9.134095053234084,-0.21825818435019972,0.032,0.9999999999972549,-114.12097022760109,1.0778862114260601,217,2026-10-07 19:46:57.844243,64.3,0.5425628223083782,1.6605696444408484,2.7985967532390963
0002,cdot_cos,S,R-S,218,43,41808,-0.0021629042270640874,-0.007502168923415591,-0.10038879080337704,0.001570171148442881,919.0,7.2321421983689955,0.6200637440186922,9.155144274440142,-0.04105422350384309,0.048,0.999999999997181,96443.37803526477,1.082853355526824,218,2026-10-07 19:46:57.892244,64.3,0.01334865883427234,0.35065775744255734,0.3483616904284004
0002,cdot_cos,T,S-T,219,43,42059,-0.08424297314762705,0.013179650016437987,-0.08208006892056297,0.005077992054143309,919.0,7.249083981942918,0.6200696861783074,9.176206225304458,-0.04169206897521393,0.251,0.9999999999971074,-107.3423658540174,1.0878208309495265,219,2026-10-07 19:46:58.143244,64.3,0.9848174704037747,0.21314952131165532,0.0674971457128378
0002,cdot_cos,P,T-P,220,44,42538,0.012304287459557082,-6.964277626937916e-05,0.09654726060718413,0.9979907627679946,939.0,7.3391432580674465,0.621236813394979,9.214444149060776,-0.22299757297713763,0.479,0.9999999999970954,-155.3433948005751,1.0927886849141994,220,2026-10-07 19:46:58.622243,64.3,0.44350863174565586,0.12805701556910762,0.18801519023909957
0002,cdot_cos,Q,P-Q,221,44,42667,-0.00773672169357597,-0.00903520317868541,-0.020041009153133053,0.2160836209407745,939.0,7.371762602858123,0.6214893339746447,9.239116865586865,-0.08142744203611334,0.129,0.9999999999970213,560.6280926825176,1.0977559618814812,221,2026-10-07 19:46:58.751244,64.3,0.1757654805474634,0.47743408720468844,0.2528631379122202
0002,cdot_cos,R,Q-R,222,44,42694,0.09351811543348318,0.16245748397136325,0.10125483712705916,0.9985147503123567,939.0,7.462321252566256,0.6226553655803614,9.277369822861356,-0.22767784990785178,0.027,0.9999999999970074,-125.42576646697705,1.1027230692613401,222,2026-10-07 19:46:58.778244,64.3,0.5260511812284233,1.990868441765342,3.354024063264193
0002,cdot_cos,S,R-S,223,44,42747,-0.0019021712646150244,-0.010881331076512752,-0.0954202866980982,0.0021599144056766314,939.0,7.479269498713451,0.6226578863224803,9.29827893887028,-0.04291913000355656,0.053,0.9999999999969291,73295.36747015132,1.1076902217590732,223,2026-10-07 19:46:58.831244,64.3,0.01350344470099584,0.557542898290531,0.3197782291923633
0002,cdot_cos,T,S-T,224,44,42978,-0.012102054669658307,0.0025418663647403176,-0.010199883405043284,0.341671903703257,939.0,7.521420799785052,0.6230565531246102,9.32507047978875,-0.10711990624328284,0.231,0.999999999996875,-161.0386816678422,1.1126576785522586,224,2026-10-07 19:46:59.062243,64.3,0.5491763725296952,0.2580399634272506,0.18247316481212567
0002,cdot_cos,P,T-P,225,45,43477,0.010368943306389376,-8.65714539416015e-05,0.022470997976047683,0.8092100082594383,860.0,7.598483961816841,0.6240000839719368,9.360015388296986,-0.1972025294395234,0.499,0.9999999999968502,-95.4739566294765,1.1176256009141665,225,2026-10-07 19:46:59.561243,64.3,0.6333053581867696,0.10614363107472607,0.15443519445248247
0002,cdot_cos,Q,P-Q,226,45,43607,-0.015340882839662815,-0.02099606186469003,-0.02570982614605219,0.16068477545173085,860.0,7.627352143597629,0.6241873291566111,9.383607892885449,-0.07437574074453973,0.13,0.9999999999967669,655.9676763311511,1.1225928856184588,226,2026-10-07 19:46:59.691243,64.3,0.19177428960068676,0.46156048099717983,0.22206293677529132
0002,cdot_cos,R,Q-R,227,45,43631,0.06076938873743784,0.12199044769050554,0.07611027157710065,0.9925634983768336,860.0,7.718489686876108,0.625343133970084,9.421759225683715,-0.2363656077381542,0.024,0.9999999999967523,-140.15330712015162,1.1275599861102972,227,2026-10-07 19:46:59.715244,64.3,0.5039208691080976,3.8105812775664494,3.797397636603287
0002,cdot_cos,S,R-S,228,45,43687,0.1518424369776742,-0.33340115213957167,0.09107304824023635,0.9971454914641823,860.0,7.810260044920819,0.6265028368191702,9.460000272601977,-0.24054339250761897,0.056,0.9999999999967422,-3.6024614173853062,1.1325271452394239,228,2026-10-07 19:46:59.771244,64.3,0.9827818434836547,0.9721631030755026,1.6387563936555478
0002,cdot_cos,T,S-T,229,45,43917,-0.006695164818825077,-0.00044570712788659047,-0.15853760179649926,3.739381692653641e-05,860.0,7.827371954420564,0.6265028802818672,9.480723864822597,-0.045167321358770295,0.23,0.9999999999966601,4495258.800035811,1.1374946198081501,229,2026-10-07 19:47:00.001244,64.3,0.013225522782671577,0.20300806248659867,0.0743996065206331
0002,cdot_cos,P,T-P,230,46,44337,0.013524537096771422,-0.0001519229496911233,0.0202197019155965,0.7858563280839989,919.0,7.903643753664654,0.627415826230972,9.51524735975229,-0.20232278882933494,0.42,0.9999999999966316,-172.1410425498431,1.1424624422523229,230,2026-10-07 19:47:00.421243,64.3,0.45989543296307395,0.1294107526137382,0.18159952200973759
0002,cdot_cos,Q,P-Q,231,46,44466,-0.007818782126708121,-0.009414192551713928,-0.021343319223479543,0.20223633170991753,919.0,7.936076986616104,0.6276506218377472,9.539479386378998,-0.08660653604861751,0.129,0.999999999996551,492.83823649864826,1.1474297344670377,231,2026-10-07 19:47:00.550244,64.3,0.26286503638367364,0.48502979249668826,0.2514204104763588
0002,cdot_cos,R,Q-R,232,46,44493,0.09342603445943985,0.17085769498479672,0.10124481658614798,0.9985137944494754,919.0,8.0287814401288,0.6288090082064693,9.577749434285815,-0.24918734672374715,0.027,0.9999999999965361,-140.35110828736836,1.1523968397316868,232,2026-10-07 19:47:00.577244,64.3,0.5207714099537829,2.0399806691551663,3.4334982782479737
0002,cdot_cos,S,R-S,233,46,44546,-0.0014286297062561907,-0.009639329423109341,-0.09485466416569605,0.0022397362757406404,919.0,8.046235942750483,0.6288116048897349,9.598408549567347,-0.047240926386396806,0.053,0.9999999999964496,77770.9099214395,1.157363994595399,233,2026-10-07 19:47:00.630244,64.3,0.013914563892763354,0.32893374211671383,0.32933023814497525
0002,cdot_cos,T,S-T,234,46,44777,-0.09683132206638034,0.014082008883945509,-0.09540269236012415,0.00216235404718673,919.0,8.063648416793171,0.6288141118512974,9.619022302627378,-0.04722926422322549,0.231,0.9999999999963636,4.651911439514465,1.1623314829204514,234,2026-10-07 19:47:00.861243,64.3,0.9997531038513459,0.23964622492777846,0.07537867550947175
0002,cdot_cos,P,T-P,235,47,45256,0.016033838459922303,-0.00012016407835299707,0.11286516052630265,0.9992954382867951,900.0,8.156952498667117,0.6299719175722756,9.657302951977622,-0.2544881592883996,0.479,0.999999999996351,-179.01008028365962,1.1672994427848324,235,2026-10-07 19:47:01.340243,64.3,0.4428984849275853,0.13157536512018378,0.1947893149769221
0002,cdot_cos,Q,P-Q,236,47,45385,-0.005343047591666834,-0.006751844910324012,-0.021376886051589137,0.20188833469353018,900.0,8.189697616578307,0.6302056489388956,9.681419912452316,-0.08998335462979354,0.129,0.9999999999962641,703.8199752025564,1.1722667407293128,236,2026-10-07 19:47:01.469243,64.3,0.1607075090586428,0.4901118453400643,0.2538381233425612
0002,cdot_cos,R,Q-R,237,47,45414,0.09825435057273829,0.1979794960728741,0.10359739816440512,0.998722169230291,900.0,8.283401354764854,0.6313609960128187,9.719696164906349,-0.25915247105449624,0.029,0.9999999999962479,-146.4227678789863,1.1772338481692435,237,2026-10-07 19:47:01.498244,64.3,0.5205973760184736,1.918854067641454,3.2311633857429722
0002,cdot_cos,S,R-S,238,47,45465,-0.0006002472498567071,-0.005263106001378766,-0.098854597822595,0.0017326819257795574,900.0,8.300991152501512,0.6313629991187711,9.740211144486691,-0.048975965149282846,0.051,0.9999999999961565,104925.30644673025,1.1822009993648068,238,2026-10-07 19:47:01.549243,64.3,0.01368545868129038,0.34324825707499285,0.3448979948364342
0002,cdot_cos,T,S-T,239,47,45696,-0.1810232666835679,0.013645328462275699,-0.1804230194337112,9.15500984344682e-06,900.0,8.318412676986503,0.6313630097026143,9.760652497573133,-0.048609839278832355,0.231,0.999999999996064,34592.90408713163,1.1871685009659534,239,2026-10-07 19:47:01.780244,64.3,0.9924963646456374,0.24189950909255523,0.07541785491338149
0002,cdot_cos,P,T-P,240,48,46156,0.015751897967419277,-0.00023946038890019396,0.19677516465098718,0.9999968009167902,879.0,8.412748725702272,0.6325183209868307,9.79894924211577,-0.2646407125584448,0.46,0.9999999999960509,-186.98932160619677,1.1921364550955484,240,2026-10-07 19:47:02.240243,64.3,0.44205648659802366,0.13914126047348782,0.2050783667734117
0002,cdot_cos,Q,P-Q,241,48,46245,-0.004890682098927617,-0.0035641947862522175,-0.020642580066346894,0.2096033623680212,879.0,8.446422636622112,0.6327602865867603,9.82309948238811,-0.09516185527824937,0.089,0.9999999999959601,700.4254213387924,1.1971036797336512,241,2026-10-07 19:47:02.329243,64.3,0.16847739546381926,0.721175346639527,0.37835854966111687
0002,cdot_cos,R,Q-R,242,48,46297,0.10176088219649576,0.17733276934679745,0.10665156429542338,0.9989497702883973,879.0,8.541117937404108,0.6339125510115319,9.861383334350158,-0.2692881150315779,0.052,0.9999999999959458,-151.1165805434363,1.2020708321865294,242,2026-10-07 19:47:02.381243,64.3,0.5238148742388529,1.0810460582104322,1.8210634765768539
0002,cdot_cos,S,R-S,243,48,46345,-0.0009562783723574584,-0.004179962707891766,-0.10271716056885322,0.0013521403738784772,879.0,8.558851426675997,0.633914109638244,9.881761396021146,-0.05076302308817186,0.048,0.9999999999958484,140203.61016620605,1.2070379777153033,243,2026-10-07 19:47:02.429244,64.3,0.01350347156334571,0.3679846421003237,0.36944769316434495
0002,cdot_cos,T,S-T,244,48,46595,-0.19536879310343022,0.025915094347781043,-0.19441251473107277,3.7239395875088328e-06,879.0,8.576444463045739,0.6339141139308652,9.902073435149322,-0.05046500944306387,0.25,0.9999999999957521,69424.63238027568,1.2120055315217375,244,2026-10-07 19:47:02.679244,64.3,0.9941120503055972,0.22579837740238062,0.07037214547897008
0002,cdot_cos,P,T-P,245,49,47035,0.013415400404067936,-0.0001593602075721268,0.20878419350749816,0.9999985220064811,919.0,8.671750615377187,0.6350660533075347,9.940374846302799,-0.2748158657062717,0.44,0.999999999995738,-194.75925626558484,1.2169734757719761,245,2026-10-07 19:47:03.119244,64.3,0.44203424677210346,0.14777127151676217,0.21660489166238134
0002,cdot_cos,Q,P-Q,246,49,47164,-0.006372312045183451,-0.0076197669371907365,-0.01978771244925139,0.21885525155664373,919.0,8.70648318198049,0.6353179560320209,9.96459226790787,-0.10087702286762132,0.129,0.9999999999956442,690.5000459739143,1.2219407859651275,246,2026-10-07 19:47:03.248243,64.3,0.1783038396906304,0.5054940056982347,0.26924470235118547
0002,cdot_cos,R,Q-R,247,49,47188,0.10549515595987792,0.1829604979960563,0.11186746800506137,0.9992487932779878,919.0,8.802168068847331,0.6364671496233116,10.002886074620278,-0.27961451706602114,0.024,0.9999999999956285,-155.53297160111077,1.2269078803598639,247,2026-10-07 19:47:03.272243,64.3,0.5276995270036112,2.3659917105779784,3.9868702861184007
0002,cdot_cos,S,R-S,248,49,47244,-0.0010486845925452971,-0.007145245674342965,-0.10654384055242322,0.0010575218039166985,919.0,8.820050784088233,0.6364683650120515,10.023133480828239,-0.05259659430280441,0.056,0.9999999999955264,186786.2646045541,1.2318750427624228,248,2026-10-07 19:47:03.328243,64.3,0.013350391715447274,0.3191970945131921,0.3193342007303812
0002,cdot_cos,T,S-T,249,49,47475,-0.10423958402874173,0.01493709481771197,-0.10319089943619643,0.001311626483868414,919.0,8.837918143432809,0.6364698724358165,10.043344887240737,-0.0526579465809355,0.231,0.9999999999954247,-40.70008683303018,1.2368425721483682,249,2026-10-07 19:47:03.559244,64.3,0.9988355688946209,0.24695924515068227,0.0773478759505462
0002,cdot_cos,P,T-P,250,50,47954,0.013657169010444715,-0.00012843924077102553,0.11789675303918644,0.999490087422215,820.0,8.934145955347848,0.6376177835241137,10.081642406590026,-0.28504261108915374,0.479,0.9999999999954111,-202.44134487188003,1.2418106289406552,250,2026-10-07 19:47:04.038244,64.3,0.44252297469016416,0.1372358675597021,0.2008931355220022
0002,cdot_cos,Q,P-Q,251,50,48064,-0.0059373315134358205,-0.0065497512564284726,-0.019594500523880537,0.22098656511907627,820.0,8.969390104555004,0.6378713746557212,10.10580396413907,-0.10513952774068316,0.11,0.9999999999953119,709.4218248409355,1.2467779046267677,251,2026-10-07 19:47:04.148243,64.3,0.18066894734464548,0.5989712919322507,0.320401356428687
0002,cdot_cos,R,Q-R,252,50,48098,0.08938029297114178,0.1900238842936494,0.0953176244845776,0.9978258115484384,820.0,9.065919639572943,0.6390154633153388,10.1440769665067,-0.2896861721248729,0.034,0.9999999999952953,-161.30449579482536,1.2517450187552095,252,2026-10-07 19:47:04.182244,64.3,0.5288464572229077,1.6872537108631358,2.83910397111587
0002,cdot_cos,S,R-S,253,50,48144,-0.0011385324771641036,-0.009232952524001919,-0.09051882544830588,0.0029577612820693485,820.0,9.084123356893697,0.6390188522932136,10.164238058893465,-0.0549769278825359,0.046,0.9999999999951885,69256.64696181743,1.256712160000435,253,2026-10-07 19:47:04.228243,64.3,0.013992529241284586,0.40202157333838523,0.3957329852337751
0002,cdot_cos,T,S-T,254,50,48394,-0.071537064155954,-0.010603314178234966,-0.0703985316787899,0.010701358141775924,820.0,9.102905624320075,0.639031113703261,10.184501091476756,-0.05683895232729224,0.25,0.9999999999950825,-151.86054764977294,1.2616797448501598,254,2026-10-07 19:47:04.478244,64.3,0.9677711310010965,0.23132395191633037,0.07512906970551114
0002,cdot_cos,P,T-P,255,51,48774,0.01308482483125574,-9.011634951028512e-05,0.08462188898720974,0.995684372012294,899.0,9.199785332851862,0.6401711550246929,10.22273497382604,-0.29463464427423613,0.38,0.999999999995068,-208.58515167527332,1.266647618022821,255,2026-10-07 19:47:04.858243,64.3,0.44615597725078243,0.17676318871682078,0.25494660139944053
0002,cdot_cos,Q,P-Q,256,51,48903,-0.0044551494483785585,-0.005589851122563853,-0.017539974279634298,0.24456357257168088,899.0,9.237245647744858,0.6404509348427488,10.247237021530397,-0.11472302788787596,0.129,0.9999999999949701,643.0471562834116,1.2716149413057916,256,2026-10-07 19:47:04.987243,64.3,0.2084146161268435,0.5220657390809171,0.29039003793020457
0002,cdot_cos,R,Q-R,257,51,48935,0.07698419941628976,0.17760735406758105,0.08143934886466832,0.9947095639740056,899.0,9.334478293534739,0.6415878935697974,10.285458608128748,-0.29953466667553164,0.032,0.999999999994954,-162.54911844285735,1.2765820504347127,257,2026-10-07 19:47:05.019244,64.3,0.5395629467396316,1.8109997142639611,3.038520180933757
0002,cdot_cos,S,R-S,258,51,48983,-0.0009344432183362256,-0.0081128742924585,-0.07791864263462599,0.006625586685514551,899.0,9.353149629457752,0.6415954613355825,10.305571330386876,-0.057877381869470376,0.048,0.999999999994843,31932.44765588039,1.281549196629807,258,2026-10-07 19:47:05.067244,64.3,0.015370087882823333,0.7241342332041101,0.38898616506277683
0002,cdot_cos,T,S-T,259,51,49214,-0.006625451340668053,0.0005088077258658905,-0.005691008122331827,0.4095244012636403,899.0,9.403995179922333,0.6420630843547339,10.333049725349968,-0.1581058506185859,0.231,0.9999999999947752,-214.33604558433925,1.286516757048442,259,2026-10-07 19:47:05.298244,64.3,0.5305013904690086,0.2987474559682556,0.22011060807178043
0002,cdot_cos,P,T-P,260,52,49673,0.02186167333995822,-0.00020528253987233547,0.028487124680626273,0.8619667521767054,860.0,9.491170954115086,0.6430464533274747,10.368835155732917,-0.27273728745616443,0.459,0.9999999999947474,-116.57011764169015,1.2914848420534801,260,2026-10-07 19:47:05.757244,64.3,0.6568498439027629,0.12839509307075575,0.18992543397113898
0002,cdot_cos,Q,P-Q,261,52,49802,-0.004491930622345454,-0.006132893564980777,-0.026353603962303674,0.15518014665705887,860.0,9.521861875361287,0.6432233618831996,10.391614930956615,-0.09659702792270392,0.129,0.9999999999946345,995.6570998596828,1.2964521727791212,261,2026-10-07 19:47:05.886244,64.3,0.16146704162820366,0.5009238024003975,0.23791411818760455
0002,cdot_cos,R,Q-R,262,52,49826,0.10355914793166685,0.21615625974832345,0.1080510785540123,0.9990400647726443,860.0,9.620409295134388,0.644361351271238,10.429923304756496,-0.3118322637294191,0.024,0.9999999999946181,-189.13641732436406,1.3014192622666862,262,2026-10-07 19:47:05.910244,64.3,0.5014619220401321,2.437308462218272,4.106142490545898
0002,cdot_cos,S,R-S,263,52,49882,-0.00025695927642823286,-0.005754350477303692,-0.10381610720809507,0.0012600088970961545,860.0,9.638852681547764,0.6443627854992121,10.449831998497125,-0.058716815723687144,0.056,0.9999999999945016,176482.01859515157,1.3063864275611186,263,2026-10-07 19:47:05.966244,64.3,0.013423035934512644,0.32968009819243715,0.32934618595313403
0002,cdot_cos,T,S-T,264,52,50113,-0.0957722829975655,-0.005792452368904391,-0.09551532372113727,0.002146783922302107,860.0,9.657333466131941,0.6443652291089685,10.469719476395998,-0.058948496642856604,0.231,0.9999999999943855,-94.8109322938184,1.3113540023048147,264,2026-10-07 19:47:06.197243,64.3,0.9960774871454502,0.2544524498193818,0.08000339646830068
0002,cdot_cos,P,T-P,265,53,50533,0.01689444298097813,-0.0001703597725695206,0.11266672597854363,0.9992863974032434,700.0,9.756409713364318,0.6455018636278693,10.508033155892122,-0.31749300426085203,0.42,0.9999999999943713,-227.46494437634115,1.3163220259202957,265,2026-10-07 19:47:06.617243,64.3,0.44293539594442927,0.15756263686311303,0.23589582674375467
0002,cdot_cos,Q,P-Q,266,53,50662,-0.006300829597247615,-0.014360935378714072,-0.023195272578225748,0.18370328633991034,700.0,9.789686081096956,0.6457106380213211,10.531246715573907,-0.10733371380597735,0.129,0.9999999999942587,1006.6334619882425,1.321289363162443,266,2026-10-07 19:47:06.746243,64.3,0.14114057901192584,0.48671636445157945,0.2579563390126975
0002,cdot_cos,R,Q-R,267,53,50693,0.02980378613328541,0.2364015099367564,0.03610461573053302,0.9106442555837017,700.0,9.881982535392826,0.646744742584718,10.567921265548094,-0.29922068625047216,0.031,0.9999999999942325,-185.5585781520653,1.3262564677497848,267,2026-10-07 19:47:06.777244,64.3,0.5266131154838213,1.9957873089648301,2.9773049772861135
0002,cdot_cos,S,R-S,268,53,50742,0.003934605007797456,-0.012780777536386862,-0.02586918112548795,0.15930767595662826,700.0,9.913424894252776,0.6469255075773761,10.590652099181566,-0.1025520564474543,0.049,0.9999999999941287,1087.979629855844,1.3312236169476748,268,2026-10-07 19:47:06.826244,64.3,0.14693802511451515,0.5308275010650592,0.641680793060203
0002,cdot_cos,T,S-T,269,53,50973,-0.05254740260291999,-0.06370107394231932,-0.05648200761071745,0.02578615559233015,700.0,9.934003630497202,0.6469547629462766,10.610872212193442,-0.06729327649416197,0.231,0.9999999999940102,1205.2071561010848,1.3361912070590687,269,2026-10-07 19:47:07.057244,64.3,0.5921727076898807,0.2576073008764462,0.08908543828755781
0002,cdot_cos,P,T-P,270,54,51233,0.007983263979024102,-8.94925245467909e-05,0.060530666581944094,0.9800059097814369,1039.0,10.032439467257694,0.6480657988200824,10.648833260583359,-0.3233540825118992,0.26,0.9999999999939942,-230.47033138598482,1.3411588712725113,270,2026-10-07 19:47:07.317244,64.3,0.4529879204867447,0.2249987627817593,0.3785993721557395
0002,cdot_cos,Q,P-Q,271,54,51482,-0.19905255830559046,-0.45653763855750024,-0.20703582228461456,1.6538493847051242e-06,1039.0,10.051002987143717,0.648065800693709,10.668535575303867,-0.06133715133923567,0.249,0.9999999999938628,139844797.76332206,1.3461265111457095,271,2026-10-07 19:47:07.566243,64.3,0.013957346683561425,0.2389807729762343,0.07455228869888579
0002,cdot_cos,R,Q-R,272,54,51513,-0.007963271621355407,0.06111907848295717,0.19108928668423505,0.9999953889075033,1039.0,10.151451892199859,0.6491978489136121,10.706871701595468,-0.3333745708711392,0.031,0.9999999999938451,-240.30550532131127,1.3510936148809176,272,2026-10-07 19:47:07.597243,64.3,0.442191909076296,3.2445653070090423,3.2402872598755526
0002,cdot_cos,S,R-S,273,54,51562,0.5887079596163112,-0.38467534503598577,0.5966712312376666,1.0,1039.0,10.252166036178277,0.6503282257035619,10.745212212749038,-0.33708127064516924,0.049,0.9999999999938354,-3.2791718717037575,1.3560607655331423,273,2026-10-07 19:47:07.646244,64.3,0.9890637827995116,2.0566193367171617,2.055390693437112
0002,cdot_cos,T,S-T,274,54,51792,0.6871787190983292,0.43130936103853007,0.098470759482018,0.9982240988852434,1039.0,10.35300058719814,0.6514549127077245,10.783524059188824,-0.34030835912289703,0.23,0.9999999999938275,-2.8642280116883128,1.36102837977321,274,2026-10-07 19:47:07.876243,64.3,0.9905619839572738,0.260242548434238,0.43841109139071033
0002,cdot_cos,P,T-P,275,55,52272,0.012818203407415315,-7.321420507363824e-05,-0.6743605156909138,1.4736401140632095e-19,978.0,10.371877608458027,0.6514549127077245,10.803184530417463,-0.06407864567225387,0.48,0.9999999999936979,,1.3659966379545432,275,2026-10-07 19:47:08.356243,64.3,0.013422914368881373,0.05799950469950743,0.039327127624762724
0002,cdot_cos,Q,P-Q,276,55,52381,-0.007083066476975272,-0.005917706262296974,-0.019901269884390588,0.21760952568080344,978.0,10.408680111709668,0.6517003025789208,10.826886582061398,-0.12522171397325754,0.109,0.9999999999935778,-249.16704182993976,1.3709639411017336,276,2026-10-07 19:47:08.465244,64.3,0.6136819504130836,0.6338086425767077,0.3376376445104681
0002,cdot_cos,R,Q-R,277,55,52433,0.09192372643335626,0.16407885807555847,0.09900679291033154,0.9982841626986946,978.0,10.510047892539749,0.652824996331246,10.865201515268948,-0.3466763146594264,0.052,0.9999999999935604,-196.90213467294424,1.375931098840607,277,2026-10-07 19:47:08.517244,64.3,0.527928949310698,1.158928224341058,1.9493804005784856
0002,cdot_cos,S,R-S,278,55,52481,-0.0012543937860352052,-0.0053495849818161675,-0.09317812021939147,0.0024940427563939402,978.0,10.529208647041138,0.6528278040579378,10.884842957292234,-0.06590693382085305,0.048,0.9999999999934278,99998.82882383962,1.3808982473713252,278,2026-10-07 19:47:08.565243,64.3,0.014121050499537142,0.39936518292441975,0.3991823854455993
0002,cdot_cos,T,S-T,279,55,52732,-0.09100252153368814,0.0191650665370456,-0.08974812774765294,0.003107561282455029,978.0,10.548386950100493,0.6528313024525161,10.904460885198729,-0.06608719285919942,0.251,0.999999999993297,-51.52621704455068,1.3858659263569872,279,2026-10-07 19:47:08.816243,64.3,0.9972761223896175,0.2414016887922909,0.07640758190978299
0002,cdot_cos,P,T-P,280,56,53250,0.43529699091457225,0.8873802050442433,0.5262995124482603,0.999999999999998,741.0,10.650392294814868,0.6539562120178967,10.942809233021457,-0.3529857886977382,0.518,0.9999999999932805,-255.04147592653317,1.3908343117054944,280,2026-10-07 19:47:09.334244,64.3,0.4436245781878807,0.11680689855218308,0.19692151489261486
0002,cdot_cos,Q,P-Q,281,56,53301,0.21559628226334554,1.1154858186561003,-0.2197007086512267,7.32533840265234e-07,741.0,10.669398897000555,0.6539562128413026,10.962333678178677,-0.06614723592771989,0.051,0.9999999999931231,348356203.3153948,1.3958014648809893,281,2026-10-07 19:47:09.385243,64.3,0.013084003392846663,0.3723086827320244,0.37267847422916023
0002,cdot_cos,R,Q-R,282,56,53331,0.03911387330278522,1.2042472624576062,-0.17648240896056033,1.1795048994432844e-05,741.0,10.688367780453534,0.6539562260995466,10.98182252397703,-0.06613355484860121,0.03,0.9999999999929795,1031.8922369084062,1.4007685628367064,282,2026-10-07 19:47:09.415244,64.3,0.9997931509331084,0.6317162550251906,0.6322961150993105
0002,cdot_cos,S,R-S,283,56,53360,-0.20780950765450315,1.2563582685024122,-0.24692338095728839,1.2724219456151186e-07,741.0,10.707301872302066,0.6539562262425733,11.001276576645736,-0.06612940652269024,0.029,0.9999999999928376,29003.856376186668,1.4057356587336116,283,2026-10-07 19:47:09.444243,64.3,0.9999372715404735,0.6523231199748429,0.6528997189149006
0002,cdot_cos,T,S-T,284,56,53610,-1.5807146403757137,-0.4213701234156908,-1.3729051327212105,4.586047732979282e-39,741.0,10.726202521412075,0.6539562262425733,11.020696283988592,-0.06612933655486795,0.25,0.9999999999926972,,1.4107033405507257,284,2026-10-07 19:47:09.694243,64.3,0.9999989419554328,0.24325076621159525,0.07560259644003509
0002,cdot_cos,P,T-P,285,57,53991,0.009232384403407085,-8.352714666322086e-05,1.5899470247791208,1.0,1059.0,10.828927255407864,0.6550794166175088,11.059043948195576,-0.360896270629643,0.381,0.9999999999926802,-262.4371973377271,1.415671375760711,285,2026-10-07 19:47:10.075244,64.3,0.4418593804645666,0.19533136668393702,0.26961872439839596
0002,cdot_cos,Q,P-Q,286,57,54240,-0.002276384364893003,-0.024460778177186886,-0.01150876876830009,0.32300111913468377,1059.0,10.875045022825235,0.6554418394010246,11.084558702201665,-0.16306024523586699,0.249,0.9999999999925643,545.8708292966114,1.4206390617762032,286,2026-10-07 19:47:10.324243,64.3,0.29722390969010304,0.19423134204928946,0.18521191733884004
0002,cdot_cos,R,Q-R,287,57,54269,-0.010176846578669234,0.12348602223054306,-0.00790046221377623,0.37566255471264287,1059.0,10.92565446374841,0.6558631235011472,11.111057873681368,-0.1796346987544586,0.029,0.9999999999924559,-39.342698938247196,1.4256061543131848,287,2026-10-07 19:47:10.353244,64.3,0.9118611486097045,2.311483829409033,1.745153135281896
0002,cdot_cos,S,R-S,288,57,54320,0.008131249651649497,-0.0203826317710048,0.018308096230318732,0.7644458893788175,1059.0,11.009111084930959,0.6567196488809421,11.144933924651,-0.2976914878177871,0.051,0.9999999999924093,-137.83221355517594,1.430573308132943,288,2026-10-07 19:47:10.404243,64.3,0.67262030894877,1.1820893115361177,1.6364043369127241
0002,cdot_cos,T,S-T,289,57,54571,-0.012157106168250333,-0.0035921176436696177,-0.02028835581989983,0.21340171921664897,1059.0,11.046227573525094,0.6569585736770504,11.168327728116823,-0.13307888649899888,0.251,0.99999999999229,688.9724465611157,1.4355410123639023,289,2026-10-07 19:47:10.655244,64.3,0.2902667199784896,0.2497128573845173,0.14787445655033896
0002,cdot_cos,P,T-P,290,58,55050,0.01115375623422319,-7.457812840705101e-05,0.02331086240247352,0.8174086342996183,820.0,11.134466939337987,0.657873009085099,11.203206159191268,-0.3177682894434445,0.479,0.9999999999922451,-201.97096625835184,1.4405093510707527,290,2026-10-07 19:47:11.134243,64.3,0.5592225391695738,0.1339290763727567,0.18421579501647725
0002,cdot_cos,Q,P-Q,291,58,55160,-0.0062312836015106085,-0.0069307430223844255,-0.0173850398357338,0.24640880727289993,820.0,11.174531628690195,0.6581484371580384,11.227204944009841,-0.14505984009382883,0.11,0.999999999992106,627.0546335618111,1.4454766673634647,291,2026-10-07 19:47:11.244244,64.3,0.30403835904050436,0.6544459560379291,0.36422444865643916
0002,cdot_cos,R,Q-R,292,58,55191,0.09235452156071242,0.18702598843946136,0.09858580516222303,0.9982371644582432,820.0,11.278445049666331,0.6592631432664093,11.265527348615288,-0.37806548091259223,0.031,0.9999999999920832,-209.0287646842475,1.450443764242945,292,2026-10-07 19:47:11.275244,64.3,0.5399329705072573,1.9906380799755958,3.352045837939874
0002,cdot_cos,S,R-S,293,58,55240,-0.0009456779147163305,-0.00763622572674643,-0.09330019947542875,0.0024745901730920273,820.0,11.297951189648682,0.6592659043965573,11.284848374918065,-0.07135866139981345,0.049,0.9999999999919267,111080.17481129729,1.455410913146947,293,2026-10-07 19:47:11.324243,64.3,0.013594333880918638,0.39563017075974705,0.3980844894357315
0002,cdot_cos,T,S-T,294,58,55470,-0.16520237400016527,-0.023570548156316762,-0.16425669608544893,2.58879888803258e-05,820.0,11.317216806400786,0.6592659332821346,11.304089899506282,-0.07059979978194982,0.23,0.9999999999917702,26271.29833490197,1.4603785742993758,294,2026-10-07 19:47:11.554244,64.3,0.9893087830855277,0.26915465874373584,0.08376355109610593
0002,cdot_cos,P,T-P,295,59,55870,0.01660089427863523,-0.00018615038955033296,0.1818032682788005,0.9999916224791445,819.0,11.4217623326708,0.660380830329696,11.342447637488911,-0.38459762456939817,0.4,0.9999999999917499,-281.6384037201022,1.4653467233927444,295,2026-10-07 19:47:11.954243,64.3,0.44200590197408124,0.1747015783762884,0.2613638156750353
0002,cdot_cos,Q,P-Q,296,59,55999,-0.006388729900618859,-0.009683769825223076,-0.02298962417925409,0.18569448756047358,819.0,11.456978069101817,0.6605876671861521,11.36521533181224,-0.13030795574426338,0.129,0.9999999999916006,1229.4214540966889,1.4703141001172755,296,2026-10-07 19:47:12.083244,64.3,0.14206769626371107,0.5421684104247644,0.2729902048916016
0002,cdot_cos,R,Q-R,297,59,56027,0.08277732337742927,0.22122379798996,0.08916605327804812,0.9967743091363764,819.0,11.56164178256039,0.6616968813301625,11.40351315833502,-0.3890308079675703,0.028,0.9999999999915776,-233.24878574654903,1.4752811873213094,297,2026-10-07 19:47:12.111244,64.3,0.5142505729131192,2.2237833613031808,3.737989766377593
0002,cdot_cos,S,R-S,298,59,56079,0.00015865158862599107,-0.005663699512925398,-0.08261867178880328,0.004905988591925346,819.0,11.581509937334795,0.6617023363514094,11.422788982068825,-0.07424824955527481,0.052,0.9999999999914156,57705.102173358624,1.480248345516208,298,2026-10-07 19:47:12.163244,64.3,0.014413418230462592,0.37773570036336857,0.3820798995077983
0002,cdot_cos,T,S-T,299,59,56310,-0.18794770784669954,-0.04221782693883072,-0.18810635943532553,5.586014482951434e-06,819.0,11.60092629539818,0.6617023425625342,11.441938811075076,-0.07268303472840956,0.231,0.9999999999912534,252001.83026802973,1.485216025306328,299,2026-10-07 19:47:12.394243,64.3,0.9786954154402381,0.2702060956320296,0.08405349810989099
0002,cdot_cos,P,T-P,300,60,56689,0.01903006835245832,-0.00020123542633466616,0.20697777619915786,0.9999983399663249,740.0,11.706345153516793,0.6628133523888696,11.480300213682462,-0.39610910243388325,0.379,0.9999999999912338,-291.1099974446488,1.490184142878814,300,2026-10-07 19:47:12.773243,64.3,0.44197253482633636,0.1825793696100688,0.2781500214211421
0002,cdot_cos,Q,P-Q,301,60,56819,-0.007179404675926511,-0.013815149759534916,-0.026209473028384833,0.156399011088867,740.0,11.739321457562612,0.6629869513834177,11.502430846329078,-0.12461210990918317,0.13,0.9999999999910757,1563.9318259389452,1.4951515299115263,301,2026-10-07 19:47:12.903244,64.3,0.11318441225836211,0.5300662571395438,0.2536638772755331
0002,cdot_cos,R,Q-R,302,60,56843,0.06254524400123711,0.2333080677896399,0.06972464867716362,0.9888300452519309,740.0,11.844162380373074,0.6640835090710967,11.540578341757046,-0.39786546198366635,0.024,0.9999999999910529,-249.19195327776328,1.5001186040760672,302,2026-10-07 19:47:12.927244,64.3,0.5031845018378805,2.628719311847272,4.368371783769254
0002,cdot_cos,S,R-S,303,60,56899,0.0021588869543738374,-0.010481466666683975,-0.06038635704686327,0.02017672012278036,740.0,11.865499984531281,0.6641058655797959,11.560058566892534,-0.08140577040086235,0.056,0.9999999999908887,14155.14809761859,1.5050857751811577,303,2026-10-07 19:47:12.983244,64.3,0.0204978429433334,0.3660023160737229,0.3810286456822671
0002,cdot_cos,T,S-T,304,60,57129,-0.1045516100759884,-0.06841097025503506,-0.10671049703036224,0.001046261684282031,740.0,11.885154639773331,0.6641070248541315,11.579139101402841,-0.07511463251506609,0.23,0.9999999999907209,5426.78958068483,1.5100534678945066,304,2026-10-07 19:47:13.213243,64.3,0.9196576237322037,0.27370559352871643,0.08545502279152178
0002,cdot_cos,P,T-P,305,61,57429,0.0185412540789256,-0.0002376869538861882,0.123092864154914,0.9996348624293164,740.0,11.99140455755449,0.665213730928195,11.617496341993894,-0.4075422001189816,0.3,0.9999999999907021,-300.37566016362587,1.515021375514829,305,2026-10-07 19:47:13.513243,64.3,0.44233458639585943,0.23436035633708663,0.3541663926038652
0002,cdot_cos,Q,P-Q,306,61,57558,-0.006182126524832188,-0.011942868000882045,-0.024723380603757786,0.16942422719100816,740.0,12.025770853575583,0.6654011226865986,11.639804542261082,-0.13255819932851945,0.129,0.999999999990547,1467.428467148972,1.519988767777808,306,2026-10-07 19:47:13.642244,64.3,0.12562678742767414,0.5409444662412,0.2664053955123444
0002,cdot_cos,R,Q-R,307,61,57586,0.057032470927177954,0.23851150157188544,0.06321459745201014,0.9831216082745708,740.0,12.13096822984472,0.6664874739728233,11.67784290031971,-0.40746538804894855,0.028,0.9999999999905261,-253.05551915512578,1.524955853508205,307,2026-10-07 19:47:13.670244,64.3,0.5093213258007141,2.274561802752048,3.7570491524691842
0002,cdot_cos,S,R-S,308,61,57638,0.0018421748120845643,-0.009076787434787386,-0.05519029611509339,0.02795690180164529,740.0,12.153146314529698,0.6665183406354999,11.697388383462961,-0.0863524676597778,0.052,0.9999999999903599,10403.227707303175,1.5299230142919686,308,2026-10-07 19:47:13.722244,64.3,0.02426717888860236,0.4775234057971918,0.42650162855725976
0002,cdot_cos,T,S-T,309,61,57869,-0.03433026940572717,-0.02265299897809587,-0.03617244421781173,0.08900148897214429,740.0,12.180630664047628,0.6666165959135046,11.718089447240063,-0.10721590562331795,0.231,0.9999999999902041,-212.3391067350674,1.5348907273997645,309,2026-10-07 19:47:13.953243,64.3,0.8231698253722897,0.2830018965356044,0.1189798680429889
0002,cdot_cos,P,T-P,310,62,58169,0.0133746441497275,-0.00014673178483229653,0.04770491355545467,0.9555289200756677,799.0,12.283893190729147,0.6676705612999926,11.75559288266069,-0.4043467018218526,0.3,0.9999999999901806,-281.9170344755281,1.5398586586349718,310,2026-10-07 19:47:14.253243,64.3,0.47958139626604823,0.23596366969037774,0.3442084222717294
0002,cdot_cos,Q,P-Q,311,62,58298,-0.007102229108284806,-0.011362092531229162,-0.020476873258012306,0.21137402732976324,799.0,12.322208865861855,0.6679034844805312,11.778646607058436,-0.15084855234314415,0.129,0.9999999999900306,1088.3337111083304,1.5448260594803638,311,2026-10-07 19:47:14.382244,64.3,0.18628432283056756,0.5620443014142266,0.29702073746285146
0002,cdot_cos,R,Q-R,312,62,58328,0.06502137391220703,0.20281062261100005,0.07212360302049184,0.9904114204623313,799.0,12.428900620494018,0.6689937712610844,11.816826618953629,-0.4218199059786804,0.03,0.9999999999900134,-248.5321829712005,1.549793151208873,312,2026-10-07 19:47:14.412243,64.3,0.5260356151162829,2.132932193627468,3.5563918210720877
0002,cdot_cos,S,R-S,313,62,58378,0.0006913626828018486,-0.010298858398662061,-0.06433001122940518,0.015728619177797103,799.0,12.450184797479503,0.6690110714019114,11.836054718140366,-0.08458288400587367,0.05,0.9999999999898422,19493.31079699669,1.5547603074669818,313,2026-10-07 19:47:14.462244,64.3,0.018554185839401147,0.5842621316114993,0.4256835397097092
0002,cdot_cos,T,S-T,314,62,58608,-0.021240208574473455,-0.00669554977795667,-0.021931571257275302,0.19620250801010933,799.0,12.487326833655167,0.6692268390357812,11.858770491533615,-0.14789935204275378,0.23,0.999999999989702,-293.44747820285414,1.5597280357231071,314,2026-10-07 19:47:14.692243,64.3,0.6517429079922655,0.29529366297841353,0.16148711380723682
0002,cdot_cos,P,T-P,315,63,58968,0.011937498907134313,-9.838319951657405e-05,0.03317770748160777,0.8941003993751679,920.0,12.586019882449573,0.6702091962729338,11.895074466796585,-0.3945400509147432,0.36,0.9999999999896716,-251.0702721413932,1.5646961836533,315,2026-10-07 19:47:15.052243,64.3,0.5351893031319118,0.19411108434789587,0.27414735776223825
0002,cdot_cos,Q,P-Q,316,63,59097,-0.006076836515452954,-0.007219629940561369,-0.018014335422587267,0.23897236244650719,920.0,12.627086814385653,0.6704715065755517,11.918604419448597,-0.16501964316732115,0.129,0.9999999999895203,874.9957796428563,1.569663592880587,316,2026-10-07 19:47:15.181243,64.3,0.24885940210216007,0.5787515403803933,0.3183483095820096
0002,cdot_cos,R,Q-R,317,63,59114,0.09296534767783579,0.14905237064534257,0.09904218419328875,0.9982880562437073,920.0,12.735337779867715,0.6715661378767085,11.956937610293132,-0.436819977787615,0.017,0.9999999999895051,-248.30309012089123,1.5746306417270792,317,2026-10-07 19:47:15.198244,64.3,0.5367488123962437,3.77994685920622,6.367703851886015
0002,cdot_cos,S,R-S,318,63,59157,-0.002067367912012802,-0.007185531050143397,-0.09503271558984859,0.002214296873497127,920.0,12.755605007598664,0.6715685638067859,11.97582546109046,-0.08219773516434072,0.043,0.9999999999893273,146179.91092586107,1.5795977764392584,318,2026-10-07 19:47:15.241244,64.3,0.013376470152236771,0.4896383526779246,0.4713308774639359
0002,cdot_cos,T,S-T,319,63,59408,-0.06235254331841831,0.013382393614844747,-0.06028517540640551,0.02030574318424804,920.0,12.777446678198016,0.6715908098607397,11.995037917937994,-0.08872643546803391,0.251,0.9999999999891541,-293.47678097152124,1.5845655903030273,319,2026-10-07 19:47:15.492243,64.3,0.9290596275141019,0.2589891848040115,0.08701860796554689
0002,cdot_cos,P,T-P,320,64,59888,0.012886264377688156,-0.0001356135264825787,0.07523880769610647,0.9921382663824787,1059.0,12.885617578370278,0.6726768123295844,12.033251764631682,-0.4409053699487507,0.48,0.9999999999891394,-324.2892576987998,1.5895341606770599,320,2026-10-07 19:47:15.972243,64.3,0.4498850887145237,0.1567680539514079,0.2253560420255448
0002,cdot_cos,Q,P-Q,321,64,59977,-0.004242424613814679,-0.002454808361983185,-0.017128688991502834,0.24948240525328563,1059.0,12.927944009991368,0.6729496075199146,12.056927885734341,-0.17346044570927402,0.089,0.9999999999889788,980.3872418562958,1.594501444410343,321,2026-10-07 19:47:16.061243,64.3,0.2139911101549865,0.8512511578004898,0.47557788338303447
0002,cdot_cos,R,Q-R,322,64,60032,0.1099042624951414,0.13168482501189535,0.11414668710895608,0.9993511318754559,1059.0,13.037140284458765,0.6740411692121066,12.095280976425135,-0.44935531112646093,0.055,0.9999999999889635,-252.75242562165255,1.5994686171824912,322,2026-10-07 19:47:16.116243,64.3,0.5411930019195333,1.1772145077286018,1.9853868084981292
0002,cdot_cos,S,R-S,323,64,60077,-0.0015509243279384186,-0.0031949846514482245,-0.11145518682307982,0.0007713717133520087,1059.0,13.057437605841514,0.6740420110318915,12.114063070922683,-0.08394254595468231,0.045,0.9999999999887759,434074.8123133603,1.6044357577489143,323,2026-10-07 19:47:16.161243,64.3,0.012866485063090448,0.45916538381691496,0.4510515862833131
0002,cdot_cos,T,S-T,324,64,60328,-0.07417467487832481,0.0450087602038935,-0.07262375055038639,0.009287939929142543,1059.0,13.078465169002287,0.6740521471354909,12.132983450179132,-0.08709887560720433,0.251,0.9999999999885915,-311.3947703460636,1.6094035895114573,324,2026-10-07 19:47:16.412243,64.3,0.9644102868834975,0.2598166523263628,0.08377515203495321
0002,cdot_cos,P,T-P,325,65,60947,0.013577867563407214,-0.0001518773717581756,0.08775254244173203,0.9964684776905356,900.0,13.187865565309348,0.6751386649612369,12.171280812441498,-0.45462406953815043,0.619,0.9999999999885752,-338.2597001375572,1.6143726677921626,325,2026-10-07 19:47:17.031244,64.3,0.44556345410538944,0.12002862495322217,0.17673731228927445
0002,cdot_cos,Q,P-Q,326,65,61036,-0.006944275513633032,-0.004950301306684706,-0.020522143077040245,0.21088921081501658,900.0,13.227060606694376,0.6753683708840034,12.19414070684254,-0.16374036026370742,0.089,0.999999999988391,1266.3309059302437,1.6193399532576485,326,2026-10-07 19:47:17.120243,64.3,0.16923049052469585,0.8378594407305421,0.4403937234272827
0002,cdot_cos,R,Q-R,327,65,61089,0.09252844172876326,0.15140905793837134,0.09947271724239629,0.9983347206405404,900.0,13.337004545759385,0.676454636065106,12.232472197197671,-0.4610868460035713,0.053,0.9999999999883687,-273.7328701247964,1.6243071178526711,327,2026-10-07 19:47:17.173243,64.3,0.5247245944185239,1.2314032053982213,2.0744139446227985
0002,cdot_cos,S,R-S,328,65,61136,-0.0018838826046768276,-0.007292963121171429,-0.09441232433344009,0.002304205565543569,900.0,13.357589346466588,0.6764571410247733,12.251207396058403,-0.08675342193285963,0.047,0.9999999999881691,149436.90669552234,1.6292742631228512,328,2026-10-07 19:47:17.220243,64.3,0.013367719209789837,0.5627691155979504,0.4379744831319818
0002,cdot_cos,T,S-T,329,65,61387,-0.031060146123676528,0.0024608151504859283,-0.0291762635189997,0.13284511045779102,900.0,13.389904842625592,0.6766015431658582,12.272488017110057,-0.13642963554725113,0.251,0.9999999999879943,-344.01299898442323,1.6342421118320136,329,2026-10-07 19:47:17.471244,64.3,0.694810589811422,0.2757515220850937,0.1287469966494191
0002,cdot_cos,P,T-P,330,66,61847,0.014928398294889273,-0.00017666582141778045,0.0459885444185658,0.950596264984138,959.0,13.496016610553305,0.6776338546672169,12.309878515288807,-0.4495479519467528,0.46,0.9999999999879629,-303.31766718415105,1.6392106901465051,330,2026-10-07 19:47:17.931243,64.3,0.4983173434459189,0.15639334052434745,0.23067775636459306
0002,cdot_cos,Q,P-Q,331,66,61976,-0.0074431561940571005,-0.008295585868050384,-0.022371554488946375,0.1917791418141885,959.0,13.533786715907992,0.6778419100288527,12.332302296145087,-0.1608170894090283,0.129,0.9999999999877736,1387.7597782994067,1.644178118855276,331,2026-10-07 19:47:18.060243,64.3,0.1660611589998102,0.5759939014197867,0.2927915143774173
0002,cdot_cos,R,Q-R,332,66,62002,0.09858784432985554,0.1587130124071335,0.10603100052391264,0.9989070631718463,959.0,13.64462303711961,0.6789244529754105,12.370642156975828,-0.473672069095921,0.026,0.9999999999877467,-289.00006293672305,1.6491451883652066,332,2026-10-07 19:47:18.086244,64.3,0.516598886704807,2.5290671426042324,4.262935431216082
0002,cdot_cos,S,R-S,333,66,62056,-0.001859840714626356,-0.008910143787070727,-0.1004476850444819,0.001564245595735821,959.0,13.665298207323412,0.6789261466873691,12.389289476837117,-0.0887853979766513,0.054,0.999999999987539,227244.46690667782,1.6541123579944348,333,2026-10-07 19:47:18.140243,64.3,0.013101583236064092,0.38430943752823216,0.38287352229262855
0002,cdot_cos,T,S-T,334,66,62287,-0.0893015818890185,0.0242124622825356,-0.08744174117439214,0.003602551215473757,959.0,13.686128456372659,0.6789300473894537,12.407949385183935,-0.08958672343512951,0.231,0.9999999999873318,-205.43108422137814,1.6590801536491442,334,2026-10-07 19:47:18.371244,64.3,0.9910951948512452,0.28595930637783373,0.09017423830842913
0002,cdot_cos,P,T-P,335,67,62806,0.015664921008310233,-8.958073381372758e-05,0.10496650289732873,0.9988297256797758,900.0,13.797411406869971,0.6800105763995709,12.44628773056923,-0.4800599915433866,0.519,0.9999999999873087,-361.3723134244502,1.6640489780067271,335,2026-10-07 19:47:18.890244,64.3,0.4433550704633341,0.14301245069552398,0.21441801637247027
0002,cdot_cos,Q,P-Q,336,67,62936,-0.007698454217588948,-0.009713686231708367,-0.02336337522589918,0.18208794603069153,900.0,13.834575380194613,0.6802073506610834,12.468458919260165,-0.1611341815627039,0.13,0.9999999999871061,1620.7699499375374,1.6690164165442731,336,2026-10-07 19:47:19.020243,64.3,0.13817198676877593,0.5720483570513716,0.2858767178818602
0002,cdot_cos,R,Q-R,337,67,62963,0.08835120947584754,0.17307467376484847,0.0960496636934365,0.9979255722735502,900.0,13.946143979703328,0.6812846238012479,12.506775680767754,-0.4854672339547894,0.027,0.9999999999870758,-301.0685408368815,1.6739834867203467,337,2026-10-07 19:47:19.047244,64.3,0.5126897813941372,2.454300305349425,4.132170352174621
