record_id,input,event,transition,event_index,k,peak,value_cos,value_sin,value_return,x_input,rr,knowledge,decision,decision_norm,entropy,delta_t,cosine_similarity,delta_h_over_delta_d,frobenius_norm,matrix_size,timestamp,scale,P,zdot,zdot_back
0323,cdot_cos,Q,P-Q,1,0,1362,-0.00953443820457323,-0.01009066946248968,-0.03522991869409069,0.2930228056753418,998.0,0.0014554857473400241,0.5003638713725984,0.5003638713725984,,,1.0,,0.004967141530112327,1,2026-10-08 02:16:17.446244,25.0,,,
0323,cdot_cos,R,Q-R,2,0,1392,0.13626028374259339,0.21155527300849716,0.1457947219471666,0.9745402748390478,998.0,0.008904122244019461,0.50157403610503,0.709332804393946,-1.3915549180519343e-05,,1.0,,0.009934283060224654,2,2026-10-08 02:16:17.476243,25.0,,,
0323,cdot_cos,S,R-S,3,0,1441,-0.0030863950751340843,-0.011946321884697002,-0.13934667881772747,0.029780544704472355,998.0,0.011161490248711714,0.5016110167749545,0.8688157666905055,-8.168359237230494e-06,0.049,1.0,0.15541064980801578,0.014901424597787108,3,2026-10-08 02:16:17.525243,25.0,0.4948049065905936,0.04544349810139303,0.04606873478963781
0323,cdot_cos,T,S-T,4,0,1671,-0.12324137261679641,0.04958979306400608,-0.12015497754166232,0.04725114558420502,998.0,0.013357585057955979,0.5016696919252509,1.0033393838513769,-9.710349954053586e-06,0.23,1.0,-0.026280132373455337,0.019868566168196815,4,2026-10-08 02:16:17.755244,25.0,0.8531681048410995,0.03176306942259676,0.00954823830106202
0323,cdot_cos,P,T-P,5,1,2230,0.024663525027502322,2.167480398468069e-05,0.14790489764429873,0.9758169357950266,998.0,0.025772502183106224,0.5028814214403857,1.1244770429688706,-8.760416804982846e-05,0.559,1.0000000000000002,-0.06428317303726676,0.02483570790715657,5,2026-10-08 02:16:18.314244,25.0,0.41100227459061395,0.016579307893896857,0.022209154070036215
0323,cdot_cos,Q,P-Q,6,1,2359,-0.009059441417957882,-0.009615888812151016,-0.033722966445460203,0.3008877254199605,998.0,0.03189325128333267,0.5032550453324102,1.232718071571413,-6.364857633176183e-05,0.129,0.9999999999999998,0.06411686251718443,0.029802849498546526,6,2026-10-08 02:16:18.443244,25.0,0.6863464280359403,0.0828086514274851,0.04744766744361584
0323,cdot_cos,R,Q-R,7,1,2390,0.1242132583634573,0.20386133011554672,0.13327269978141518,0.9655043538758017,998.0,0.04713713425139738,0.504453922699886,1.334659627395387,-0.00021724000090196454,0.031,1.0,-0.12811270671793806,0.03476999102434727,7,2026-10-08 02:16:18.474244,25.0,0.49311511614880393,0.3074133342477377,0.491738160260152
0323,cdot_cos,S,R-S,8,1,2440,-0.0029687017770445114,-0.011535397330930394,-0.12718196014050182,0.039942624822647814,998.0,0.050952878006692404,0.5045035188877828,1.426951437397284,-6.749215707705856e-05,0.05,1.0,3.0193418118448783,0.03973713260897792,8,2026-10-08 02:16:18.524243,25.0,0.10874556686413005,0.07723880035456043,0.07631487510590049
0323,cdot_cos,T,S-T,9,1,2669,-0.116839252983476,0.04598797317586355,-0.11387055120643148,0.0548488428150658,998.0,0.05486101428685342,0.5045716237694753,1.5137148713694732,-7.4569397362996e-05,0.229,1.0000000000000002,-0.10391678408444799,0.04470427454632127,9,2026-10-08 02:16:18.753243,25.0,0.9094565040212771,0.048218561713152044,0.01706609729327956
0323,cdot_cos,P,T-P,10,2,3228,0.019833524713204754,4.577034922275244e-05,0.13667277769668076,0.9682260694233323,979.0,0.07303697927131604,0.5057738234867825,1.5993972632609665,-0.00041916773365541487,0.559,1.0000000000000002,-0.28663984139364995,0.04967141744448421,10,2026-10-08 02:16:19.312243,25.0,0.4395071497275235,0.024007244904237682,0.032515143084906294
0323,cdot_cos,Q,P-Q,11,2,3338,-0.012258709970911618,-0.010433879342689393,-0.03209223468411637,0.3095324877338452,979.0,0.08170111408979115,0.5061581416626717,1.6787366408824758,-0.00024173587738912297,0.11,1.0,0.4616795858164837,0.05463855916841016,11,2026-10-08 02:16:19.422244,25.0,0.47998972691074343,0.13074868575914572,0.07876486198613737
0323,cdot_cos,R,Q-R,12,2,3388,0.11189424093502398,0.1962200958668336,0.1241529509059356,0.9570501966632018,979.0,0.1018016901383281,0.5073463753073509,1.7574993986116696,-0.0006650311633446157,0.05,0.9999999999999997,-0.35623910150243293,0.05960570073271777,12,2026-10-08 02:16:19.472243,25.0,0.5291388333745161,0.25211234484895023,0.40201152097073894
0323,cdot_cos,S,R-S,13,2,3438,-0.0032219054406140246,-0.014108019880061738,-0.11511614637563801,0.053256735912118706,979.0,0.10691234857468618,0.5074124943379662,1.8295017666585762,-0.0001923169711362844,0.05,0.9999999999999999,7.149442268126726,0.06457284235805849,13,2026-10-08 02:16:19.522244,25.0,0.0856064026396601,0.10431397629774519,0.10221316872716157
0323,cdot_cos,T,S-T,14,2,3668,-0.10722394518589985,0.03510355668289135,-0.10400203974528582,0.06913513855201874,979.0,0.11223308776810262,0.5074983262547537,1.8988848617714948,-0.00021022834479604615,0.23,0.9999999999999996,-0.20867964191123142,0.06953998502408519,14,2026-10-08 02:16:19.752243,25.0,0.9183289555255179,0.060362182527769745,0.023133648667028002
0323,cdot_cos,P,T-P,15,3,4207,0.022035637220842716,2.3097139595966262e-05,0.12925958240674257,0.9620022396945458,978.0,0.13467895253746026,0.5086926128451055,1.970158018782408,-0.0009991527282335888,0.539,1.0,-0.6605821331420476,0.07450712996390374,15,2026-10-08 02:16:20.291244,25.0,0.4540293735345363,0.030560142292724475,0.041643533894912134
0323,cdot_cos,Q,P-Q,16,3,4337,-0.010707395227617504,-0.011749165542143366,-0.03274303244846022,0.306066059243624,978.0,0.1451769211596596,0.5090725612351402,2.0362902467027806,-0.0005296405595511542,0.13,0.9999999999999998,1.2357261696503006,0.07947427212753816,16,2026-10-08 02:16:20.421243,25.0,0.4121066049473591,0.13316785060015693,0.08075360478614879
0323,cdot_cos,R,Q-R,17,3,4367,0.11625233221841297,0.2080184613955212,0.12695972744603048,0.959843779674112,978.0,0.16930259369350106,0.510264034981795,2.1038725151972706,-0.0013676447115907391,0.03,0.9999999999999997,-0.7033341308546857,0.08444141350251995,17,2026-10-08 02:16:20.451244,25.0,0.5418666883195216,0.5009626611320539,0.8041890844613819
0323,cdot_cos,S,R-S,18,3,4416,-0.0027380631607278353,-0.011935007425207578,-0.1189903953791408,0.04857925112050742,978.0,0.17523468082758284,0.510324334415037,2.165122786859804,-0.0003684198987635994,0.049,0.9999999999999997,16.57104816916431,0.08940855516607897,18,2026-10-08 02:16:20.500243,25.0,0.06639124197280173,0.1341982914300233,0.12106300273636277
0323,cdot_cos,T,S-T,19,3,4646,-0.08569529334927016,0.022915237634638003,-0.08295723018854233,0.11165655391632212,978.0,0.18245402625364335,0.5104629279770723,2.2250563196340165,-0.0004654761005632895,0.23,0.9999999999999994,-0.7002937248628437,0.09437569893404964,19,2026-10-08 02:16:20.730243,25.0,0.8117933002898643,0.07117815937460935,0.03138845837417612
0323,cdot_cos,P,T-P,20,4,5185,0.021335198685565646,1.5287985313273905e-05,0.1070304920348358,0.9355811925504023,998.0,0.20797663413990314,0.5116241517358393,2.2880527673529807,-0.0017960512418978732,0.539,0.9999999999999996,-1.1458387165169261,0.09934284697911089,20,2026-10-08 02:16:21.269243,25.0,0.4767163500572023,0.03485773254623087,0.04735177715447085
0323,cdot_cos,Q,P-Q,21,4,5315,-0.011811956006060423,-0.012561079979504704,-0.03314715469162607,0.30392448918412673,998.0,0.22003066193848023,0.5120013500497248,2.346284947488844,-0.0009298601391061567,0.13,0.9999999999999991,2.2963811631847877,0.1043099896748752,21,2026-10-08 02:16:21.399244,25.0,0.39395114559871797,0.1528004564801518,0.0927232907582853
0323,cdot_cos,R,Q-R,22,4,5345,0.12155921182191348,0.2008496274200994,0.1333711678279739,0.9655862486604373,998.0,0.2477047528247426,0.5131996388584785,2.407119679535969,-0.0023326812251315814,0.03,0.9999999999999992,-1.1706869627568546,0.10927713092003088,22,2026-10-08 02:16:21.429244,25.0,0.5480563840630356,0.5707059963747397,0.9224696962087461
0323,cdot_cos,S,R-S,23,4,5395,-0.003500003352282493,-0.013615896295338603,-0.12505921517419596,0.04202808486377873,998.0,0.2542730217209646,0.5132517922037619,2.461469130000059,-0.0005941755703270659,0.05,0.9999999999999989,33.33449935679316,0.11424427264483376,23,2026-10-08 02:16:21.479244,25.0,0.053615751858930465,0.13297273354343248,0.13136537792444003
0323,cdot_cos,T,S-T,24,4,5624,-0.11979892787565166,0.0471552824827527,-0.11629892452336917,0.05178537439760698,998.0,0.26100202617908586,0.5133160531339861,2.514724819684008,-0.0006248364256753306,0.229,0.9999999999999988,-0.4771305868326527,0.11921141782298883,24,2026-10-08 02:16:21.708243,25.0,0.9521142783038702,0.07915447665567163,0.0293842989437609
0323,cdot_cos,P,T-P,25,5,6183,0.022168948887005647,5.218318784607837e-05,0.14196787676265732,0.972055620001597,1018.0,0.2905257720292622,0.5145222015543974,2.5726110149934387,-0.002933978325082707,0.559,0.999999999999999,-1.9144757480342973,0.12417857026127367,25,2026-10-08 02:16:22.267244,25.0,0.4551927106602147,0.03824599312810977,0.05281528774629045
0323,cdot_cos,Q,P-Q,26,5,6313,-0.01260337545458314,-0.013028442710381763,-0.034772324341588785,0.29539829061480566,1018.0,0.3037610464963126,0.5148887055162851,2.62542756784085,-0.0014171908646710622,0.13,0.9999999999999983,4.138529506201183,0.12914571362274194,26,2026-10-08 02:16:22.397243,25.0,0.34291335429045994,0.16903571208721446,0.10180980359269509
0323,cdot_cos,R,Q-R,27,5,6343,0.12103720351243168,0.18886562185460828,0.1336405789670148,0.9658093577457797,1018.0,0.334475057171938,0.5160868821433016,2.6816661149836682,-0.003531446710698511,0.03,0.9999999999999984,-1.7645610825275697,0.1341128546850315,27,2026-10-08 02:16:22.427244,25.0,0.5495288696018019,0.6323404702353856,1.0238003558541802
0323,cdot_cos,S,R-S,28,5,6393,-0.004627270866984118,-0.016369056852026616,-0.1256644743794158,0.0414230695473303,1018.0,0.3417014747104357,0.5161382672886169,2.7311470068260966,-0.0008802682220292865,0.05,0.9999999999999977,51.59425885438282,0.1390799964442507,28,2026-10-08 02:16:22.477243,25.0,0.049203779331267926,0.2149568097150245,0.14452835076995463
0323,cdot_cos,T,S-T,29,5,6623,-0.03713079527204448,0.016982248777908077,-0.03250352440506036,0.307339259501091,1018.0,0.35597073814344043,0.5165195096292884,2.781542697879959,-0.0017933423687032828,0.23,0.9999999999999978,-2.3949966970241774,0.14404714354015682,29,2026-10-08 02:16:22.707244,25.0,0.6010082681731512,0.0930441402700365,0.06204027579567269
0323,cdot_cos,P,T-P,30,6,7201,0.024898642661907448,7.236670225510506e-05,0.06202943793395192,0.8250200002254697,979.0,0.3845017792346525,0.517542818381052,2.8346987758306628,-0.0038051884403440283,0.578,0.9999999999999976,-1.966020585843206,0.1490143021805786,30,2026-10-08 02:16:23.285243,25.0,0.5893640024553366,0.03710814075477653,0.049361662787564146
0323,cdot_cos,Q,P-Q,31,6,7331,-0.010987642067856686,-0.012105998441506312,-0.035886284729764135,0.28963506062107314,979.0,0.3988677488559621,0.517902031089999,2.8835564939610525,-0.0020268848522203738,0.13,0.9999999999999967,4.950558662961965,0.15398144639048092,31,2026-10-08 02:16:23.415244,25.0,0.4158802277162036,0.18427498992522903,0.11050745862545841
0323,cdot_cos,R,Q-R,32,6,7361,0.12376835887913633,0.19897073395129514,0.13475600094699303,0.9667183186731859,979.0,0.43241327661521206,0.5191008435083536,2.936477835856038,-0.005021492164757969,0.03,0.9999999999999963,-2.49797822135319,0.15894858721034558,32,2026-10-08 02:16:23.445244,25.0,0.5508140206519475,0.6897150126682627,1.1181842586416655
0323,cdot_cos,S,R-S,33,6,7411,-0.0036641014770032836,-0.016196264520894992,-0.12743246035613962,0.039703165894173206,979.0,0.44025064961605787,0.5191500741828058,2.9822901475588286,-0.0012315854717967316,0.05,0.9999999999999958,76.9826279069803,0.16391572899572268,33,2026-10-08 02:16:23.495244,25.0,0.04608543312889634,0.2250235133789774,0.15674746001691608
0323,cdot_cos,T,S-T,34,6,7641,-0.041891633033355954,0.013894942776221554,-0.03822753155635267,0.2777423012328844,979.0,0.4549156279531098,0.5194944554308054,3.0291472032369797,-0.0023637906050353874,0.23,0.9999999999999953,-3.287650357896046,0.1688828783022469,34,2026-10-08 02:16:23.725244,25.0,0.6194157351880374,0.10018421021091874,0.06376077537848668
0323,cdot_cos,P,T-P,35,7,8180,0.025397787682502535,-1.5199491955048483e-06,0.06728942071585849,0.8432003236624067,997.0,0.4863353863130805,0.520539850690337,3.0795553146817536,-0.0053242610434367146,0.539,0.9999999999999951,-2.8319149253916946,0.17385004185433123,35,2026-10-08 02:16:24.264243,25.0,0.5734789478136447,0.04334871084509022,0.05829268712424988
0323,cdot_cos,Q,P-Q,36,7,8310,-0.011938382087640087,-0.012713908052966716,-0.03733616977014262,0.28223457781237593,997.0,0.5016455382441171,0.5208897238908266,3.1253383810663524,-0.002723039107708186,0.13,0.9999999999999934,7.434756169060986,0.17881718711899597,36,2026-10-08 02:16:24.394243,25.0,0.3847104678766028,0.19806570244753116,0.11777039946951211
0323,cdot_cos,R,Q-R,37,7,8340,0.12531589691474168,0.20470968589796257,0.13725427900238177,0.9686702756661059,997.0,0.5378324689494386,0.5220903818286764,3.1757518520300922,-0.006770224348185191,0.03,0.9999999999999933,-3.3708062162357026,0.1837843277000267,37,2026-10-08 02:16:24.424243,25.0,0.5500248089038076,0.74309927996097,1.2062310235107176
0323,cdot_cos,S,R-S,38,7,8390,-0.003375493592502941,-0.013212907535471377,-0.12869139050724462,0.03852042274720513,997.0,0.5462314950417753,0.5221381223553593,3.2186755931205373,-0.0016387630758237003,0.05,0.9999999999999919,107.4864822176629,0.18875146955199784,38,2026-10-08 02:16:24.474244,25.0,0.04366093568654627,0.1921308439654934,0.1679805218467334
0323,cdot_cos,T,S-T,39,7,8619,-0.08367326061338969,0.027427601611599763,-0.08029776702088674,0.11842354426077015,997.0,0.5570455533459879,0.5222848887783827,3.2616681259553357,-0.002147307659795105,0.229,0.9999999999999913,-3.4649926972062364,0.19371862131044806,39,2026-10-08 02:16:24.703244,25.0,0.7891262691712521,0.10336920710758234,0.04722296202712956
0323,cdot_cos,P,T-P,40,8,9177,0.02423954624734881,0.00013216608735143744,0.1079128068607385,0.9368978946495524,980.0,0.593574591897048,0.5234458812848694,3.310562479725364,-0.0075630813579728754,0.558,0.9999999999999913,-4.664779202207769,0.19868579279335694,40,2026-10-08 02:16:25.261244,25.0,0.48866391448284546,0.04751383731135528,0.06546422679401441
0323,cdot_cos,Q,P-Q,41,8,9288,-0.012195037893891718,-0.010505002263997577,-0.036434584141240525,0.2868229452100884,980.0,0.6100709957854604,0.5238012587292781,3.3539645961526356,-0.003572623354484238,0.111,0.9999999999999887,11.22878805695722,0.20365293802273424,41,2026-10-08 02:16:25.372243,25.0,0.3272749695933644,0.2488951694578264,0.14861625124695899
0323,cdot_cos,R,Q-R,42,8,9319,0.13320379352007106,0.1883731987063699,0.1453988314139628,0.9742935518597041,980.0,0.6488293195166854,0.5250082392881735,3.4024423267369124,-0.008777140820751437,0.031,0.9999999999999883,-4.312014330230817,0.20862007839258542,42,2026-10-08 02:16:25.403244,25.0,0.5526873878715689,0.7652592030503671,1.2502685074588713
0323,cdot_cos,S,R-S,43,8,9368,-0.004515743395813318,-0.012489117222389608,-0.13771953691588437,0.030978648926413412,980.0,0.6575170663745832,0.525046611738357,3.4429609425134493,-0.0020415447302572294,0.049,0.9999999999999869,175.53208247823642,0.2135872202329053,43,2026-10-08 02:16:25.452243,25.0,0.03691030428424474,0.18222597366785,0.17730095628362752
0323,cdot_cos,T,S-T,44,8,9598,-0.12434970459109104,0.0585559924313666,-0.11983396119527773,0.047613752827153286,980.0,0.6666874649361347,0.525105589084127,3.4831564932381167,-0.0021843967578296267,0.23,0.9999999999999852,-2.4221508395703517,0.21855437487701576,44,2026-10-08 02:16:25.682244,25.0,0.9366959361765903,0.1070320482898568,0.0398712980937024
0323,cdot_cos,P,T-P,45,9,10157,0.024381367157873216,-3.926390088675686e-05,0.14873107174896427,0.9762995817861061,998.0,0.7067518085879173,0.5263147375106234,3.5306266638658594,-0.009895720964458666,0.559,0.9999999999999856,-6.377483555904646,0.2235215544689897,45,2026-10-08 02:16:26.241244,25.0,0.45874606713588983,0.05153064947964467,0.07167145554880602
0323,cdot_cos,Q,P-Q,46,9,10286,-0.01162188836647896,-0.012298152233497353,-0.03600325552435218,0.2890337723807797,998.0,0.7242987310543775,0.5266726476881819,3.572067780966483,-0.004515468714220762,0.129,0.9999999999999825,15.032409212109474,0.2284887021051783,46,2026-10-08 02:16:26.370244,25.0,0.3037604793130968,0.2258611696021466,0.136022654778761
0323,cdot_cos,R,Q-R,47,9,10316,0.12223443791017707,0.19803687488838032,0.13385632627665603,0.9659870192152519,998.0,0.7650239903452711,0.5278686273117043,3.6188850786354854,-0.01090400210842046,0.03,0.999999999999982,-5.341674112627777,0.23345584205657513,47,2026-10-08 02:16:26.400243,25.0,0.5566108912037404,0.8371405464486208,1.3575086430297887
0323,cdot_cos,S,R-S,48,9,10366,-0.003961585489386071,-0.015265014841208693,-0.12619602339956315,0.04089861517303419,998.0,0.7745271638412947,0.5279192565494365,3.657531994227594,-0.0026302141761029288,0.05,0.9999999999999795,163.41916850641712,0.23842298398890538,48,2026-10-08 02:16:26.450243,25.0,0.043038044428319044,0.21567210186044572,0.19006346992047174
0323,cdot_cos,T,S-T,49,9,10596,-0.08514788509488752,0.028309245245474148,-0.08118629960550144,0.11612407241004939,998.0,0.7865912005313157,0.5280630057956494,3.6964411375266533,-0.0033856556953542746,0.23,0.9999999999999779,-5.2552729085809515,0.24339014185264976,49,2026-10-08 02:16:26.680243,25.0,0.8000108023851099,0.11568082108737189,0.05245233343487384
0323,cdot_cos,P,T-P,50,10,11155,0.027996254276798676,-7.215338852934166e-05,0.1131441393716862,0.9442020729384901,958.0,0.8277403415414858,0.5292316526593884,3.7422330106513906,-0.011938537116071235,0.559,0.9999999999999769,-7.318619239136182,0.24835733075648445,50,2026-10-08 02:16:27.239244,25.0,0.48850308062322706,0.05258204665734821,0.07361205905218261
0323,cdot_cos,Q,P-Q,51,10,11265,-0.012804420337517858,-0.011211630665317926,-0.04080067461431654,0.26502411537922876,958.0,0.845377928694231,0.5295596182036081,3.7818122439835165,-0.005303099929192154,0.11,0.9999999999999734,20.23211676905607,0.2533244779823834,51,2026-10-08 02:16:27.349244,25.0,0.28615048323028486,0.27477296059503575,0.16034170138859286
0323,cdot_cos,R,Q-R,52,10,11315,0.11985850511923321,0.18689032777538403,0.13266292545675107,0.9649930111642533,958.0,0.8881903928723937,0.5307535727565296,3.8273185787250794,-0.013333667787674005,0.05,0.999999999999972,-6.726024737568009,0.2582916196260109,52,2026-10-08 02:16:27.399244,25.0,0.5475631498164983,0.5291548303486027,0.8562492835632529
0323,cdot_cos,S,R-S,53,10,11365,-0.002962058214324766,-0.014905713490659559,-0.12282056333355798,0.04434003871841175,958.0,0.8982934117290913,0.5308084248945693,3.8643438011346913,-0.003242521037883886,0.05,0.9999999999999696,183.96998021279106,0.26325876157888595,53,2026-10-08 02:16:27.449243,25.0,0.04450605981042523,0.22724490104054307,0.20206037713395242
0323,cdot_cos,T,S-T,54,10,11594,-0.08470682398271315,0.028499523960866892,-0.08174476576838838,0.11469872078364782,958.0,0.910914882976448,0.5309503128357049,3.9016721750049697,-0.004102190520921243,0.229,0.9999999999999671,-6.058791720822285,0.26822592286091745,54,2026-10-08 02:16:27.678244,25.0,0.810938127449572,0.12123921388155323,0.05511559496662308
0323,cdot_cos,P,T-P,55,11,12113,0.023160877409996623,7.936276783249868e-05,0.10786770139270976,0.9368311956558446,998.0,0.9538209716868427,0.5321090295793285,3.9462263315646102,-0.014368984687362262,0.519,0.9999999999999661,-8.86048658823601,0.2731931173940823,55,2026-10-08 02:16:28.197243,25.0,0.4894315028007717,0.060405534205901786,0.08267069115682986
0323,cdot_cos,Q,P-Q,56,11,12243,-0.010672143192633893,-0.011418100840791553,-0.03383302060263052,0.3003092835360639,998.0,0.973615827482174,0.5324803934965122,3.984718576563977,-0.006851418253020259,0.13,0.9999999999999619,20.243125641694228,0.27816026825005413,56,2026-10-08 02:16:28.327244,25.0,0.3337951561043627,0.24898485335766313,0.1522681215025489
0323,cdot_cos,R,Q-R,57,11,12273,0.12521438574895674,0.2112679193827408,0.13588652894159065,0.967615761313555,998.0,1.018557033559835,0.5336767050311323,4.029170953073662,-0.016072433627585467,0.03,0.9999999999999604,-7.707871325919811,0.2831274074705807,57,2026-10-08 02:16:28.357243,25.0,0.5634277392196015,0.9218163488057078,1.4980402025887019
0323,cdot_cos,S,R-S,58,11,12323,-0.003058160018113961,-0.012037159541764073,-0.1282725457670707,0.03891011689476586,998.0,1.0289248084105165,0.5337248035385178,4.064727193293737,-0.003810744740972745,0.05,0.9999999999999569,254.9286776891619,0.2880945495384328,58,2026-10-08 02:16:28.407244,25.0,0.040048578881071085,0.20716727401453028,0.2073554970136282
0323,cdot_cos,T,S-T,59,11,12553,-0.13043544048759786,0.050515461390539855,-0.1273772804694839,0.03975579515063448,998.0,1.039273760961288,0.5337739467783917,4.099995672221672,-0.003842262949635693,0.23,0.9999999999999535,-0.6413539022621394,0.29306171484585963,59,2026-10-08 02:16:28.637243,25.0,0.9918305203527898,0.12343584466890897,0.04499544587292007
0323,cdot_cos,P,T-P,60,12,13111,0.022930140776429,4.7222234741833606e-05,0.15336558126402686,0.9788375960330273,979.0,1.0857052969582146,0.5349837059475773,4.143966173099009,-0.01770602085229348,0.558,0.9999999999999528,-11.45993207225827,0.29802892473255044,60,2026-10-08 02:16:29.195244,25.0,0.4570343104895187,0.059627891360850886,0.08321063798732349
0323,cdot_cos,Q,P-Q,61,12,13221,-0.013627037519026483,-0.011675524433800467,-0.03655717829545548,0.2861964221978551,979.0,1.1058184877199977,0.5353373430223719,4.181118555591535,-0.007909281134295577,0.11,0.9999999999999472,27.702807245782008,0.30299607452083827,61,2026-10-08 02:16:29.305243,25.0,0.2897784976248034,0.30543800702439755,0.18284718874348257
0323,cdot_cos,R,Q-R,62,12,13252,0.12977843450058543,0.18237475622690144,0.1434054720196119,0.9730154846506663,979.0,1.152901658503582,0.5365393765606868,4.2247155282935465,-0.019075991035237046,0.031,0.9999999999999453,-9.28984886444635,0.3079632134579156,62,2026-10-08 02:16:29.336244,25.0,0.5568940187966102,0.9296366947559972,1.5188119607607862
0323,cdot_cos,S,R-S,63,12,13301,-0.005556602904236864,-0.015264223646688292,-0.1353350374048223,0.03281906677493321,979.0,1.1634559627948695,0.5365799129083558,4.258971277354489,-0.004385196207516334,0.049,0.999999999999941,362.41042107898164,0.3129303554269623,63,2026-10-08 02:16:29.385243,25.0,0.03508125373144431,0.24775557047795882,0.21539396512831535
0323,cdot_cos,T,S-T,64,12,13531,-0.0875944513074122,0.03548406278026835,-0.08203784840317534,0.11395680692604919,979.0,1.177181704410422,0.536720662475434,4.293765555303182,-0.005762431775696714,0.23,0.9999999999999369,-9.785007490751726,0.31789752501785473,64,2026-10-08 02:16:29.615244,25.0,0.7874129182503186,0.1316877671076254,0.05967713745892396
0323,cdot_cos,P,T-P,65,13,14090,0.023286964292675315,3.615860987827346e-05,0.11088141560008752,0.9411458287980985,977.0,1.2240323356643772,0.5378828584477385,4.336550517227323,-0.020171149259932786,0.559,0.9999999999999356,-12.397838082045112,0.3228647473136148,65,2026-10-08 02:16:30.174243,25.0,0.4895233673943638,0.061007423780268494,0.08381150492657453
0323,cdot_cos,Q,P-Q,66,13,14220,-0.011221385286346851,-0.012364311978675931,-0.034508349579022164,0.29677372319564416,977.0,1.2453880041967622,0.5382492516704026,4.372757915013942,-0.009454613402948706,0.13,0.9999999999999286,29.248728399131664,0.32783190185107297,66,2026-10-08 02:16:30.304243,25.0,0.32191375593848726,0.2688675442100462,0.16427437332603861
0323,cdot_cos,R,Q-R,67,13,14250,0.1190642040328783,0.20634892083580803,0.13028558931922515,0.9629288231088295,977.0,1.2939378971589892,0.5394377853440376,4.415488904935263,-0.022094334588355944,0.03,0.9999999999999263,-10.634718616553569,0.33279904013211764,67,2026-10-08 02:16:30.334244,25.0,0.564350515050097,0.9999997577135211,1.6183297654075668
0323,cdot_cos,S,R-S,68,13,14300,-0.003447728497537345,-0.0152855167447694,-0.12251193253041565,0.044668138652640556,977.0,1.3053879896595735,0.5394929080154632,4.448772822083618,-0.005333795153225603,0.05,0.9999999999999206,304.05891081952035,0.33776618227623734,68,2026-10-08 02:16:30.384243,25.0,0.04318210757850074,0.31953639889407803,0.22900185001168527
0323,cdot_cos,T,S-T,69,13,14529,-0.04422255740051894,0.01445073120068858,-0.0407748289029816,0.2651499942705716,977.0,1.325891537048397,0.539820096166975,4.4840828294658595,-0.00966756788716672,0.229,0.9999999999999162,-13.245506336084627,0.34273335648938913,69,2026-10-08 02:16:30.613244,25.0,0.6387261195823244,0.14341954846293545,0.08953514143591065
0323,cdot_cos,P,T-P,70,14,15067,0.027353250671144864,0.0001834744884624676,0.0715758080716638,0.8568531104861107,940.0,1.371074142855598,0.5408771944235691,4.525303637707164,-0.021828242425318837,0.538,0.9999999999999143,-11.503826122401794,0.347700588775037,70,2026-10-08 02:16:31.151244,25.0,0.5728637573865301,0.061699131311631475,0.08398253867509461
0323,cdot_cos,Q,P-Q,71,14,15178,-0.011725468058022211,-0.010783386667610912,-0.03907871872916707,0.2734938191365704,940.0,1.3922798023397125,0.5412145263165592,4.560355075733477,-0.010495712868920724,0.111,0.9999999999999054,33.59459864866658,0.3526677418890574,71,2026-10-08 02:16:31.262244,25.0,0.33968743917057614,0.323824481954992,0.19104197733436548
0323,cdot_cos,R,Q-R,72,14,15226,0.12829747109621148,0.20562956152902234,0.1400229391542337,0.9707040820524697,940.0,1.4429631778496061,0.5424115020825356,4.602514643570613,-0.02572790017321097,0.048,0.9999999999999037,-12.725560313967199,0.3576348833004173,72,2026-10-08 02:16:31.310244,25.0,0.5531924216669127,0.6482431951810377,1.055903656456118
0323,cdot_cos,S,R-S,73,14,15278,-0.0022882182220816337,-0.014364740051484732,-0.13058568931829312,0.03680428905052418,940.0,1.4545111490770921,0.5424568759281294,4.634754010422035,-0.005990555328788727,0.052,0.9999999999998963,434.9938733676403,0.3626020259476676,73,2026-10-08 02:16:31.362243,25.0,0.03707754423373029,0.21203405912424594,0.2220763697593455
0323,cdot_cos,T,S-T,74,14,15508,-0.17407337034997208,0.04705584464168736,-0.17178515212789044,0.013458044761120265,940.0,1.4650147199985277,0.5424734673849825,4.6665336498275085,-0.005490205857853462,0.23,0.9999999999998892,30.15705464362614,0.36756920511127517,74,2026-10-08 02:16:31.592243,25.0,0.9128945349763697,0.13713823978325018,0.0456676996584157
0323,cdot_cos,P,T-P,75,15,16007,0.023959327513855263,3.1355784885079755e-05,0.19803269786382735,0.99297211968667,979.0,1.5175947393773872,0.54369736904744,4.70855779727918,-0.028065441185256525,0.499,0.9999999999998875,-18.44530162829636,0.3725364419249774,75,2026-10-08 02:16:32.091244,25.0,0.44736591242161733,0.07520135910270173,0.10537078031835567
0323,cdot_cos,Q,P-Q,76,15,16137,-0.012625579226163607,-0.0138933951081057,-0.036584906740018866,0.2860548284563247,979.0,1.540065676383024,0.5440498527038201,4.742917180683756,-0.012294504457641048,0.13,0.9999999999998775,44.74232050807484,0.3775036009527566,76,2026-10-08 02:16:32.221244,25.0,0.27727011425333403,0.2878924140706588,0.1728533615818219
0323,cdot_cos,R,Q-R,77,15,16167,0.12652098208536638,0.21247040568301825,0.13914656131153,0.9700745615393588,979.0,1.5924467670357585,0.545244871392177,4.784504867786181,-0.029348173102319505,0.03,0.9999999999998749,-14.270629246916846,0.3824707382978101,77,2026-10-08 02:16:32.251244,25.0,0.559293388752896,1.072131303775544,1.7460363550911482
0323,cdot_cos,S,R-S,78,15,16217,-0.003425433785331674,-0.014988030343122193,-0.12994641587069805,0.037375053944935066,979.0,1.6043935546095567,0.5452909027630123,4.815879395606923,-0.006830909368690623,0.05,0.999999999999867,489.1721303329932,0.3874378806775733,78,2026-10-08 02:16:32.301243,25.0,0.037016976774004666,0.34057255169330114,0.2389357514759638
0323,cdot_cos,T,S-T,79,15,16446,-0.0434937943690416,0.014517431906967106,-0.040068360583709925,0.26860554142183607,979.0,1.6265040222050886,0.5456216963575174,4.849592259434497,-0.012775410774924882,0.229,0.9999999999998602,-17.970424775385045,0.39240506525747326,79,2026-10-08 02:16:32.530244,25.0,0.627941641381735,0.15343046230702068,0.09655226024249748
0323,cdot_cos,P,T-P,80,16,16986,0.026853549981222743,-7.842036199154238e-05,0.07034734435026434,0.8530447148249177,978.0,1.6746647063461721,0.546671971179641,4.889583331069509,-0.028421322613302054,0.54,0.9999999999998574,-14.89696935392918,0.3973723262728421,80,2026-10-08 02:16:33.070244,25.0,0.5766619403959554,0.06555609969161108,0.08918645211311767
0323,cdot_cos,Q,P-Q,81,16,17095,-0.01231935331099016,-0.010431078341687224,-0.0391729032922129,0.27302621881385913,978.0,1.6973046098720286,0.5470080357383291,4.923072978654069,-0.013645420610936355,0.109,0.9999999999998457,43.96745095657588,0.4023394825598887,81,2026-10-08 02:16:33.179244,25.0,0.3386300912653388,0.3520795203960423,0.20770553693446267
0323,cdot_cos,R,Q-R,82,16,17144,0.1279128064782671,0.19009927440149116,0.14023215978925727,0.9708524600732028,978.0,1.7514180417925094,0.5482026967596226,4.9641872237188185,-0.03334207950607808,0.049,0.9999999999998425,-16.487236583491566,0.4073066242785272,82,2026-10-08 02:16:33.228243,25.0,0.5539145953251827,0.6774486120918897,1.1043557534792
0323,cdot_cos,S,R-S,83,16,17195,-0.0035795624340125313,-0.015518574641282753,-0.13149236891227964,0.03600913289470751,978.0,1.7636945738570338,0.5482469964055144,4.994768520889375,-0.007709687895215759,0.051,0.9999999999998325,578.6139165415141,0.41227376700326923,83,2026-10-08 02:16:33.279244,25.0,0.03598334822646997,0.2766245737192136,0.2407163149906744
0323,cdot_cos,T,S-T,84,16,17425,-0.08425633238215849,0.03405898944874325,-0.08067676994814596,0.11743792307840088,978.0,1.7796337483118692,0.5483914671702177,5.026091497743649,-0.01008961480573796,0.23,0.9999999999998233,-16.47341533361881,0.417240957383481,84,2026-10-08 02:16:33.509243,25.0,0.7898763480983306,0.15106098721708533,0.06930075849928431
0323,cdot_cos,P,T-P,85,17,17964,0.024884206975663493,-1.92832666902519e-05,0.10914053935782198,0.938688340174935,958.0,1.833182627976893,0.5495459354913443,5.0665639007409995,-0.03454580525142985,0.539,0.9999999999998204,-21.183942424531068,0.4222082331864129,85,2026-10-08 02:16:34.048243,25.0,0.49266040890551227,0.07140612594220759,0.09934857080709436
0323,cdot_cos,Q,P-Q,86,17,18074,-0.01386030864483454,-0.012177418219490572,-0.038744515620498035,0.27515706887186864,958.0,1.856609552077569,0.5498842434725852,5.099417502063144,-0.015433243307698935,0.11,0.9999999999998064,56.494564135396935,0.4271753916179043,86,2026-10-08 02:16:34.158243,25.0,0.2898469754302695,0.3596161561359254,0.21297203727887207
0323,cdot_cos,R,Q-R,87,17,18122,0.12474206308706348,0.18539743295657346,0.13860237173189802,0.9696770813716137,958.0,1.9122981823267966,0.5510761000097404,5.140096499387071,-0.03745509262441819,0.048,0.999999999999803,-18.476929588592473,0.4321425330261018,87,2026-10-08 02:16:34.206244,25.0,0.5554629287987365,0.7130272870491209,1.1601797968589094
0323,cdot_cos,S,R-S,88,17,18174,-0.00375792958958447,-0.019005575305739555,-0.12849999267664794,0.03869803271989185,958.0,1.9250601716342846,0.5511236527403507,5.169998965172533,-0.008739187297144879,0.052,0.9999999999997906,603.8750027333436,0.4371096761248949,88,2026-10-08 02:16:34.258244,25.0,0.03740771791296889,0.35639454814993493,0.24542287129784526
0323,cdot_cos,T,S-T,89,17,18402,-0.040378000454825695,0.010839495651277849,-0.036620070865241224,0.2858753252262559,958.0,1.9493632153343898,0.5514749116742068,5.202604749740197,-0.0168005995362727,0.228,0.9999999999997813,-22.950056104280527,0.4420768721334175,89,2026-10-08 02:16:34.486243,25.0,0.6188893099080314,0.16397966413669812,0.1065922969302863
0323,cdot_cos,P,T-P,90,18,18922,0.025748045140133763,9.131011163610397e-05,0.06612604559495946,0.8393164813101177,958.0,1.999834898480619,0.5525058934012955,5.2415320118262185,-0.03554884327002861,0.52,0.9999999999997768,-18.184845803908946,0.44704415929235225,90,2026-10-08 02:16:35.006243,25.0,0.59014092301579,0.07134455438850146,0.0970609291273636
0323,cdot_cos,Q,P-Q,91,18,19033,-0.014667924398601014,-0.01301765779523656,-0.040415969538734775,0.2669017264190819,958.0,2.0235615518984313,0.5528336503132921,5.273697895511526,-0.017023052262562406,0.111,0.999999999999761,56.52296055211272,0.4520113202109627,91,2026-10-08 02:16:35.117243,25.0,0.3367963977455502,0.36411929592292186,0.21375363439470665
0323,cdot_cos,R,Q-R,92,18,19081,0.1191123166119345,0.18264253379645873,0.1337802410105355,0.9659244671660823,958.0,2.0806693821755076,0.5540194255545342,5.313968656625039,-0.04177465884992531,0.048,0.999999999999757,-20.873775844261992,0.4569784616598408,92,2026-10-08 02:16:35.165244,25.0,0.5529415928632229,0.7344666648429615,1.1897464641057547
0323,cdot_cos,S,R-S,93,18,19132,-0.0037162003598919194,-0.01920979903400664,-0.12282851697182642,0.04433161379513309,958.0,2.0940703517233556,0.5540738326877886,5.343295549271036,-0.009971047011278007,0.051,0.9999999999997427,584.5485681062048,0.46194560463691314,93,2026-10-08 02:16:35.216243,25.0,0.04118850700970303,0.3712493693026924,0.262764108781335
0323,cdot_cos,T,S-T,94,18,19362,-0.04251468196573889,0.011140777271013128,-0.03879848160584697,0.27488806847889463,958.0,2.118536817844382,0.5544111672896094,5.375216714379976,-0.0183667793219858,0.23,0.9999999999997319,-24.888440928955227,0.46691280778945765,94,2026-10-08 02:16:35.446244,25.0,0.6331074602269582,0.16708549174314394,0.10637593965663714
0323,cdot_cos,P,T-P,95,19,19880,0.02688251097490927,0.00019468455618317957,0.06939719294064817,0.8500419131130615,960.0,2.170929677925202,0.5554539954115223,5.413896927990092,-0.04002991976890919,0.518,0.9999999999997272,-20.773452491083038,0.47188011130709956,95,2026-10-08 02:16:35.964243,25.0,0.5820646724594999,0.07457662074783232,0.1011445175305399
0323,cdot_cos,Q,P-Q,96,19,19991,-0.011530021462423315,-0.010266528548876278,-0.038412532437332586,0.2768154691924221,960.0,2.1957981969391365,0.5557934866070686,5.445642966621333,-0.01933966543298511,0.111,0.9999999999997082,60.94489226039655,0.4768472745514989,96,2026-10-08 02:16:36.075244,25.0,0.34306505875897836,0.37945727882094227,0.22404071183724872
0323,cdot_cos,R,Q-R,97,19,20022,0.14506457941307413,0.2071885894420705,0.15659460087549745,0.9804467154880193,960.0,2.255169193823451,0.5569955020832577,5.48577070634222,-0.047036294492829735,0.031,0.9999999999997039,-23.041824010166863,0.48181440990092633,97,2026-10-08 02:16:36.106244,25.0,0.5549733037679881,1.1632178697480742,1.9151934478811155
0323,cdot_cos,S,R-S,98,19,20071,-0.004078074528024816,-0.012305325942019128,-0.14914265394109893,0.023463494438440056,960.0,2.267917704863517,0.5570242599168016,5.514260052692206,-0.010263440991557392,0.049,0.9999999999996873,1278.707363163421,0.4867815523910976,98,2026-10-08 02:16:36.155244,25.0,0.02779505498673669,0.26866335992889057,0.26017369469522494
0323,cdot_cos,T,S-T,99,19,20301,-0.12991359688678722,0.052594280028450846,-0.1258355223587624,0.04125360621422189,960.0,2.2814982030964823,0.5570748211234436,5.542825704696656,-0.010996634325508214,0.23,0.9999999999996715,-14.50110435737062,0.4917487620980278,99,2026-10-08 02:16:36.385243,25.0,0.9354998067658863,0.16024584893570765,0.05904564449115328
0323,cdot_cos,P,T-P,100,20,20840,0.024172378859759463,2.27169528220048e-05,0.15408597574654667,0.9792074626875479,979.0,2.3416307953739426,0.5582746070044703,5.582747345354533,-0.049452778844605624,0.539,0.9999999999996675,-32.052506307367715,0.49671609017794355,100,2026-10-08 02:16:36.924243,25.0,0.4594920485148816,0.07986846836132926,0.11156325097859046
0323,cdot_cos,Q,P-Q,101,20,20970,-0.01238733804868895,-0.013615768548875461,-0.03655971690844841,0.2861834571675944,979.0,2.3675964119899953,0.5586251289817982,5.614114482498984,-0.02174807808912578,0.13,0.9999999999996465,79.03841284555148,0.5016832630716499,101,2026-10-08 02:16:37.054244,25.0,0.2797407742445794,0.33196556351768364,0.19973551243117443
0323,cdot_cos,R,Q-R,102,20,21000,0.1264578401371894,0.20843686431135733,0.13884517818587833,0.9698550570341072,979.0,2.4279418418885403,0.559812586180361,5.653831425810353,-0.05144066132011292,0.03,0.9999999999996412,-25.00518188522811,0.5066503972778228,102,2026-10-08 02:16:37.084243,25.0,0.5614569982497566,1.2348558102017442,2.0115143299515026
0323,cdot_cos,S,R-S,103,20,21050,-0.003727873786334459,-0.016285210997003727,-0.13018571392352385,0.0371604110509325,979.0,2.4416877606021,0.5598580705863289,5.6819402991920684,-0.011898300288224967,0.05,0.9999999999996224,869.3608323660111,0.5116175401402063,103,2026-10-08 02:16:37.134243,25.0,0.03603148399891888,0.3940047732899199,0.27491837427119137
0323,cdot_cos,T,S-T,104,20,21279,-0.04290014371590056,0.01431853419959213,-0.0391722699295661,0.27302936161656827,979.0,2.4673423192175323,0.5601922281178062,5.712863662095327,-0.022382301729091062,0.229,0.9999999999996079,-31.374428086401803,0.5165847567163455,104,2026-10-08 02:16:37.363244,25.0,0.6259993997603782,0.17516488975068345,0.11202864024206297
0323,cdot_cos,P,T-P,105,21,21819,0.023326866746595402,-1.8568189769576324e-05,0.06622701046249596,0.8396566037917788,977.0,2.521913280107913,0.5612195311715095,5.750790424504752,-0.04836396931670707,0.54,0.9999999999996011,-25.291142174606364,0.5215521053983742,105,2026-10-08 02:16:37.903244,25.0,0.5843756696801797,0.07550846359600341,0.1010573349821863
0323,cdot_cos,Q,P-Q,106,21,21948,-0.011858695304265837,-0.013023020611584992,-0.035185562050861235,0.2932525819344705,977.0,2.548891459901216,0.561578196701962,5.781803090989666,-0.024296092803531615,0.129,0.9999999999995774,67.10395750272187,0.5265192811116196,106,2026-10-08 02:16:38.032243,25.0,0.37135125964905197,0.3427964328748325,0.20913317669227194
0323,cdot_cos,R,Q-R,107,21,21979,0.11826510105729154,0.2046499392425152,0.13012379636155738,0.9627841647433262,977.0,2.6103547597896197,0.5627552853021406,5.82118765099554,-0.056284756632882654,0.031,0.9999999999995705,-27.176088379835466,0.5314864149845727,107,2026-10-08 02:16:38.063244,25.0,0.5664671519003313,1.2256488924367825,1.9826870931743132
0323,cdot_cos,S,R-S,108,21,22028,-0.003319140596596648,-0.014531292027132691,-0.12158424165388819,0.04566833750930197,977.0,2.6248816912322965,0.5628111014298317,5.848906254731751,-0.013498530947464121,0.049,0.9999999999995487,766.5566827242335,0.5364535574714693,108,2026-10-08 02:16:38.112243,25.0,0.04201641209425561,0.33118854315121826,0.2964679886260572
0323,cdot_cos,T,S-T,109,21,22258,-0.0861600693602078,0.022759849398062495,-0.08284092876361115,0.11194527633644874,977.0,2.642811237018439,0.5629479149159022,5.877350507495672,-0.016762379964979045,0.23,0.9999999999995292,-23.856193649157756,0.5414207816868859,109,2026-10-08 02:16:38.342243,25.0,0.8230710552888231,0.17206220073448397,0.07795454689627211
0323,cdot_cos,P,T-P,110,22,22796,0.02603966808469478,0.00019778139831918944,0.11219973744490258,0.942945064267666,960.0,2.704030303570159,0.5640999495057997,5.916331981263481,-0.05805926172363131,0.538,0.9999999999995228,-35.84691130005826,0.5463881490354444,110,2026-10-08 02:16:38.880243,25.0,0.49101115081487196,0.08168639569933994,0.11379008652736068
0323,cdot_cos,Q,P-Q,111,22,22907,-0.012658838772798135,-0.011271906376374869,-0.03869850685749292,0.2753865343889799,960.0,2.730705798790929,0.564436270571085,5.9467070918387455,-0.02571000095866964,0.111,0.9999999999994957,96.18565146228363,0.5513553195178699,111,2026-10-08 02:16:38.991244,25.0,0.28415470117106745,0.4036645246151779,0.24031977676369126
0323,cdot_cos,R,Q-R,112,22,22956,0.11862919798183495,0.1841631257478164,0.13128803675463308,0.9638131243306571,960.0,2.7936438280347287,0.5656128769844561,5.985886053478133,-0.06162189291510067,0.049,0.9999999999994889,-30.521584404373506,0.5563224613418798,112,2026-10-08 02:16:39.040244,25.0,0.5583450508130756,0.7934972192472701,1.2844495764040769
0323,cdot_cos,S,R-S,113,22,23007,-0.0034895993441868486,-0.01815256272910026,-0.1221187973260218,0.04508942603868748,960.0,2.8084685262771614,0.5656679033829201,6.013134314135668,-0.014718571921830294,0.051,0.9999999999994635,852.3785365302085,0.5612896047938776,113,2026-10-08 02:16:39.091244,25.0,0.04130895086862709,0.4071936306959809,0.29068035769475903
0323,cdot_cos,T,S-T,114,22,23237,-0.043311882064495155,0.0114047536463751,-0.03982228272030831,0.2698158510497289,960.0,2.8351775783657187,0.5659971483696306,6.043197873594907,-0.026709735873690237,0.23,0.9999999999994444,-36.42018689992592,0.5662568369201937,114,2026-10-08 02:16:39.321243,25.0,0.6383021224437124,0.1831379520603797,0.11612631342851017
0323,cdot_cos,P,T-P,115,23,23756,0.025193219067992084,-2.388418933415956e-05,0.06850510113248724,0.8471767762286595,978.0,2.892711984224936,0.56703054291988,6.080727247691432,-0.05836204335108131,0.519,0.9999999999994352,-30.62945074536285,0.5712242164578635,115,2026-10-08 02:16:39.840243,25.0,0.5813838558775031,0.0816942424704559,0.11085627333182528
0323,cdot_cos,Q,P-Q,116,23,23866,-0.013576106570464609,-0.01156890449351682,-0.03876932563845669,0.2750333798674922,978.0,2.919976202050052,0.5673659064396694,6.110720129996984,-0.028060703891058834,0.11,0.999999999999405,90.35371372248522,0.5761913892021159,116,2026-10-08 02:16:39.950243,25.0,0.3396466096454046,0.4176721411745612,0.2478565256828718
0323,cdot_cos,R,Q-R,117,23,23914,0.12416874090357105,0.18221828725016928,0.13774484747403565,0.9690403403608773,978.0,2.9845998552833395,0.5685470174803018,6.149778611615068,-0.0675187803451756,0.048,0.9999999999993976,-33.40759259433533,0.5811585305802693,117,2026-10-08 02:16:39.998244,25.0,0.5574393899456528,0.8277050717576581,1.3463261090268241
0323,cdot_cos,S,R-S,118,23,23966,-0.0039257947985725655,-0.017246670635910864,-0.12809453570214363,0.03907688095610995,978.0,2.999435888938787,0.5685946299279344,6.176521003089499,-0.01570886564262268,0.052,0.9999999999993693,1088.1590272844667,0.5861256747679805,118,2026-10-08 02:16:40.050244,25.0,0.036952124272497576,0.41367263908177637,0.2853083395278387
0323,cdot_cos,T,S-T,119,23,24195,-0.04049864670786546,0.013422968485268364,-0.036572851909292894,0.2861163806121203,978.0,3.0276218097478442,0.5689432040557343,6.206439984379952,-0.03005283876403498,0.229,0.9999999999993479,-41.15042390537844,0.5910929146352515,119,2026-10-08 02:16:40.279244,25.0,0.6204614602216215,0.1888642443008138,0.12308262362033681
0323,cdot_cos,P,T-P,120,24,24734,0.02535518161323772,0.00011186576112798525,0.06585382832110317,0.8383965505851979,999.0,3.08593571282856,0.5699642237719373,6.243647696307505,-0.06303224814009979,0.539,0.9999999999993379,-32.30046281447723,0.5960603267034876,120,2026-10-08 02:16:40.818244,25.0,0.5926123120267138,0.08055031401646619,0.10818905951895287
0323,cdot_cos,Q,P-Q,121,24,24864,-0.01102407841304058,-0.011759475275581951,-0.036379260026278296,0.28710594996759425,999.0,3.114455048257595,0.5703137320833478,6.27345373084135,-0.03125851015015563,0.13,0.9999999999993041,90.90982089015361,0.6010275134343468,121,2026-10-08 02:16:40.948243,25.0,0.3618654569239049,0.36381750439142996,0.21937950330026887
0323,cdot_cos,R,Q-R,122,24,24893,0.1283200577680306,0.19544640984548234,0.13934413618107117,0.9702176185884075,999.0,3.1805282639703316,0.5714943055438071,6.312363648583106,-0.0734738885179392,0.029,0.9999999999992948,-35.758366405560025,0.6059946437977369,122,2026-10-08 02:16:40.977243,25.0,0.5629508202871112,1.3969270647867371,2.278386748715063
0323,cdot_cos,S,R-S,123,24,24944,-0.004090724058184506,-0.016191648193702387,-0.1324107818262151,0.03522055887784048,999.0,3.1954768180152255,0.5715371471603483,6.338656322375129,-0.016836430172146286,0.051,0.9999999999992628,1322.019636941005,0.6109617875722673,123,2026-10-08 02:16:41.028243,25.0,0.03459719699472199,0.4307842771501209,0.29310890284105734
0323,cdot_cos,T,S-T,124,24,25174,-0.039949726002850273,0.015713660069626358,-0.035859001944665764,0.28977541425561515,999.0,3.224468260239644,0.5718895836906394,6.368295626999558,-0.032871053484610516,0.23,0.9999999999992386,-45.49648499610047,0.6159290365531098,124,2026-10-08 02:16:41.258244,25.0,0.6139733505729825,0.1915007245654738,0.12604974880181916
0323,cdot_cos,P,T-P,125,25,25733,0.02362488108542217,1.9201257565926826e-05,0.06357460708827245,0.8305267692009408,959.0,3.2835671513153435,0.5728992985691803,6.405211717446155,-0.06788632616188395,0.559,0.9999999999992267,-34.67837646194802,0.6208964838765593,125,2026-10-08 02:16:41.817244,25.0,0.5970271329048932,0.0786722393314722,0.1057225242856879
0323,cdot_cos,Q,P-Q,126,25,25843,-0.013671435124334327,-0.012039548095146131,-0.0372963162097565,0.282436458181281,959.0,3.31242382381223,0.5732425334231199,6.43463458050693,-0.03358847933351072,0.11,0.9999999999991885,99.92530314071072,0.6258636621893482,126,2026-10-08 02:16:41.927244,25.0,0.36019152714080677,0.4391390401267065,0.2623333863353308
0323,cdot_cos,R,Q-R,127,25,25874,0.13460073513610468,0.1889585380586463,0.148272170260439,0.9760326664981522,959.0,3.380177740143219,0.5744281257712436,6.473479357880697,-0.07996178343763463,0.031,0.999999999999178,-39.114037955386074,0.6308307928156496,127,2026-10-08 02:16:41.958244,25.0,0.5599300888901347,1.3337307210445186,2.185610204225453
0323,cdot_cos,S,R-S,128,25,25923,-0.005187720933575594,-0.015362158802060903,-0.13978845606968027,0.029463082524358027,959.0,3.39511512851699,0.5744639015091095,6.499320271738505,-0.01784622777241411,0.049,0.9999999999991421,1736.2480656014252,0.6357979354341772,128,2026-10-08 02:16:42.007244,25.0,0.03078897477722965,0.44909872299420456,0.3048446606892065
0323,cdot_cos,T,S-T,129,25,26153,-0.04282046582132102,0.017648268800738495,-0.03763274488774543,0.2807350143776566,959.0,3.424189414996651,0.5748047466483435,6.528530105912452,-0.034954444754028854,0.23,0.9999999999991146,-50.193519027632846,0.6407651932455386,129,2026-10-08 02:16:42.237243,25.0,0.6129675699602687,0.19738282467957877,0.12640994121591706
0323,cdot_cos,P,T-P,130,26,26692,0.028455862656428868,3.0120424180603667e-05,0.0712763284777499,0.8559323315307983,959.0,3.4859112278695963,0.5758435084397697,6.565629438726631,-0.07514465972322758,0.539,0.9999999999991018,-38.690501807942056,0.6457326527949983,130,2026-10-08 02:16:42.776243,25.0,0.5857642117065781,0.08364071739781972,0.11451171219470373
0323,cdot_cos,Q,P-Q,131,26,26822,-0.012369784724434944,-0.014053824448472547,-0.04082564738086381,0.2649025243796525,959.0,3.5143541083515006,0.5761648595641934,6.594511782774549,-0.03507327378069375,0.13,0.9999999999990596,124.69657921502855,0.6506998473606461,131,2026-10-08 02:16:42.906244,25.0,0.3190189206819195,0.3732749657022407,0.21879138832234118
0323,cdot_cos,R,Q-R,132,26,26852,0.12352467112696398,0.20934498922421396,0.13589445585139892,0.9676219705801421,959.0,3.582962718952179,0.5773381247770942,6.633113657694289,-0.08571179763614944,0.03,0.9999999999990479,-43.16033859919391,0.6556669763891256,132,2026-10-08 02:16:42.936243,25.0,0.5538840402319316,1.4076917674121412,2.286953686689275
0323,cdot_cos,S,R-S,133,26,26902,-0.003319054213811764,-0.016687190402373216,-0.12684372534077576,0.04026814826497727,959.0,3.598815614396229,0.5773869320775017,6.6587545446763405,-0.02003987438019568,0.05,0.9999999999990077,1345.5348422818136,0.6606341196982957,133,2026-10-08 02:16:42.986243,25.0,0.037738947758831735,0.44749544800655183,0.3170579088810044
0323,cdot_cos,T,S-T,134,26,27131,-0.04357141838527712,0.011712493245135324,-0.04025236417146536,0.26770278593669256,959.0,3.627712263752834,0.5777113647216333,6.687496159043831,-0.03674869932437917,0.229,0.999999999998976,-51.50167606871493,0.665601385969941,134,2026-10-08 02:16:43.215244,25.0,0.634652295976503,0.19937547919847098,0.1261862417318994
0323,cdot_cos,P,T-P,135,27,27651,0.025001777156777677,-2.5843349648118306e-05,0.0685731955420548,0.8473970476530625,979.0,3.690129583869129,0.5787378934579462,6.724330412286791,-0.08032799449675651,0.52,0.9999999999989618,-42.45306890180682,0.6705688570983991,135,2026-10-08 02:16:43.735244,25.0,0.5812833730938494,0.08888768039965103,0.12003330791595143
0323,cdot_cos,Q,P-Q,136,27,27781,-0.012218701240736155,-0.013368106844973008,-0.03722047839751383,0.28282086047867716,979.0,3.720155451368471,0.5790803489861389,6.753183355738377,-0.03912127461743449,0.13,0.9999999999989166,120.32721473877889,0.6755360558538172,136,2026-10-08 02:16:43.865243,25.0,0.34878234972009325,0.3845452852329597,0.23096821153340252
0323,cdot_cos,R,Q-R,137,27,27811,0.12472570654258394,0.2009549293503194,0.1369444077833201,0.9684343195317349,979.0,3.7901113580296983,0.5802524059571132,6.79168438572609,-0.09230588348828561,0.03,0.9999999999989035,-45.37715331929526,0.6805031839717139,137,2026-10-08 02:16:43.895243,25.0,0.562042456471009,1.433677727975217,2.33186355537424
0323,cdot_cos,S,R-S,138,27,27860,-0.0037858676904404965,-0.016398887334026325,-0.12851157423302445,0.038687263167653786,979.0,3.806176115046984,0.5802992088835438,6.816976286099302,-0.021439361561699056,0.049,0.9999999999988592,1514.1472410221024,0.6854703267019611,138,2026-10-08 02:16:43.944243,25.0,0.03668307005171178,0.4714202319566536,0.3278521840262413
0323,cdot_cos,T,S-T,139,27,28090,-0.04166083543234929,0.014008127334661042,-0.037874967741908794,0.27951388117551096,979.0,3.8363105407614504,0.5806373151318185,6.845617106777328,-0.040451704286832854,0.23,0.9999999999988253,-56.231858541957045,0.6904376032675451,139,2026-10-08 02:16:44.174243,25.0,0.6250016238343864,0.20169144631596195,0.1310192422368097
0323,cdot_cos,P,T-P,140,28,28630,0.02218747581048448,-4.585096568522299e-05,0.06384831124283377,0.8314877026974794,1017.0,3.8989541803523267,0.5816426525818068,6.8820929276200635,-0.08505508281697866,0.54,0.9999999999988086,-44.36657415941685,0.6954051143523884,140,2026-10-08 02:16:44.714243,25.0,0.5919069725372805,0.08710373544889714,0.11600673998310419
0323,cdot_cos,Q,P-Q,141,28,28759,-0.012246707326077228,-0.012557691604505308,-0.03443418313656171,0.29716083066083054,1017.0,3.9303825750462593,0.5820017806371317,6.910892828719049,-0.043180771459930836,0.129,0.9999999999987587,116.59994460517647,0.700372316595974,141,2026-10-08 02:16:44.843244,25.0,0.37917994370718344,0.3974730012170446,0.24363096661963302
0323,cdot_cos,R,Q-R,142,28,28789,0.12221923869397602,0.19137693915562692,0.13446594602005324,0.9664842216727321,1017.0,4.001502214666324,0.5831692037366145,6.949267745380602,-0.09891559641932611,0.03,0.9999999999987447,-47.74175274079017,0.7053394436675041,142,2026-10-08 02:16:44.873244,25.0,0.5692369991845289,1.4599202037301584,2.370654654002162
0323,cdot_cos,S,R-S,143,28,28839,-0.00430016442636871,-0.015057228410841632,-0.12651940312034474,0.04058266790048246,1017.0,4.017977787270069,0.5832182035274064,6.974280009475057,-0.02316706757466626,0.05,0.9999999999986952,1545.8949440499914,0.710306587190741,143,2026-10-08 02:16:44.923244,25.0,0.038019196081373184,0.3867945834992703,0.3295114520748932
0323,cdot_cos,T,S-T,144,28,29069,-0.07784096367968121,0.03049702432463407,-0.0735407992533125,0.1372264258166534,1017.0,4.040181673016251,0.5833838794695086,7.000611233589931,-0.031368939475796206,0.23,0.9999999999986505,-49.505509351909694,0.7152738732093363,144,2026-10-08 02:16:45.153243,25.0,0.7699230151415317,0.1995771252902478,0.09653863367905378
0323,cdot_cos,P,T-P,145,29,29647,0.02533451071426779,0.00012527378506823995,0.103175474393949,0.9295231129366761,960.0,4.109783264903583,0.5845056119224054,7.038384430141699,-0.09937409967858027,0.578,0.999999999998637,-60.62511611139617,0.7202414404964711,145,2026-10-08 02:16:45.731244,25.0,0.5044256336538822,0.08691333222301312,0.12041797904382633
0323,cdot_cos,Q,P-Q,146,29,29758,-0.012721254789441019,-0.011311835104123502,-0.03805576550370881,0.278604536093051,960.0,4.140653485066054,0.5848416571333542,7.066673847269368,-0.044608046726657295,0.111,0.9999999999985799,162.97227625200313,0.7252086320488925,146,2026-10-08 02:16:45.842243,25.0,0.2929606725193434,0.46551915403830896,0.2781100915537977
0323,cdot_cos,R,Q-R,147,29,29789,0.12414334495613275,0.18466958372211925,0.13686459974557377,0.9683732706215853,960.0,4.213128517100087,0.5860090670111755,7.104987620515976,-0.10595248677237992,0.031,0.9999999999985645,-52.547473865999386,0.730175758723637,147,2026-10-08 02:16:45.873244,25.0,0.5604693879149732,1.4371971186226613,2.3379042591623564
0323,cdot_cos,S,R-S,148,29,29838,-0.004593587123136996,-0.013779946003451764,-0.12873693207926973,0.03847827727111391,960.0,4.229759706420659,0.5860554341373431,7.129677352257757,-0.024571957443073292,0.049,0.9999999999985092,1755.1342094224756,0.7351429012852206,148,2026-10-08 02:16:45.922244,25.0,0.03644587479607597,0.4913919560444429,0.3394120269504479
0323,cdot_cos,T,S-T,149,29,30086,-0.04145167597375111,0.011088510181377473,-0.03685808885061411,0.2846620866357423,960.0,4.261284928792443,0.5863984104544532,7.1579101098375535,-0.046831571964853165,0.248,0.9999999999984664,-64.90131653793908,0.7401102126448146,149,2026-10-08 02:16:46.170244,25.0,0.6216909737913993,0.19480741821737765,0.12711783214428812
0323,cdot_cos,P,T-P,150,30,30607,0.023531279018066755,-7.251470302713651e-06,0.06498295499181786,0.8354249574811948,978.0,4.326384185856479,0.5874044907953117,7.194211843087352,-0.09773666772692433,0.521,0.999999999998446,-50.597446043558136,0.7450777610675242,150,2026-10-08 02:16:46.691243,25.0,0.5940217874032473,0.09372327481969123,0.12495058937434904
0323,cdot_cos,Q,P-Q,151,30,30736,-0.010828678921579182,-0.011905559497522365,-0.03435995793964594,0.2975485364266313,978.0,4.358944581154561,0.5877626449011626,7.222554153206416,-0.04942762180582323,0.129,0.999999999998386,134.88340670093285,0.750044971912185,151,2026-10-08 02:16:46.820243,25.0,0.3762996854580286,0.41165324844966544,0.25240616510141406
0323,cdot_cos,R,Q-R,152,30,30767,0.12464812354859622,0.21428863494762193,0.1354768024701754,0.9672932447291585,978.0,4.432590723956492,0.5889263155691948,7.260777185298983,-0.1130680197616937,0.031,0.999999999998369,-54.68935473254272,0.7550120975442365,152,2026-10-08 02:16:46.851244,25.0,0.5695831181069072,1.4616304009403156,2.3756820258687505
0323,cdot_cos,S,R-S,153,30,30816,-0.0031505659696136968,-0.013815815514237441,-0.1277986895182099,0.03935555440516756,978.0,4.449565666012861,0.5889736400278459,7.285207523718328,-0.026329145866094333,0.049,0.9999999999983085,1832.8550683511246,0.7599792401261142,153,2026-10-08 02:16:46.900243,25.0,0.037090101308977275,0.3509542352002807,0.3464273889054753
0323,cdot_cos,T,S-T,154,30,31046,-0.12347026183857256,0.0404750908689815,-0.12031969586895885,0.047066106635696006,978.0,4.46698423900612,0.5890302341472318,7.309678932551396,-0.027120731253639018,0.23,0.9999999999982488,-13.98706077830633,0.7649465460944651,154,2026-10-08 02:16:47.130244,25.0,0.9712343751871019,0.20050714842068396,0.07573292605764877
0323,cdot_cos,P,T-P,155,31,31585,0.02414600693416726,3.9241921469986936e-05,0.1476162687727398,0.9756460715368248,979.0,4.541798954286375,0.5902028563334062,7.347972429792926,-0.1175893016772818,0.539,0.9999999999982343,-77.1506555907736,0.7699141365363708,155,2026-10-08 02:16:47.669244,25.0,0.4633092342923599,0.0990654733419346,0.13880281128062227
0323,cdot_cos,Q,P-Q,156,31,31695,-0.013703893246116629,-0.011730409438982932,-0.03784990018028389,0.2796401049310493,979.0,4.573776819268725,0.5905387654143014,7.3758333715215105,-0.05084394308104477,0.11,0.9999999999981682,198.7006675090762,0.774881334077679,156,2026-10-08 02:16:47.779244,25.0,0.26907921705977733,0.4870317674715231,0.2907078634759101
0323,cdot_cos,R,Q-R,157,31,31726,0.12907334436460308,0.181906831043901,0.1427772376107197,0.9726000281333842,979.0,4.64894594313011,0.5917064115707472,7.414066709915023,-0.12081528428992548,0.031,0.9999999999981506,-59.92512442456473,0.7798484586725858,157,2026-10-08 02:16:47.810244,25.0,0.5603690589317918,1.4849162251774028,2.4248104471414504
0323,cdot_cos,S,R-S,158,31,31775,-0.004977436272944499,-0.01363769591643095,-0.13405078063754758,0.03385361682252143,979.0,4.665841625229724,0.5917470356701315,7.438151530280879,-0.02742575826305688,0.049,0.9999999999980846,2298.8700658532634,0.7848156012591527,158,2026-10-08 02:16:47.859244,25.0,0.0332009856291025,0.3532250418741358,0.34480983876763277
0323,cdot_cos,T,S-T,159,31,32005,-0.12486597579992294,0.0591349621659903,-0.11988853952697844,0.047551917347288225,979.0,4.683561997233776,0.5918040955157294,7.462372356289791,-0.02887007201529684,0.23,0.999999999998019,-25.3122618385289,0.7897829174978239,159,2026-10-08 02:16:48.089243,25.0,0.9512027314911404,0.2038624608451254,0.07704509566978825
0323,cdot_cos,P,T-P,160,32,32564,0.02413441366806592,3.5944727296125546e-05,0.14900038946798885,0.9764548747947494,999.0,4.759618357218482,0.5929752417783927,7.500616270826257,-0.12504191204283754,0.559,0.9999999999980049,-82.11770219788077,0.7947505553278943,160,2026-10-08 02:16:48.648243,25.0,0.46342216440823497,0.09796746175358094,0.13605788906029764
0323,cdot_cos,Q,P-Q,161,32,32694,-0.010634988807891231,-0.011290426968665659,-0.034769402475957153,0.2954134946340153,999.0,4.793089619474279,0.5933293491182463,7.528512762469236,-0.05565211705296942,0.13,0.9999999999979331,195.95695197549097,0.7997177759582877,161,2026-10-08 02:16:48.778244,25.0,0.2874089534259252,0.42219019382396633,0.2574712481215162
0323,cdot_cos,R,Q-R,162,32,32723,0.13088898023842327,0.19900415873232266,0.1415239690463145,0.9717525834974348,999.0,4.869387807612713,0.5944934870993119,7.5666741696357755,-0.12820118391856786,0.029,0.9999999999979136,-62.3199895936636,0.8046848972493207,162,2026-10-08 02:16:48.807244,25.0,0.5678487779477969,1.6107471625695884,2.630972004773591
0323,cdot_cos,S,R-S,163,32,32774,-0.0036954024888004966,-0.014417109636293897,-0.13458438272722376,0.033419999249499906,999.0,4.886512954903315,0.5945335047042175,7.590503065112885,-0.029052099013068773,0.051,0.9999999999978408,2477.6366586519594,0.8096520416580526,163,2026-10-08 02:16:48.858243,25.0,0.03294872210475184,0.3448766133091055,0.3357872017765097
0323,cdot_cos,T,S-T,164,32,33004,-0.12274405357502692,0.049491749178051846,-0.11904865108622642,0.048511981897312914,999.0,4.904565222170242,0.5945915914390459,7.6144950909565985,-0.03073394414881669,0.23,0.9999999999977693,-28.954031255422976,0.8146193683002633,164,2026-10-08 02:16:49.088243,25.0,0.9467476221826381,0.2070107228568543,0.07848811855185552
0323,cdot_cos,P,T-P,165,33,33563,0.02464885533860457,-5.3877798642132434e-05,0.1473929089136315,0.9755130382400576,978.0,4.981737887417468,0.5957590763279399,7.652671517144014,-0.13254176323789532,0.559,0.9999999999977534,-87.20268678212078,0.8195870360124548,165,2026-10-08 02:16:49.647244,25.0,0.4638849119276597,0.09860779925794684,0.13805485732956388
0323,cdot_cos,Q,P-Q,166,33,33673,-0.012893550993269425,-0.010959632431214068,-0.037542406331873994,0.28119127562820617,978.0,5.014808741740627,0.5960954028906542,7.68016015560109,-0.05741619432381059,0.11,0.9999999999976747,223.37090566913648,0.8245542402490158,166,2026-10-08 02:16:49.757244,25.0,0.27024166369190455,0.5004229534726184,0.30064413021053066
0323,cdot_cos,R,Q-R,167,33,33722,0.1197186989401459,0.17732495955895825,0.13261224993341533,0.9649501885641972,978.0,5.091830937181444,0.5972488699121709,7.718164565055351,-0.1350700759564852,0.049,0.9999999999976543,-67.32215155191093,0.8295213814495452,167,2026-10-08 02:16:49.806243,25.0,0.5627524136314491,0.9700590377029545,1.571881539608524
0323,cdot_cos,S,R-S,168,33,33772,-0.0035934244804782375,-0.015728888591803568,-0.12331212342062414,0.04382221069392732,978.0,5.109874527435516,0.597301227993901,7.741916990354016,-0.03193845901915375,0.05,0.9999999999975745,1969.7363526220975,0.8344885246617338,168,2026-10-08 02:16:49.856243,25.0,0.039594184033205936,0.3655004093819958,0.36087180508143746
0323,cdot_cos,T,S-T,169,33,33982,-0.12018196619081589,0.041026386922704224,-0.11658854171033765,0.05143099448282548,978.0,5.128380978119644,0.5973626741007956,7.765723025001272,-0.032873482676575784,0.21,0.9999999999974969,-15.216971500334834,0.8394558404119168,169,2026-10-08 02:16:50.066243,25.0,0.9719575998485659,0.2299716993456647,0.08812595563870337
0323,cdot_cos,P,T-P,170,34,34541,0.021261678385025788,6.91106446533915e-05,0.1414436445758417,0.971697409584234,978.0,5.206462641160695,0.5985230128984944,7.803793775216411,-0.13987459146816253,0.559,0.9999999999974803,-92.21540209100107,0.8444235387726123,170,2026-10-08 02:16:50.625243,25.0,0.46534375736771033,0.10075655755131062,0.13968097145089706
0323,cdot_cos,Q,P-Q,171,34,34651,-0.01326224245380631,-0.0113867348001626,-0.0345239208388321,0.2966924869333704,978.0,5.241026809462009,0.5988770847989882,7.831343069991208,-0.06257453443291522,0.11,0.9999999999973966,218.31740086534361,0.8493907465785477,171,2026-10-08 02:16:50.735244,25.0,0.2907394652246165,0.517916485159121,0.3142197118301256
0323,cdot_cos,R,Q-R,172,34,34682,0.1504874429175741,0.19558883585444353,0.1637496853713804,0.9835968405781125,978.0,5.320404267895702,0.6000501663816629,7.869593229634805,-0.14513006178939922,0.031,0.9999999999973765,-70.37492411077815,0.8543578674532747,172,2026-10-08 02:16:50.766243,25.0,0.5661828314191615,1.5508305532962148,2.5605631752804134
0323,cdot_cos,S,R-S,173,34,34731,-0.004454957992147752,-0.012277056425165212,-0.15494240090972186,0.02036105599610599,978.0,5.3371783037663745,0.6000744378203049,7.892756020878559,-0.030947465527536057,0.049,0.99999999999729,4704.401660976494,0.859325009629478,173,2026-10-08 02:16:50.815244,25.0,0.02498293938564309,0.36215308078918823,0.3423272626667857
0323,cdot_cos,T,S-T,174,34,34961,-0.12174980806638964,0.057833931242457434,-0.1172948500742419,0.050576339853379115,978.0,5.355895269813042,0.6001347253240257,7.916329832374846,-0.034645350059151675,0.23,0.9999999999972063,-61.33749622048217,0.864292358095122,174,2026-10-08 02:16:51.045243,25.0,0.8987634741882389,0.21339829463699297,0.08137811324638239
0323,cdot_cos,P,T-P,175,35,35519,0.0250578388424703,0.00016801621555738154,0.14680764690885995,0.9751610868541358,999.0,5.435341519299391,0.6012965320911539,7.954414765619752,-0.14826125384096847,0.558,0.9999999999971882,-97.79242727485473,0.8692600868511476,175,2026-10-08 02:16:51.603244,25.0,0.4647190305082283,0.1019422473218114,0.14237679119417349
0323,cdot_cos,Q,P-Q,176,35,35630,-0.011641568828107726,-0.009786298363218825,-0.03669940767057803,0.2854705807963714,999.0,5.469662817824184,0.60163642660676,7.981619058484281,-0.06470646705514535,0.111,0.9999999999970987,245.82563986601295,0.8742272994780984,176,2026-10-08 02:16:51.714243,25.0,0.27491602767970535,0.5139504098063703,0.3092008876107451
0323,cdot_cos,R,Q-R,177,35,35678,0.13081359613259388,0.1835055242405766,0.1424551649607016,0.9723846350948211,999.0,5.5494385102764054,0.6027934559623427,8.019655328435638,-0.15182594759611412,0.048,0.9999999999970763,-75.2958255731493,0.879194439246485,177,2026-10-08 02:16:51.762244,25.0,0.5633740195543646,1.0170962509769381,1.6619935927546143
0323,cdot_cos,S,R-S,178,35,35730,-0.003836018863616655,-0.015448322476242553,-0.13464961499621053,0.0333673591976403,999.0,5.56730405791797,0.6028331390900811,8.042807251645419,-0.03430113679554934,0.052,0.9999999999969834,2961.5813444784394,0.8841615847873674,178,2026-10-08 02:16:51.814244,25.0,0.03250810721974788,0.5183509808733235,0.3435682238762416
0323,cdot_cos,T,S-T,179,35,35940,-0.036334282525819585,0.019580671219497577,-0.03249826366220293,0.30736725812585197,999.0,5.603347012287231,0.6031986210941219,8.070257582205274,-0.06951471789443675,0.21,0.999999999996914,-96.34833099730804,0.8891289211713845,179,2026-10-08 02:16:52.024243,25.0,0.6025630585019858,0.25311541877606414,0.1716331160441004
0323,cdot_cos,P,T-P,180,36,36518,0.024274667637534646,0.0001229598058846578,0.06060895016335423,0.8198340770243869,960.0,5.673612533803917,0.6041728991935637,8.10584029732731,-0.13669271843682224,0.578,0.9999999999968826,-68.95156586284679,0.8940967091567995,180,2026-10-08 02:16:52.602243,25.0,0.6117371003258952,0.0903911983216207,0.1215666462226399
0323,cdot_cos,Q,P-Q,181,36,36629,-0.014175586081689248,-0.012587197403551905,-0.03845025371922389,0.27662672460472026,960.0,5.707839237547025,0.604501452019688,8.132746185158629,-0.0671814474431783,0.111,0.9999999999967846,211.5680203199418,0.8990639257158112,181,2026-10-08 02:16:52.713243,25.0,0.3553402251927956,0.5168333230546359,0.30834868237033924
0323,cdot_cos,R,Q-R,182,36,36677,0.12028472348462321,0.18284061818301822,0.13446030956631247,0.9664796569060855,960.0,5.788349531522046,0.605648608968831,8.170657445906778,-0.1594607090030355,0.048,0.9999999999967606,-80.44170558247829,0.9040310652466149,182,2026-10-08 02:16:52.761244,25.0,0.5606289956167644,1.0344036700172161,1.6772977911462816
0323,cdot_cos,S,R-S,183,36,36729,-0.003490298126516814,-0.01795732487129679,-0.12377502161114003,0.04333985550778601,960.0,5.807141989868677,0.605700023776547,8.193769082531487,-0.037540633337401805,0.052,0.9999999999966607,2371.302764354154,0.908998210845068,183,2026-10-08 02:16:52.813244,25.0,0.03886415290106824,0.5227868793354992,0.3613934297429084
0323,cdot_cos,T,S-T,184,36,36939,-0.03875089370301376,0.01583704674134657,-0.035260595576496946,0.2928639549861344,960.0,5.842719366972938,0.6060473918900309,8.220837860740188,-0.07138214910647597,0.21,0.9999999999965844,-97.42263165626551,0.9139655578835755,184,2026-10-08 02:16:53.023244,25.0,0.6224516418985421,0.25522278086273104,0.16941608144886036
0323,cdot_cos,P,T-P,185,37,37478,0.023365540215092462,6.034050425894294e-06,0.06211643391810622,0.8253337511711079,959.0,5.914335557831024,0.6070257488339595,8.25645410957889,-0.1448856136476167,0.539,0.9999999999965511,-75.12949644531746,0.9189333311067579,185,2026-10-08 02:16:53.562243,25.0,0.6021066704900292,0.09922236058571797,0.13286862867919544
0323,cdot_cos,Q,P-Q,186,37,37588,-0.013214711520460614,-0.01159359451989235,-0.03658025173555308,0.2860785960419349,959.0,5.949681071684342,0.6073646686734643,8.28336164516016,-0.07213554273771747,0.11,0.9999999999964488,214.65273622284516,0.9239005506423724,186,2026-10-08 02:16:53.672243,25.0,0.3647587597811508,0.5301473089883895,0.3213228532119785
0323,cdot_cos,R,Q-R,187,37,37638,0.11557356481128071,0.20728186159088358,0.12878827633174134,0.9615691850856252,959.0,6.03096796580847,0.6085030886269218,8.321166622074252,-0.16735406521712354,0.05,0.9999999999964235,-83.64094655071217,0.9288676928500191,187,2026-10-08 02:16:53.722244,25.0,0.5661113421022174,1.0072164015713803,1.6257378824825608
0323,cdot_cos,S,R-S,188,37,37688,-0.003136645390776669,-0.015679731583512883,-0.11871021020205738,0.048904025862994624,959.0,6.05040271184148,0.6085609556079709,8.344179497976485,-0.04034667875947612,0.05,0.9999999999963171,2194.8161828248744,0.9338348360949947,188,2026-10-08 02:16:53.772243,25.0,0.042942129583691535,0.5450179011505707,0.3886949206601997
0323,cdot_cos,T,S-T,189,37,37917,-0.04127452934231616,0.011112652947264412,-0.03813788395153949,0.2781921112390556,959.0,6.085469755923527,0.6088900756724006,8.370866684037823,-0.07310586980435918,0.229,0.9999999999962349,-99.53568495327913,0.9388022197610586,189,2026-10-08 02:16:54.001244,25.0,0.6388368575487714,0.2373960685451352,0.15313119686483442
0323,cdot_cos,P,T-P,190,38,38437,0.025354871893732037,-4.35917889336652e-05,0.0666294012360482,0.8410063613306451,978.0,6.159130111235152,0.6098844397124448,8.406689211632223,-0.1547973404942963,0.52,0.9999999999962002,-82.15449010636907,0.943770001010001,190,2026-10-08 02:16:54.521244,25.0,0.5899415909050134,0.10520129519680553,0.1416545294454324
0323,cdot_cos,Q,P-Q,191,38,38566,-0.011451526072026742,-0.012558954149656111,-0.03680639796575878,0.28492530467944843,978.0,6.194879102928205,0.6102211146400734,8.433436619730296,-0.07577424074454546,0.129,0.9999999999960927,234.71631911036255,0.9487372509382305,191,2026-10-08 02:16:54.650244,25.0,0.3524397803509479,0.45962519238024235,0.2771239666128132
0323,cdot_cos,R,Q-R,192,38,38597,0.12518763415047676,0.20790167341007904,0.1366391602225035,0.9682002037545523,978.0,6.2777134108692545,0.6113643779356756,8.471326474443442,-0.17707365410415754,0.031,0.9999999999960654,-88.60549774429903,0.9537043667477437,192,2026-10-08 02:16:54.681243,25.0,0.5643531814759469,1.6421418559286023,2.6720744497112783
0323,cdot_cos,S,R-S,193,38,38646,-0.003605896107677969,-0.015681705467533554,-0.12879353025815474,0.03842596138350866,978.0,6.296691897995778,0.611409726629188,8.493988548749046,-0.04089948155374565,0.049,0.9999999999959519,3002.824602057517,0.9586715087769409,193,2026-10-08 02:16:54.730243,25.0,0.03581157635358414,0.4516129001928174,0.3873160638066066
0323,cdot_cos,T,S-T,194,38,38876,-0.07967483690245479,0.03194016173178975,-0.07606894079477682,0.12991353026545402,978.0,6.321971475088151,0.6115630307933982,8.51810054942844,-0.05466248182231077,0.23,0.9999999999958488,-89.77577575578637,0.9636389060925921,194,2026-10-08 02:16:54.960243,25.0,0.7774146044871405,0.23068169663242682,0.10991120474944514
0323,cdot_cos,P,T-P,195,39,39415,0.02426571266938003,7.632648913340074e-05,0.10394054957183482,0.930765865170285,999.0,6.402805478446695,0.6126607317587697,8.55535500356762,-0.17607595986769947,0.539,0.9999999999958218,-110.60706137240763,0.9686067462084065,195,2026-10-08 02:16:55.499244,25.0,0.5018009743469668,0.10886223970314295,0.1499703216299517
0323,cdot_cos,Q,P-Q,196,39,39545,-0.011679706861960442,-0.012474898027115532,-0.03594541953134047,0.2893309856451908,999.0,6.439324969488139,0.61300172256402,8.582038329068574,-0.0802558745780736,0.13,0.999999999995707,281.0048946020447,0.9735740029656823,196,2026-10-08 02:16:55.629244,25.0,0.3030273073087473,0.4628496143985271,0.2809191618572626
0323,cdot_cos,R,Q-R,197,39,39575,0.12340050502185683,0.19985163031591233,0.13508021188381727,0.966978113634168,999.0,6.523146378190312,0.6141405486788105,8.6198877187511,-0.18573077828817108,0.03,0.999999999995678,-92.61721551713484,0.9785411159207063,197,2026-10-08 02:16:55.659244,25.0,0.5667191881368784,1.719055381126659,2.7940469567390975
0323,cdot_cos,S,R-S,198,39,39625,-0.0038555980911406506,-0.0151066387556631,-0.12725610311299748,0.03987160599805031,999.0,6.542468292355738,0.6141874794142644,8.642398257977721,-0.04315208179388867,0.05,0.999999999995557,3038.0665275163815,0.9835082593181954,198,2026-10-08 02:16:55.709243,25.0,0.036732338530600504,0.5603182603390078,0.38643828330853225
0323,cdot_cos,T,S-T,199,39,39855,-0.03997926640560547,0.015795332766538175,-0.03612366831446482,0.288415565064172,999.0,6.579178204224212,0.6145268946967046,8.668983049419937,-0.08230968874257819,0.23,0.9999999999954639,-115.36783690813758,0.9884756697822896,199,2026-10-08 02:16:55.939244,25.0,0.6214280847178932,0.24317416527643176,0.1596083124716268
0323,cdot_cos,P,T-P,200,40,40414,0.024813100649616702,-1.9876119599810982e-05,0.06479236705522218,0.8347688112188666,979.0,6.654328408382897,0.6155086447128277,8.704621421484893,-0.16977355369896957,0.559,0.9999999999954248,-89.08975148458147,0.9934435759823924,200,2026-10-08 02:16:56.498244,25.0,0.5973933161207984,0.0996100772775373,0.1344368589600795
0323,cdot_cos,Q,P-Q,201,40,40524,-0.013311173167819353,-0.011321388401978149,-0.03812427381743606,0.2782604396972881,979.0,6.690542270620499,0.6158356910873404,8.730993299162762,-0.08247368030821714,0.11,0.9999999999953,266.9342337790637,0.9984108080867048,201,2026-10-08 02:16:56.608243,25.0,0.3469696458211562,0.5505129903221788,0.3292169294327478
0323,cdot_cos,R,Q-R,202,40,40572,0.1219644191339959,0.18087606856319277,0.13527559230181527,0.9671337278342262,979.0,6.775441266253776,0.6169715712028012,8.768829207802376,-0.1948861412434444,0.048,0.99999999999527,-98.96507510356415,1.0033779471850703,202,2026-10-08 02:16:56.656243,25.0,0.5616867586644207,1.0893313956332658,1.7687290756932723
0323,cdot_cos,S,R-S,203,40,40624,-0.0037700248767003597,-0.01644310403686025,-0.12573444401069625,0.04135366778486711,979.0,6.795118084601293,0.6170201119318671,8.791199030939952,-0.04551686960534523,0.052,0.999999999995139,3077.1946468974124,1.0083450935625795,203,2026-10-08 02:16:56.708243,25.0,0.03756718165682336,0.4451132212072931,0.37840035283685475
0323,cdot_cos,T,S-T,204,40,40852,-0.07653894726314292,0.0309370607225714,-0.07276892238644256,0.1395271257586525,979.0,6.821733041259335,0.6171838709527517,8.815164579702385,-0.06176630405818585,0.228,0.9999999999950218,-99.22772110545424,1.0133125134136713,204,2026-10-08 02:16:56.936243,25.0,0.7686809581883797,0.2399238917112395,0.116732266044044
0323,cdot_cos,P,T-P,205,41,41393,0.026492518881125755,-6.260914974463056e-05,0.10303146614426867,0.9292868987823876,959.0,6.904523379221618,0.6182738685072761,8.85235062310682,-0.19346780301871325,0.541,0.9999999999949906,-120.82733434938943,1.0182804269862815,205,2026-10-08 02:16:57.477243,25.0,0.5062416411812006,0.11146097687564954,0.15303204798943287
0323,cdot_cos,Q,P-Q,206,41,41521,-0.008474748275532098,-0.009485032652436711,-0.03496726715665785,0.2943849272106993,959.0,6.9423338182387875,0.6186189166599085,8.87886861694715,-0.08910242750177677,0.128,0.9999999999948609,302.46611877415216,1.0232476918980418,206,2026-10-08 02:16:57.605243,25.0,0.30996476241258125,0.4823867255273166,0.2953940548216377
0323,cdot_cos,R,Q-R,207,41,41552,0.12235759643855693,0.19051325158160523,0.13083234471408903,0.963413684374017,959.0,7.028014380956611,0.6197472941350083,8.916627812962188,-0.20347947917585718,0.031,0.9999999999948276,-101.3641748422612,1.0282148033423473,207,2026-10-08 02:16:57.636243,25.0,0.5700073198279628,1.7036983704953503,2.763889119929788
0323,cdot_cos,S,R-S,208,41,41602,-0.0029426870216282103,-0.014498675388538282,-0.12530028346018512,0.04178610784232166,959.0,7.047963117209499,0.6197962060438832,8.938844998742457,-0.04773135652650684,0.05,0.9999999999946887,3184.2577039404932,1.033181946576761,208,2026-10-08 02:16:57.686244,25.0,0.03827283905326036,0.45366666999008487,0.39897472505776577
0323,cdot_cos,T,S-T,209,41,41832,-0.08328250514485225,0.017677696762420536,-0.08033981812322404,0.11831383552454856,959.0,7.073381047955619,0.6199346827872303,8.96230877791342,-0.061004907472295096,0.23,0.9999999999945608,-95.85400858624246,1.0381493826034642,209,2026-10-08 02:16:57.916243,25.0,0.8044618846934877,0.23838398659093646,0.11051274237443565
0323,cdot_cos,P,T-P,210,42,42352,0.023672603208442042,-6.887577743752846e-05,0.10695510835329429,0.9354675167442779,998.0,7.15761975104133,0.6210288827089776,8.999580874037116,-0.20352095919820584,0.52,0.9999999999945293,-130.24681220807392,1.043117297484365,210,2026-10-08 02:16:58.436243,25.0,0.4964599531877098,0.11738936323330776,0.1619975059340588
0323,cdot_cos,Q,P-Q,211,42,42481,-0.012420330567379042,-0.013136651259296252,-0.03609293377582108,0.288573283488825,998.0,7.1954659857182595,0.6213661740227135,9.02588323524196,-0.09218902213276843,0.129,0.9999999999943916,330.07650221492594,1.0480845698137973,211,2026-10-08 02:16:58.565243,25.0,0.29889930644570073,0.4839232793884028,0.2933816641622441
0323,cdot_cos,R,Q-R,212,42,42512,0.1233624525776764,0.1939814310593204,0.13578278314505546,0.9675343895094777,998.0,7.282471957123538,0.6224961933959604,9.06369974918434,-0.21352950326975828,0.031,0.9999999999943582,-107.37911580077153,1.0530516799061254,212,2026-10-08 02:16:58.596244,25.0,0.5665097640559149,1.7262281278370097,2.8066442388799495
0323,cdot_cos,S,R-S,213,42,42561,-0.004263349486139764,-0.01643558071000761,-0.12762580206381616,0.03951928772218256,998.0,7.302492129644154,0.622542321248232,9.0857244315715,-0.04949425445786042,0.049,0.999999999994211,3556.0998558155593,1.0580188215165018,213,2026-10-08 02:16:58.645243,25.0,0.0363621057307972,0.6120024372162046,0.40857494940032985
0323,cdot_cos,T,S-T,214,42,42791,-0.03547688071487251,0.014131393484255822,-0.031213531228732747,0.3142469834017713,998.0,7.342448195970726,0.622909038757763,9.11239205772557,-0.09914830708114616,0.23,0.9999999999941017,-135.40136844508842,1.0629862717003382,214,2026-10-08 02:16:58.875243,25.0,0.6060420813024787,0.25308624507984767,0.1737220275068343
0323,cdot_cos,P,T-P,215,43,43350,0.023721422747504606,2.4366800958891412e-05,0.059198303462377116,0.8145661743219468,1019.0,7.418911802380884,0.6238589590153955,9.147586750207884,-0.19105674549969662,0.559,0.9999999999940519,-96.75384610453939,1.0679542908194946,215,2026-10-08 02:16:59.434243,25.0,0.6181320981584645,0.10268055507626837,0.13678641576056894
0323,cdot_cos,Q,P-Q,216,43,43480,-0.012292301392914097,-0.012656185242922108,-0.0360137241404187,0.2889799946016519,1019.0,7.457245056545994,0.6241957296162063,9.173785941528958,-0.09649240810931936,0.13,0.9999999999939055,280.7974839926577,1.0729215707935227,216,2026-10-08 02:16:59.564243,25.0,0.37530418547814925,0.48604935999371296,0.2948711858854617
0323,cdot_cos,R,Q-R,217,43,43510,0.12352015572019312,0.18660770180271047,0.13581245711310722,0.9675576840952995,1019.0,7.545284635979249,0.6253224234651681,9.211594396330579,-0.22322775797420175,0.03,0.9999999999938688,-112.48428309222011,1.077888677492506,217,2026-10-08 02:16:59.594244,25.0,0.5668049142544002,1.8043386832161743,2.9346526477751786
0323,cdot_cos,S,R-S,218,43,43560,-0.004726135320958469,-0.016579006800220838,-0.1282462910411516,0.0389346699465634,1019.0,7.5655053775389645,0.6253677334805815,9.233463829548663,-0.05163799285570169,0.05,0.9999999999937117,3787.0162601556585,1.0828558206652172,218,2026-10-08 02:16:59.644243,25.0,0.03604682896273013,0.6050479724889435,0.4044148311943019
0323,cdot_cos,T,S-T,219,43,43789,-0.03631284882616742,0.016765223339440628,-0.03158671350520895,0.31223999556841303,1019.0,7.605789433228144,0.6257310215988411,9.259993436600382,-0.1032455966504455,0.229,0.9999999999935952,-142.05695479935244,1.0878232829287175,219,2026-10-08 02:16:59.873244,25.0,0.6066199286701265,0.2574823211154586,0.1759129069396474
0323,cdot_cos,P,T-P,220,44,44369,0.023912763743789197,-7.785826483096118e-05,0.06022561256995662,0.8184142026914715,998.0,7.6834322806098445,0.626682565199594,9.295224887867434,-0.20033496776687715,0.58,0.9999999999935422,-102.03354952900898,1.0927913794252928,220,2026-10-08 02:17:00.453243,25.0,0.6159218626884307,0.10007818641684403,0.13386697824431174
0323,cdot_cos,Q,P-Q,221,44,44478,-0.012995937886862327,-0.01070003778106999,-0.036908701630651526,0.28440450037254006,998.0,7.721880129471683,0.6270130040458229,9.321239781871544,-0.09992104501620849,0.109,0.9999999999933844,303.8805028422442,1.097758627195575,221,2026-10-08 02:17:00.562243,25.0,0.3660692807106779,0.5838813251837582,0.3527325583654888
0323,cdot_cos,R,Q-R,222,44,44528,0.11917812162549866,0.16781154617048633,0.132174059512361,0.9645777910271843,998.0,7.810718409499904,0.6281328260430912,9.358989818229439,-0.23250247637185129,0.05,0.9999999999933458,-118.39509464814103,1.1027257688731755,222,2026-10-08 02:17:00.612243,25.0,0.5653916275284268,1.0966405544289692,1.7767656005644206
0323,cdot_cos,S,R-S,223,44,44578,-0.004091509407410408,-0.01578279680512407,-0.12326963103290907,0.04386674498551201,998.0,7.83154418491458,0.6281837203437788,9.380804954434389,-0.05488583390478109,0.05,0.9999999999931778,3489.912231180574,1.107692911735239,223,2026-10-08 02:17:00.662244,25.0,0.03931650603524978,0.4873002311172847,0.4165155082935179
0323,cdot_cos,T,S-T,224,44,44808,-0.07689753767043576,0.03614219111522336,-0.07280602826302536,0.1394157903506113,998.0,7.859448432611632,0.6283454519916056,9.404235199087429,-0.07375695031746249,0.23,0.9999999999930259,-116.68165548455482,1.1126603890207838,224,2026-10-08 02:17:00.892244,25.0,0.7742538927634518,0.2493982166241642,0.12132281607414162
0323,cdot_cos,P,T-P,225,45,45367,0.02658555631598743,5.175276754038251e-06,0.10348309398642319,0.9300252549482149,998.0,7.946267364561695,0.6294236065301274,9.441376073489185,-0.2308837480832883,0.559,0.9999999999929858,-145.73680502356999,1.1176284858102155,225,2026-10-08 02:17:01.451244,25.0,0.5063409231127873,0.11271122989810381,0.15531114839009472
0323,cdot_cos,Q,P-Q,226,45,45496,-0.009505942643424222,-0.010060810911263292,-0.036091498959411654,0.2885806476948259,998.0,7.985459587637712,0.6297578892132415,9.467360034079464,-0.10501862273210141,0.129,0.9999999999928199,376.5230199143504,1.1225957757453118,226,2026-10-08 02:17:01.580243,25.0,0.3016454632971583,0.5027539990364807,0.3038156827598225
0323,cdot_cos,R,Q-R,227,45,45527,0.13497346817436529,0.20381698924480274,0.1444794108177895,0.9737115458989345,998.0,8.075977896313107,0.6308848867538762,9.505262464463748,-0.2442174714559143,0.031,0.9999999999927786,-123.51300131978678,1.127562880636035,227,2026-10-08 02:17:01.611244,25.0,0.5655372718768865,1.7833961352872723,2.919945441141771
0323,cdot_cos,S,R-S,228,45,45577,-0.0034627205072188323,-0.01357937714265843,-0.1384361886815841,0.030445316118228802,998.0,8.096030148025523,0.63092010197152,9.5267078576691,-0.05447112070809642,0.05,0.9999999999925986,5388.191908025631,1.1325300232631448,228,2026-10-08 02:17:01.661243,25.0,0.030701914321156962,0.39138515859489686,0.4010450342483196
0323,cdot_cos,T,S-T,229,45,45807,-0.1634848619187661,0.07536461548495904,-0.16002214141154728,0.017976435639061636,998.0,8.115116412172597,0.6309408941406135,9.547891547923664,-0.05197132081774153,0.23,0.999999999992418,120.22795116369095,1.1374975139082848,229,2026-10-08 02:17:01.891244,25.0,0.9530388569740375,0.24215958005542904,0.08298375716119002
0323,cdot_cos,P,T-P,230,46,46365,0.021910893653159017,8.006887820610714e-05,0.1853957555719251,0.9903861855988028,1019.0,8.20742355485102,0.6320856560625642,9.586077286838345,-0.2527491032270683,0.558,0.9999999999923851,-175.3882432315717,1.142465646876515,230,2026-10-08 02:17:02.449243,25.0,0.4518631796586264,0.11862266029483108,0.16542498687889542
0323,cdot_cos,Q,P-Q,231,46,46476,-0.012995210956493202,-0.010559226498943714,-0.03490610460965222,0.2947026478800419,1019.0,8.247499301061628,0.6324260087522373,9.612067953034012,-0.11057986591514679,0.111,0.9999999999922112,417.71151404284365,1.147432907066669,231,2026-10-08 02:17:02.560243,25.0,0.2764652370663348,0.5920744402639109,0.3610427586541246
0323,cdot_cos,R,Q-R,232,46,46506,0.12875365096378738,0.16810558573666534,0.14174886192028058,0.9719065047630899,1019.0,8.338864080589609,0.633547529006491,9.649933412284094,-0.25378779140395047,0.03,0.9999999999921684,-127.6908954124037,1.1524000082973542,232,2026-10-08 02:17:02.590244,25.0,0.568768279556837,1.864820059488892,3.0454926509326796
0323,cdot_cos,S,R-S,233,46,46556,-0.00520921176152757,-0.01248603819838897,-0.13396286272531496,0.03392558001109338,1019.0,8.359388504630962,0.6335866509928552,9.671305447462988,-0.0573936376416311,0.05,0.999999999991979,5020.045555314049,1.1573671507585148,233,2026-10-08 02:17:02.640243,25.0,0.03265098594505453,0.4932324140042432,0.4104884808270626
0323,cdot_cos,T,S-T,234,46,46785,-0.07677329882087597,0.04104242464226712,-0.0715640870593484,0.14318283454271422,1019.0,8.388187321990033,0.6337517458399682,9.69456256441854,-0.08075428422391139,0.229,0.9999999999918093,-141.49833862644846,1.1623346537483965,234,2026-10-08 02:17:02.869244,25.0,0.7488020732875762,0.25555735025992965,0.12575902776886982
0323,cdot_cos,P,T-P,235,47,47384,0.0230154991018632,1.7822453437443653e-05,0.09978879792273918,0.9237708387676633,1018.0,8.47643377105001,0.6348161297481418,9.731572417017698,-0.24887268987566422,0.599,0.9999999999917644,-157.9490298197228,1.1673029111244644,235,2026-10-08 02:17:03.468243,25.0,0.5088918790268762,0.10692623859501117,0.14732295335555357
0323,cdot_cos,Q,P-Q,236,47,47494,-0.013563633570550104,-0.010979829583701407,-0.036579132672413306,0.2860843099463002,1018.0,8.516284955826857,0.6351454942945474,9.757316904396243,-0.11319861219586892,0.11,0.9999999999915762,411.92678192128903,1.1722701736807568,236,2026-10-08 02:17:03.578244,25.0,0.30163157730647194,0.6005706361733022,0.36228349797133447
0323,cdot_cos,R,Q-R,237,47,47542,0.12686423804325195,0.16854276941269958,0.14042787161380205,0.9709905976969468,1018.0,8.608559311008136,0.6362624364097367,9.795162537178467,-0.26380068114457234,0.048,0.9999999999915309,-134.834264820588,1.1772373101555782,237,2026-10-08 02:17:03.626244,25.0,0.5650204213951382,1.1792079461743394,1.9223823996099934
0323,cdot_cos,S,R-S,238,47,47594,-0.0042110453872347235,-0.014965224412435843,-0.13107528343048666,0.0363728409906984,1018.0,8.629488918659593,0.63630424807873,9.816450717830183,-0.060227752083744666,0.052,0.9999999999913279,4868.806578694818,1.1822044562122418,238,2026-10-08 02:17:03.678244,25.0,0.034045687040662756,0.47232729496186154,0.4024924548357097
0323,cdot_cos,T,S-T,239,47,47824,-0.07979301449724527,0.04255085166591145,-0.07558196911001054,0.13129587474531354,1018.0,8.65768134968417,0.636455159478471,9.839384931271894,-0.08134417460400513,0.23,0.999999999991145,-139.92596024224903,1.1871719750975498,239,2026-10-08 02:17:03.908243,25.0,0.771365048511076,0.2562653392351491,0.12257578706337692
0323,cdot_cos,P,T-P,240,48,48402,0.023917557259865805,8.363938216440077e-05,0.10371057175711107,0.9303944476335104,980.0,8.747370974707762,0.637523783378915,9.876503361939555,-0.2602179565922367,0.578,0.9999999999910968,-167.3870310348706,1.1921402318458556,240,2026-10-08 02:17:04.486243,25.0,0.5028819435985294,0.11141715041187408,0.15517236163251194
0323,cdot_cos,Q,P-Q,241,48,48493,-0.015660533541629877,-0.01029229248004741,-0.039578090801495686,0.2710202781480247,980.0,8.786479575560296,0.6378348144442154,9.901887729974614,-0.11426376532678874,0.091,0.9999999999908964,469.2592076758815,1.1971074582792782,241,2026-10-08 02:17:04.577244,25.0,0.2787766119423181,0.7249051749923335,0.42976484453334657
0323,cdot_cos,R,Q-R,242,48,48544,0.11774140913718502,0.16773385633131807,0.1334019426788149,0.9656118052849519,980.0,8.879303716556366,0.6389420401798027,9.939634245550778,-0.27288269188866077,0.051,0.9999999999908494,-143.25798386336842,1.2020746007346852,242,2026-10-08 02:17:04.628243,25.0,0.5591869186000719,1.122967385020584,1.820081196001376
0323,cdot_cos,S,R-S,243,48,48593,-0.005587847287440053,-0.015390012914396192,-0.12332925642462507,0.04380426659715285,980.0,8.901022248832396,0.6389922337636076,9.960931949193085,-0.06425792655751855,0.049,0.9999999999906363,4156.403060243382,1.2070417401235694,243,2026-10-08 02:17:04.677243,25.0,0.0389032487953896,0.5125523578946113,0.4432353525720281
0323,cdot_cos,T,S-T,244,48,48841,-0.08104159489187603,0.03270519192738438,-0.07545374760443598,0.13166192192686882,980.0,8.929533847630038,0.6391430816950895,9.983762964603931,-0.08457924098652828,0.248,0.9999999999904425,-134.71390843332773,1.2120093124510065,244,2026-10-08 02:17:04.925244,25.0,0.7864205193021719,0.24003121524514506,0.11496612418404248
0323,cdot_cos,P,T-P,245,49,49382,0.02208429462803657,-2.5885850236766148e-05,0.1031258895199126,0.9294418621875706,998.0,9.020077731593988,0.6402071811723531,10.020856806107435,-0.2700417775609938,0.541,0.9999999999903905,-174.2906002091025,1.2169775306809099,245,2026-10-08 02:17:05.466244,25.0,0.5031877011814079,0.12206494673441337,0.1673639259962096
0323,cdot_cos,Q,P-Q,246,49,49511,-0.01238703257360729,-0.01308567661732299,-0.034471327201643864,0.2969669229251761,998.0,9.061608119996674,0.6405468829012526,10.046615892845479,-0.12472170949832875,0.129,0.9999999999901877,427.7872489299231,1.2219448444291023,246,2026-10-08 02:17:05.595244,25.0,0.311874456217585,0.5249971806327094,0.3219409953696578
0323,cdot_cos,R,Q-R,247,49,49541,0.12320843553920087,0.2024092378956156,0.13559546811280815,0.9673869704222122,998.0,9.155527004197227,0.6416525029573221,10.084391466893674,-0.28377946851124214,0.03,0.9999999999901359,-143.86294653369893,1.226911939570062,247,2026-10-08 02:17:05.625243,25.0,0.5709248043889409,1.926272663944406,3.1306294733517723
0323,cdot_cos,S,R-S,248,49,49591,-0.003726960353951153,-0.01439451585297074,-0.12693539589315203,0.040179672586009976,998.0,9.177184479833338,0.641698391568835,10.10550719741731,-0.06585043340933387,0.05,0.9999999999899121,4749.08758223581,1.2318790808945912,248,2026-10-08 02:17:05.675244,25.0,0.03653608659392057,0.633138313978705,0.433149512722224
0323,cdot_cos,T,S-T,249,49,49821,-0.038452197407804214,0.015308887536246818,-0.03472523705385306,0.29564336612657865,998.0,9.218840835595097,0.6420359616459751,10.131187460902824,-0.12704219362572247,0.23,0.9999999999897413,-181.27128072135338,1.2368466295745384,249,2026-10-08 02:17:05.905244,25.0,0.6177540620979344,0.2719143277509463,0.1811145902685187
0323,cdot_cos,P,T-P,250,50,50380,0.02405238503495105,-3.937685342478581e-05,0.06250458244275527,0.8267282054068101,1018.0,9.302265070598773,0.6429791842431113,10.166424900748963,-0.2558546455590267,0.559,0.9999999999896678,-136.56633367818324,1.2418149318101577,250,2026-10-08 02:17:06.464243,25.0,0.6044359922178623,0.1113105075369745,0.14923834526596783
0323,cdot_cos,Q,P-Q,251,50,50490,-0.012735724423647581,-0.0102574495594812,-0.03678810945859863,0.2850184676649008,1018.0,9.343285983021435,0.6433041084095888,10.191886500831561,-0.12660151475049922,0.11,0.9999999999894518,397.79475995810463,1.2467822084448716,251,2026-10-08 02:17:06.574244,25.0,0.360254488786127,0.6192983188980024,0.37291738566055893
0323,cdot_cos,R,Q-R,252,50,50538,0.12891483853153501,0.17092805725513133,0.1416505629551826,0.9718393274016266,1018.0,9.438510700756334,0.6444110233954398,10.229740719260699,-0.2956253754132419,0.048,0.9999999999894005,-152.69814107070698,1.2517493436371292,252,2026-10-08 02:17:06.622243,25.0,0.5645365348206697,1.2152521738755622,1.98384828614373
0323,cdot_cos,S,R-S,253,50,50590,-0.004275112100689228,-0.015003788404336705,-0.13318995063222425,0.03456461296608641,1018.0,9.459950191713489,0.6444503637902809,10.250643467605206,-0.0669691854235003,0.052,0.9999999999891629,5812.249493511445,1.256716489464374,253,2026-10-08 02:17:06.674243,25.0,0.032897807020136186,0.4973151146068564,0.4122979030222099
0323,cdot_cos,T,S-T,254,50,50799,-0.07474073734802375,0.040163122953311856,-0.07046562524733452,0.14658498138373124,1018.0,9.490231472675447,0.6446171806835123,10.2735403008243,-0.09482656811101553,0.209,0.9999999999889512,-166.99377471845273,1.2616840035962242,254,2026-10-08 02:17:06.883244,25.0,0.7454464957987561,0.2916947669857755,0.14488651177970405
0323,cdot_cos,P,T-P,255,51,51398,0.023012929734633116,3.506483453988809e-05,0.09775366708265687,0.9201099365958045,1019.0,9.581878604313543,0.6456634821988022,10.310452408813829,-0.2884585255136576,0.599,0.999999999988896,-185.0632485693984,1.2666524423173058,255,2026-10-08 02:17:07.482244,25.0,0.5110619498159579,0.11100329373365055,0.15300021976309852
0323,cdot_cos,Q,P-Q,256,51,51508,-0.01400457057999949,-0.011313355080860668,-0.037017500314632606,0.28385126129681104,1019.0,9.62321341856836,0.64598598258854,10.33581064090343,-0.1309543163379485,0.11,0.9999999999886667,488.38455452336996,1.2716197235076343,256,2026-10-08 02:17:07.592243,25.0,0.3003695768056702,0.6233531216025121,0.37577103868015754
0323,cdot_cos,R,Q-R,257,51,51557,0.1214760728242021,0.1659976137514444,0.1354806434042016,0.9672962824858432,1019.0,9.719016291066096,0.6470839874319032,10.373580560931584,-0.3052534927766478,0.049,0.9999999999886114,-158.74171912103725,1.276586860434979,257,2026-10-08 02:17:07.641243,25.0,0.5649612470621486,1.2034456451791868,1.9551606632190883
0323,cdot_cos,S,R-S,258,51,51608,-0.004956736620666575,-0.0175118555944874,-0.12643280944486868,0.04066704144923998,1019.0,9.74115109179592,0.6471301158142914,10.394483955589362,-0.07095332591948622,0.051,0.9999999999883618,5079.305944127891,1.2815540035181687,258,2026-10-08 02:17:07.692243,25.0,0.036803102240277975,0.6428768751030525,0.4340157005848037
0323,cdot_cos,T,S-T,259,51,51837,-0.03743576853753116,0.01725228051347388,-0.03247903191686458,0.30746962502430925,1019.0,9.784589732326607,0.6474787879950192,10.420220157340635,-0.1396491809300845,0.229,0.999999999988175,-197.02132492243024,1.2865215799936884,259,2026-10-08 02:17:07.921243,25.0,0.6114529003358841,0.27971243636800736,0.18968838659688364
0323,cdot_cos,P,T-P,260,52,52417,0.023627124889657427,-1.200231503961983e-05,0.06106289342718858,0.8215042523703594,998.0,9.869259387652468,0.6484096070642557,10.455326486354066,-0.27365627983616425,0.58,0.9999999999880922,-143.9668603007991,1.2914900207097355,260,2026-10-08 02:17:08.501244,25.0,0.6128155423102244,0.10966185644751826,0.1459821643549328
0323,cdot_cos,Q,P-Q,261,52,52547,-0.011467048591003646,-0.01216400788012975,-0.03509417348066107,0.29372632511212476,998.0,9.911797485805728,0.6487421454189838,10.480787356571701,-0.13831508114405083,0.13,0.9999999999878543,406.99425124287785,1.2964573561915558,261,2026-10-08 02:17:08.631244,25.0,0.3758747819919633,0.5357740814038136,0.3272161396404627
0323,cdot_cos,R,Q-R,262,52,52577,0.12435154333573525,0.19352398615620808,0.1358185919267389,0.9675624980162568,998.0,10.00856064881746,0.6498365364764696,10.51856073227907,-0.31639209959257125,0.03,0.9999999999877938,-162.7179034682824,1.3014244450407533,262,2026-10-08 02:17:08.661243,25.0,0.5695911313914914,1.9828634739366062,3.225438767057713
0323,cdot_cos,S,R-S,263,52,52626,-0.004021522314691929,-0.015574505794450688,-0.1283730656504272,0.0388162493703603,998.0,10.030769294241924,0.6498804079792534,10.539326619746339,-0.07304651170351523,0.049,0.9999999999875316,5546.780311767076,1.3063915828085213,263,2026-10-08 02:17:08.710243,25.0,0.035743793714095314,0.6567359472442197,0.4532376617237753
0323,cdot_cos,T,S-T,264,52,52856,-0.040574412967175406,0.016142383480448858,-0.036552890652483475,0.2862183205531122,998.0,10.072920771647393,0.6502038237680323,10.564599218131507,-0.1390263031096455,0.23,0.9999999999873296,-204.00918475638085,1.311359177253112,264,2026-10-08 02:17:08.940243,25.0,0.6221432221048075,0.2786560974136296,0.1832672930672545
0323,cdot_cos,P,T-P,265,53,53415,0.022346004112448296,4.480941899814459e-05,0.0629204170796237,0.828212345046731,999.0,10.158951099052194,0.6511388933394052,10.59981131465927,-0.2852051231812903,0.559,0.999999999987244,-156.3293518973349,1.3163276111196833,265,2026-10-08 02:17:09.499244,25.0,0.5989727044167292,0.11554397823318059,0.153900406806442
0323,cdot_cos,Q,P-Q,266,53,53545,-0.012281957004892374,-0.013065179551311772,-0.03462796111734067,0.2961500322292698,999.0,10.202098939312089,0.6514729713467708,10.625242223995018,-0.14389173832321342,0.13,0.9999999999869972,422.9951740086258,1.3212949534623837,266,2026-10-08 02:17:09.629244,25.0,0.37453077767894494,0.540877847106656,0.33190646353765246
0323,cdot_cos,R,Q-R,267,53,53575,0.12035226616346259,0.19558742684969527,0.13263422316835496,0.9649687629160687,999.0,10.299579339299925,0.6525604897828311,10.66296611865693,-0.3268512068145246,0.03,0.9999999999869338,-168.23573966627862,1.3262620402975325,267,2026-10-08 02:17:09.659244,25.0,0.5713440082270418,2.0034426187788354,3.249346666261192
0323,cdot_cos,S,R-S,268,53,53625,-0.004229302568957809,-0.016420170708007747,-0.1245815687324204,0.04251149449128883,999.0,10.322305496438819,0.652608363692368,10.68369922478604,-0.07664268000379053,0.05,0.9999999999866597,5226.4068097061445,1.3312291803664975,268,2026-10-08 02:17:09.709243,25.0,0.03821180126792809,0.6619271185818754,0.4545231427778873
0323,cdot_cos,T,S-T,269,53,53854,-0.03862212480691353,0.015338811947939098,-0.03439282223795572,0.2973768380236204,999.0,10.365772051158112,0.6529431654282919,10.709104079551535,-0.14699246824366966,0.229,0.9999999999864507,-210.12372604861145,1.3361967881555874,269,2026-10-08 02:17:09.938244,25.0,0.6196536974422152,0.28381127884008606,0.18981028261700075
0323,cdot_cos,P,T-P,270,54,54414,0.02317157051590742,-5.122225922735384e-05,0.061793695322820946,0.8241675629591265,1038.0,10.452291062147578,0.6538702633256057,10.74422526904942,-0.29405311011896185,0.56,0.99999999998636,-158.62471730481363,1.3411652703287396,270,2026-10-08 02:17:10.498244,25.0,0.6064603543837505,0.11650141578977145,0.1544982339097611
0323,cdot_cos,Q,P-Q,271,54,54543,-0.010518475731480114,-0.010444079478605966,-0.033690046247387535,0.3010608764167818,1038.0,10.496253636842656,0.6542086329387455,10.769675375856457,-0.1502834267555184,0.129,0.9999999999861033,424.889463416547,1.3461326169961596,271,2026-10-08 02:17:10.627244,25.0,0.3841750613800951,0.5550248346190629,0.34079515267502175
0323,cdot_cos,R,Q-R,272,54,54574,0.1362779381861853,0.1982498414387876,0.14679641391766543,0.9751542838250041,1038.0,10.595487469479297,0.6553035599344215,10.807585502087722,-0.34103176348190334,0.031,0.9999999999860404,-174.21100902588586,1.3510997044755135,272,2026-10-08 02:17:10.658243,25.0,0.571593510416449,1.952827928602583,3.2010913753754977
0323,cdot_cos,S,R-S,273,54,54623,-0.004118562500093758,-0.013073042148322788,-0.14039650068627907,0.02903150176005236,1038.0,10.617328968416016,0.6553361320250964,10.827972278100718,-0.07548923439572507,0.049,0.9999999999857498,8152.455786026199,1.3560668416424688,273,2026-10-08 02:17:10.707244,25.0,0.029669930980823128,0.45840072813903143,0.44574487625958603
0323,cdot_cos,T,S-T,274,54,54853,-0.1268447664232059,0.06710133515680775,-0.12272620392311215,0.044440105874418524,1038.0,10.640410740836922,0.6553859890773381,10.848610877061706,-0.07993935202721061,0.23,0.9999999999854648,-89.25753592314742,1.3610344669785717,274,2026-10-08 02:17:10.937243,25.0,0.9458524706343502,0.26754903838308003,0.10035553226480594
0323,cdot_cos,P,T-P,275,55,55452,0.025630578782746733,-7.402450262253071e-05,0.15247534520595266,0.9783716283355827,1017.0,10.740401526072233,0.6564827495462635,10.8865777926005,-0.3477757786682192,0.599,0.9999999999854107,-244.2068566744021,1.3660030977718216,275,2026-10-08 02:17:11.536243,25.0,0.46294773391682703,0.11913255953214043,0.1669295245998522
0323,cdot_cos,Q,P-Q,276,55,55561,-0.011892271944520551,-0.0095479075757504,-0.037522850727267285,0.2812901020087162,1017.0,10.783131547156426,0.6567977693385536,10.911588800430781,-0.14954506924019906,0.109,0.9999999999851336,629.2643010997674,1.3709703957327235,276,2026-10-08 02:17:11.645243,25.0,0.2656545997431662,0.6535324596192993,0.3920185420568144
0323,cdot_cos,R,Q-R,277,55,55610,0.1276977082807669,0.17353985719121012,0.13958998022528746,0.9703947002596616,1017.0,10.88287160226924,0.6578834641811464,10.949407976249399,-0.3508444903587834,0.049,0.9999999999850671,-185.41068191670846,1.3759375306320734,277,2026-10-08 02:17:11.694243,25.0,0.5634048440181191,1.247998346443105,2.0355113288329485
0323,cdot_cos,S,R-S,278,55,55661,-0.0044239577066925,-0.015525445440839116,-0.1321216659874594,0.0354669900794145,1017.0,10.90543538510785,0.6579231140562825,10.969815532123743,-0.07981391239161781,0.051,0.9999999999847613,6835.59726322428,1.3809046724623215,278,2026-10-08 02:17:11.745243,25.0,0.033514364719438965,0.5235587624466246,0.4424271144825456
0323,cdot_cos,T,S-T,279,55,55891,-0.0785486637138329,0.04171571461435424,-0.0741247060071404,0.13550726454188594,1017.0,10.936274596038796,0.658074582376718,10.992057717740321,-0.1093302493468671,0.23,0.9999999999844859,-194.86805472176326,1.3858723131507449,279,2026-10-08 02:17:11.975244,25.0,0.7633992571489063,0.2786045732969347,0.13408352578672122
0323,cdot_cos,P,T-P,280,56,56469,0.02826561971099491,0.00011889497988433577,0.10681428342482781,0.9352546574965817,998.0,11.03359348882444,0.6591191181852847,11.029218065144695,-0.34652483265992984,0.578,0.9999999999844159,-227.0813325572294,1.390840933859488,280,2026-10-08 02:17:12.553244,25.0,0.5043447604866409,0.12096240897882306,0.16837178682637388
0323,cdot_cos,Q,P-Q,281,56,56580,-0.010696023261341699,-0.008964421834126655,-0.03896164297233661,0.274075763568082,998.0,11.076107140818316,0.6594249267094704,11.054023514785515,-0.15227657461208632,0.111,0.999999999984125,635.1956949698341,1.3958082421774833,281,2026-10-08 02:17:12.664243,25.0,0.2792555484966202,0.6431688204141798,0.3830058738186969
0323,cdot_cos,R,Q-R,282,56,56630,0.12319974475283636,0.17891370812744217,0.13389576801417807,0.9660194018730898,998.0,11.176376966956388,0.6605017332159623,11.091757905840664,-0.360913733781986,0.05,0.999999999984054,-193.7554778059572,1.4007753792514128,282,2026-10-08 02:17:12.714243,25.0,0.5609741741409491,1.2342614570309607,2.005396522761451
0323,cdot_cos,S,R-S,283,56,56679,-0.0037334577440306903,-0.014927708594233844,-0.12693320249686704,0.04018178736213843,998.0,11.199533286521412,0.6605464873744197,11.11215961444476,-0.08380660107300142,0.049,0.9999999999837349,6191.762782732033,1.4057425148516214,283,2026-10-08 02:17:12.763244,25.0,0.03664393919957874,0.4814640183937078,0.4725779503066022
0323,cdot_cos,T,S-T,284,56,56909,-0.12079176702719886,0.048116032000252835,-0.11705830928316817,0.05086105330222832,998.0,11.223560440758972,0.660603131902421,11.132729673980073,-0.08713458305541136,0.23,0.9999999999834218,-58.75204719386255,1.4107101707442538,284,2026-10-08 02:17:12.993243,25.0,0.9625265934914645,0.27288670493166106,0.10446588798939067
0323,cdot_cos,P,T-P,285,57,57467,0.025692089715172117,0.00016394016924973695,0.14648385674237097,0.9749642602100765,1000.0,11.325061170789976,0.6616880705819761,11.170628724330818,-0.3695752454938412,0.558,0.9999999999833603,-260.3286874740799,1.4156787792387457,285,2026-10-08 02:17:13.551244,25.0,0.4656921586279132,0.13037865333898255,0.18190094987635166
0323,cdot_cos,Q,P-Q,286,57,57578,-0.01062747524618709,-0.008913013435460908,-0.036319564961359206,0.28741150085186634,1000.0,11.369063017885276,0.6620075780286216,11.19561419265921,-0.1611750363522058,0.111,0.9999999999830624,652.2546229503898,1.4206460925110402,286,2026-10-08 02:17:13.662244,25.0,0.274444697620942,0.6576216961357487,0.39641303689459734
0323,cdot_cos,R,Q-R,287,57,57626,0.13761901331781282,0.19180231678471613,0.1482464885639999,0.9760176426726992,1000.0,11.471053187332112,0.663091485747581,11.233532548580653,-0.375392060887774,0.048,0.9999999999829927,-197.63400591078795,1.4256132232764525,287,2026-10-08 02:17:13.710243,25.0,0.5651586516301073,1.2957445489958364,2.1247951968090817
0323,cdot_cos,S,R-S,288,57,57678,-0.0029951064937078662,-0.011912712744818622,-0.1406141198115207,0.0288785342225114,1000.0,11.493454494588876,0.6631235305027681,11.253629948914453,-0.08289721802210034,0.052,0.9999999999826564,9127.697845044971,1.4305803672684683,288,2026-10-08 02:17:13.762244,25.0,0.02935173546652391,0.42280575534110637,0.4307943703223917
0323,cdot_cos,T,S-T,289,57,57907,-0.16001834161283401,0.0756271749668504,-0.15702323511912614,0.01934890551246014,1000.0,11.515024985887587,0.663144999968903,11.27351555431551,-0.07997308580317651,0.229,0.9999999999823199,136.19957760243682,1.4355480357099608,289,2026-10-08 02:17:13.991244,25.0,0.9640964342414042,0.2733989825838783,0.09419428514720826
0323,cdot_cos,P,T-P,290,58,58467,0.023643409525267074,-5.276961441028668e-05,0.1836617511381011,0.9899645347833256,1037.0,11.618671228612293,0.6642425606207764,11.311694381712476,-0.38573933140246364,0.56,0.9999999999822611,-278.5871059402375,1.4405166948131085,290,2026-10-08 02:17:14.551244,25.0,0.4526320060198648,0.13259476159015776,0.1850825762941171
0323,cdot_cos,Q,P-Q,291,58,58596,-0.011567549428415811,-0.011502896143118084,-0.03521095895368288,0.29312100801234375,1037.0,11.663531118868564,0.6645672005275607,11.336720195355916,-0.16794618187391538,0.129,0.9999999999819532,670.8760844773045,1.4454840671122726,291,2026-10-08 02:17:14.680243,25.0,0.2734044111176092,0.571886913900373,0.3477510872579157
0323,cdot_cos,R,Q-R,292,58,58626,0.13319357935472978,0.19110648276590814,0.1447611287831456,0.9738912266664346,1037.0,11.766218052398589,0.6656446948073564,11.374594805737335,-0.38625706594465525,0.03,0.9999999999818789,-202.60978472398205,1.4504511424572026,292,2026-10-08 02:17:14.710243,25.0,0.5682488540826932,2.090830055103421,3.422897784334171
0323,cdot_cos,S,R-S,293,58,58676,-0.004543564330742519,-0.014500364732378642,-0.1377371436854723,0.030965438225773505,1037.0,11.788980922174769,0.6656789261073998,11.39464107124419,-0.08607690891328154,0.05,0.99999999998153,8769.171975691843,1.455418280055209,293,2026-10-08 02:17:14.760243,25.0,0.03058186041634468,0.6830912411746048,0.4552573955236028
0323,cdot_cos,T,S-T,294,58,58906,-0.038670426018311485,0.020319535448733054,-0.03412686168756897,0.29876797766508567,1037.0,11.83452717651605,0.6660091148758945,11.419730816692013,-0.17264549925094164,0.23,0.9999999999812665,-262.1790884417363,1.460385968591492,294,2026-10-08 02:17:14.990243,25.0,0.6056675974440198,0.29640521855701313,0.1980271927881754
0323,cdot_cos,P,T-P,295,59,59504,0.024348771310681135,6.32931058152451e-05,0.06301919732899262,0.8285634134098895,998.0,11.925327322710995,0.666923964770138,11.454849269392406,-0.34569490472381387,0.598,0.9999999999811562,-189.15606435738542,1.4653547943151506,295,2026-10-08 02:17:15.588243,25.0,0.606176431230533,0.11283123660260352,0.1518397093560965
0323,cdot_cos,Q,P-Q,296,59,59615,-0.01339809183674395,-0.011180772512832192,-0.037746863147425085,0.28015929775801496,998.0,11.969473335492763,0.6672330159058901,11.479566901203214,-0.16894916168835727,0.111,0.9999999999808283,571.8980537163956,1.470322117590982,296,2026-10-08 02:17:15.699244,25.0,0.3512884846641032,0.6639784505227643,0.39771182686277573
0323,cdot_cos,R,Q-R,297,59,59646,0.12597594559203437,0.17213184679104354,0.13937403742877832,0.9702392112037708,998.0,12.072730538727049,0.6683021997737548,11.517367816243311,-0.3969656476153962,0.031,0.9999999999807506,-213.26218322244057,1.475289193656106,297,2026-10-08 02:17:15.730243,25.0,0.5630434186147204,2.0431328065451475,3.330877523686631
0323,cdot_cos,S,R-S,298,59,59695,-0.0052171939796892795,-0.013372189972880885,-0.13119313957172365,0.03626971092066764,998.0,12.096147569498562,0.6683421347050555,11.537430335571738,-0.09049440273793058,0.049,0.999999999980388,7674.264982945428,1.4802563276048988,298,2026-10-08 02:17:15.779244,25.0,0.0338223973509073,0.5717935121436525,0.4778985871737465
0323,cdot_cos,T,S-T,299,59,59943,-0.0766211042586772,0.03572031268138855,-0.07140391027898792,0.14367480506901542,998.0,12.128766302917127,0.668500304700921,11.559507221202402,-0.12631583770574986,0.248,0.9999999999800624,-226.47427390895947,1.485224088593378,299,2026-10-08 02:17:16.027244,25.0,0.753078164932663,0.26730782542653875,0.1315271508813079
0323,cdot_cos,P,T-P,300,60,60502,0.02465815103815987,0.00010464503502565093,0.10127925529683707,0.9263536426452079,998.0,12.228732250910126,0.6695192027638791,11.596469838352471,-0.38863045847377636,0.559,0.9999999999799769,-257.4493271745678,1.490192839783012,300,2026-10-08 02:17:16.586244,25.0,0.509170751930537,0.1294834561673873,0.1788299606314827
0323,cdot_cos,Q,P-Q,301,60,60613,-0.012445239034071362,-0.010413400962111557,-0.037103390072231235,0.2834149728036253,998.0,12.273528806912266,0.669830614439757,11.621185858229717,-0.17510392777820888,0.111,0.9999999999796403,685.6728479868976,1.4951601683182876,301,2026-10-08 02:17:16.697243,25.0,0.2953992585327839,0.670065766275709,0.4035725765958573
0323,cdot_cos,R,Q-R,302,60,60661,0.12436370289815121,0.17536284762805485,0.13680894193222257,0.9683306277656368,998.0,12.377486851023333,0.6708934756299848,11.65894482951634,-0.40815552206138683,0.048,0.99999999997956,-219.2681381406238,1.5001272969350647,302,2026-10-08 02:17:16.745243,25.0,0.5649674059047531,1.3313062718650996,2.165792585647234
0323,cdot_cos,S,R-S,303,60,60712,-0.0038153852483675072,-0.01519689666134958,-0.1281790881465187,0.038997584894167124,998.0,12.401334209011315,0.6709362437273018,11.678976207424586,-0.09410797605164631,0.051,0.9999999999791814,7343.032907971165,1.5050944366971826,303,2026-10-08 02:17:16.796243,25.0,0.0355399423619975,0.5390148442215228,0.46759525466632
0323,cdot_cos,T,S-T,304,60,60942,-0.0822499831812343,0.038064768229742606,-0.07843459793286679,0.1233734708006568,998.0,12.432466365133928,0.6710715270049146,11.700591301777296,-0.12310237320293885,0.23,0.9999999999788348,-214.3235857596309,1.5100621571947668,304,2026-10-08 02:17:17.026243,25.0,0.7901513470975704,0.2880894749926578,0.1353572005331
0323,cdot_cos,P,T-P,305,61,61500,0.023240589390316348,0.00011738437518531337,0.10549057257155064,0.9332216812144369,1000.0,12.533855367507938,0.6720939170289627,11.737675758777781,-0.40240885458123493,0.558,0.9999999999787503,-273.1897561679902,1.5150309521197292,305,2026-10-08 02:17:17.584243,25.0,0.4995306502516166,0.131758161113692,0.18170072110037563
0323,cdot_cos,Q,P-Q,306,61,61611,-0.01276313464822864,-0.01069203214114614,-0.03600372403854499,0.289031365474114,1000.0,12.579508472936809,0.6724102347955644,11.762437319652838,-0.18217260425617915,0.111,0.9999999999784035,696.2500168458292,1.519998285912569,306,2026-10-08 02:17:17.695244,25.0,0.2985127133190998,0.6790514794221207,0.4112892380979341
0323,cdot_cos,R,Q-R,307,61,61658,0.12849974415057333,0.17758484797927981,0.14126287879880198,0.9715728608059444,1000.0,12.684604795939649,0.6734723815019692,11.800251749992292,-0.4211859472758954,0.047,0.9999999999783222,-225.028559217339,1.5249654106043309,307,2026-10-08 02:17:17.742244,25.0,0.5669540538072335,1.3702690406490203,2.2360919787838323
0323,cdot_cos,S,R-S,308,61,61711,-0.003956959672492744,-0.015697654957037746,-0.13245670382306607,0.03518156886883896,1000.0,12.708313762757816,0.6735108095461878,11.820129163095698,-0.09549548826482673,0.053,0.9999999999779283,8475.33268043237,1.5299325567185147,308,2026-10-08 02:17:17.795244,25.0,0.03302361315155248,0.5249659094819351,0.44733899656920395
0323,cdot_cos,T,S-T,309,61,61940,-0.08010536038160146,0.03754574753161657,-0.07614840070910872,0.1296891495168948,1000.0,12.740251182344734,0.6736524459852874,11.841791868761808,-0.1288911360649925,0.229,0.99999999997757,-235.78429401690815,1.5349002904098108,309,2026-10-08 02:17:18.024243,25.0,0.7717461173602416,0.29222903603299777,0.13946471435335073
0323,cdot_cos,P,T-P,310,62,62500,0.023137772343402894,-6.552130506101188e-05,0.10324313272500435,0.9296338397198566,1016.0,12.84215466126093,0.6746667913203706,11.878797860322862,-0.41275342599556786,0.56,0.9999999999774818,-279.84777975767446,1.5398691396033428,310,2026-10-08 02:17:18.584243,25.0,0.5027166996830166,0.1319645567074106,0.1819704980646351
0323,cdot_cos,Q,P-Q,311,62,62609,-0.013148534485466611,-0.010520201177093349,-0.036286306828869505,0.2875818176819975,1016.0,12.888051485857034,0.6749802478135142,11.903471635428698,-0.1868830260418311,0.109,0.9999999999771221,720.5797451777214,1.5448364719147256,311,2026-10-08 02:17:18.693243,25.0,0.2986093361671038,0.6961169705722469,0.4210717852853599
0323,cdot_cos,R,Q-R,312,62,62659,0.12663550245101937,0.1905623782909676,0.13978403693648597,0.9705337581825432,1016.0,12.99390816084568,0.6760369460156851,11.941258818938259,-0.4328364015260321,0.05,0.9999999999770383,-232.7565003696483,1.5498036061005942,312,2026-10-08 02:17:18.743244,25.0,0.5665237095981923,1.298791291832977,2.117133499772912
0323,cdot_cos,S,R-S,313,62,62709,-0.004190963095813853,-0.01466834848496131,-0.13082646554683322,0.0365914966653553,1016.0,13.017930615040331,0.6760767511163959,11.961084354721145,-0.09871218042685288,0.05,0.9999999999766294,8394.005168506399,1.5547707417559233,313,2026-10-08 02:17:18.793243,25.0,0.03388330886671849,0.5051632489308844,0.480449083893042
0323,cdot_cos,T,S-T,314,62,62939,-0.11088300313513852,0.05117677479019149,-0.10669204003932467,0.0649306451080314,1016.0,13.044424485738768,0.6761473779454181,11.98142777866976,-0.1090666163307987,0.23,0.9999999999762338,-146.607685029759,1.5597384950693882,314,2026-10-08 02:17:19.023244,25.0,0.9094304056297858,0.2878928392296155,0.11519074216711452
0323,cdot_cos,P,T-P,315,63,63516,0.023238453046372322,0.000200936072420114,0.13412145618151083,0.9662041261998722,980.0,13.150361321085954,0.6771973950820692,12.019127891429463,-0.4375791079688518,0.577,0.9999999999761563,-312.86393352189003,1.5647074499630598,315,2026-10-08 02:17:19.600243,25.0,0.47201243617847677,0.13150463858431888,0.18359936801938787
0323,cdot_cos,Q,P-Q,316,63,63627,-0.014026312420727428,-0.012124155713735756,-0.03726476546709975,0.28259634226358105,980.0,13.196180838665072,0.6775041681997802,12.043646186031774,-0.19026253172649613,0.111,0.9999999999757798,806.1872503292542,1.5696747940290163,316,2026-10-08 02:17:19.711244,25.0,0.2725671970690007,0.6871450850675798,0.4127884466587133
0323,cdot_cos,R,Q-R,317,63,63658,0.1262432105230194,0.17811498970967007,0.14026952294374684,0.9708788809780835,980.0,13.302907529970957,0.6785569423740511,12.081431770702231,-0.44497607005637657,0.031,0.9999999999756929,-241.94508618744726,1.5746418609372652,317,2026-10-08 02:17:19.742244,25.0,0.5641580953895793,2.111136266816006,3.4427964937382427
0323,cdot_cos,S,R-S,318,63,63708,-0.005137382636076755,-0.014395392864517789,-0.13138059315909614,0.036106259089356545,980.0,13.327071287207664,0.6785960593676568,12.101170115785054,-0.10123763582262196,0.05,0.9999999999752696,8787.445111416642,1.5796089960716242,318,2026-10-08 02:17:19.792243,25.0,0.0335284105187037,0.5634092496340237,0.4832751447341366
0323,cdot_cos,T,S-T,319,63,63937,-0.08236048944507751,0.0329120373950316,-0.07722310680900075,0.12668665455315184,980.0,13.35924845493436,0.6787332900153479,12.122633173573194,-0.1350656639720158,0.229,0.999999999974883,-246.50490774871557,1.5845767626167278,319,2026-10-08 02:17:20.021244,25.0,0.7784456028450566,0.29675875793042883,0.1405116494615526
0323,cdot_cos,P,T-P,320,64,64496,0.022347196539703962,1.0079298863176465e-05,0.10470768598478147,0.9319915730499941,1037.0,13.4629867983398,0.6797419003830065,12.159662499352008,-0.4369389384773875,0.559,0.9999999999747909,-299.29622397807583,1.589545703860931,320,2026-10-08 02:17:20.580243,25.0,0.5011338432583432,0.13498791332546042,0.1855784318523092
0323,cdot_cos,Q,P-Q,321,64,64626,-0.012727406608287285,-0.012732592234866644,-0.03507460314799125,0.29382783256509887,1037.0,13.510164942032224,0.680059536324989,12.184340167997643,-0.19972461420545007,0.13,0.999999999974408,746.8119721950954,1.5945131213157522,321,2026-10-08 02:17:20.710243,25.0,0.3049196408989115,0.5947367581945114,0.36290879763403
0323,cdot_cos,R,Q-R,322,64,64656,0.12579822398097001,0.18370049084017526,0.1385256305892573,0.9696206191733622,1037.0,13.617618355470373,0.6811065375300327,12.22209210258651,-0.4567067015909251,0.03,0.9999999999743175,-245.44583726122488,1.5994801823186335,322,2026-10-08 02:17:20.740243,25.0,0.5696773286105052,2.1978060049305803,3.5817804479383026
0323,cdot_cos,S,R-S,323,64,64706,-0.004776459109692,-0.015384731287367677,-0.130574683090662,0.03681404448967249,1037.0,13.642033302328059,0.6811462536074605,12.241769479840375,-0.10426826147480373,0.05,0.9999999999738783,8873.948862566738,1.6044473169970017,323,2026-10-08 02:17:20.790244,25.0,0.03404362913281024,0.7393995495316297,0.488298937153715
0323,cdot_cos,T,S-T,324,64,64935,-0.03531262207427602,0.018417819913843888,-0.03053616296458402,0.3179076615621488,1037.0,13.691558310423536,0.6814891122683976,12.266876350070506,-0.211956787197545,0.229,0.9999999999735543,-314.09014265065474,1.609415101372188,324,2026-10-08 02:17:21.019244,25.0,0.6016566738643466,0.3110102823184733,0.2162664108972804
0323,cdot_cos,P,T-P,325,65,65533,0.020599598699400774,0.00011635803011754207,0.05591222077367679,0.8018354266822818,1018.0,13.78447601162992,0.6823530065383684,12.301366868677786,-0.3991614733744978,0.598,0.9999999999734073,-216.69860848050362,1.6143842362542062,325,2026-10-08 02:17:21.617243,25.0,0.6256307881471997,0.1173773247327029,0.15538077124813301
0323,cdot_cos,Q,P-Q,326,65,65644,-0.01466368293517856,-0.011980250257977783,-0.035263281634579334,0.29285004847251606,1018.0,13.831941590803849,0.6826682096042184,12.325970995543551,-0.20483880435703392,0.111,0.9999999999730061,616.4999331254992,1.6193515910989098,326,2026-10-08 02:17:21.728243,25.0,0.3872590576605396,0.7008524233248802,0.4276178303957579
0323,cdot_cos,R,Q-R,327,65,65674,0.12138459132909658,0.15697631886172828,0.13604827426427515,0.9677422312664744,1018.0,13.940065249608043,0.6837086267011916,12.363675516793293,-0.46841248077546244,0.03,0.9999999999729128,-253.33462626211735,1.6243186495166597,327,2026-10-08 02:17:21.758244,25.0,0.5696713441502286,2.2160635832582543,3.6041219601398096
0323,cdot_cos,S,R-S,328,65,65724,-0.006397389797974438,-0.015458951088348313,-0.127781981127071,0.03937134967028044,1018.0,13.964905405799344,0.683750915917815,12.383331574785565,-0.10812028760480917,0.05,0.999999999972458,8519.717836796433,1.62928578361013,328,2026-10-08 02:17:21.808243,25.0,0.03570989828721583,0.5995269012615445,0.49680312382601954
0323,cdot_cos,T,S-T,329,65,65954,-0.07465585865152279,0.03948943243948726,-0.06825846885354835,0.15362321016873418,1018.0,14.000017939734198,0.6839158952939511,12.405186664567431,-0.1531173776543937,0.23,0.9999999999720528,-272.74372775210065,1.6342535880405524,329,2026-10-08 02:17:22.038244,25.0,0.745371016492475,0.3026985015536192,0.15266319102110204
0323,cdot_cos,P,T-P,330,66,66551,0.022146595005249216,0.0001843638183912287,0.09680245365677201,0.9183443445273753,980.0,14.104146716514009,0.6849011590280487,12.441924101382277,-0.45557322960665264,0.597,0.9999999999719482,-306.9795847395978,1.6392227708500025,330,2026-10-08 02:17:22.635243,25.0,0.5148386529229451,0.12677802652369383,0.17442006160772422
0323,cdot_cos,Q,P-Q,331,66,66662,-0.014376474442168597,-0.012446253288860887,-0.036523069447417816,0.2863706546868477,980.0,14.151390903403488,0.6852080580265876,12.466347185221041,-0.20770205087469726,0.111,0.99999999997153,807.6636936323123,1.644190130922765,331,2026-10-08 02:17:22.746243,25.0,0.30318932327721426,0.7016984023743359,0.4256233053106222
0323,cdot_cos,R,Q-R,332,66,66693,0.11616434076752986,0.1659780380065058,0.13054081520969846,0.9631559208976422,980.0,14.259923761841112,0.6862390700589289,12.50395038032405,-0.4789264087457998,0.031,0.9999999999714311,-263.0661421624467,1.64915719045785,332,2026-10-08 02:17:22.777244,25.0,0.5676118829450553,2.1631512139281326,3.501059949600758
0323,cdot_cos,S,R-S,333,66,66742,-0.005583571334579732,-0.015593445553020705,-0.1217479121021096,0.04549033849414561,980.0,14.285506278667032,0.6862877199340149,12.523655144919516,-0.11341268204522278,0.049,0.9999999999709616,7513.148308280973,1.6541243200182536,333,2026-10-08 02:17:22.826244,25.0,0.03984076377648921,0.7655299742505572,0.522092180120831
0323,cdot_cos,T,S-T,334,66,66972,-0.03786738048116344,0.017978758135992697,-0.03228380914658371,0.3085098300363509,980.0,14.334945699317666,0.6866175492416831,12.548473127869997,-0.21962517355847422,0.23,0.9999999999706075,-322.0226009149111,1.659092142238998,334,2026-10-08 02:17:23.056243,25.0,0.6165548424208162,0.3181367755936779,0.214954002828843
0323,cdot_cos,P,T-P,335,67,67531,0.02555121187555964,1.5773253528559806e-05,0.06341859235672308,0.8299770763956866,997.0,14.431849195440124,0.6875039448436825,12.583468628135337,-0.43200881327340473,0.559,0.9999999999704605,-239.60367045578593,1.6640612344103007,335,2026-10-08 02:17:23.615244,25.0,0.6116354975922267,0.12951707171995186,0.17335151363588186
0323,cdot_cos,Q,P-Q,336,67,67660,-0.010355190753896492,-0.010984960813851733,-0.03590640262945613,0.2895315918378756,997.0,14.479745785500572,0.6878128357028069,12.607900299337347,-0.21448879967286852,0.129,0.9999999999700342,704.1969911867897,1.6690286700873584,336,2026-10-08 02:17:23.744244,25.0,0.36271703326367577,0.6134261950096325,0.37129139581742804
0323,cdot_cos,R,Q-R,337,67,67690,0.1349370161888586,0.20831927766825084,0.14529220694275508,0.9742267054690863,997.0,14.59011315375261,0.6888509770974088,12.645706065624001,-0.4960427245457851,0.03,0.9999999999699355,-271.20961204026094,1.6739957234355578,337,2026-10-08 02:17:23.774244,25.0,0.5668842447204238,2.2461735886097385,3.678912275067899
0323,cdot_cos,S,R-S,338,67,67741,-0.0036141914120446546,-0.01417836732393226,-0.13855120760090325,0.030360551267063125,997.0,14.614516200817157,0.6888832990462571,12.665048465075026,-0.11018155241382904,0.051,0.9999999999694437,11938.054043189135,1.6789628603754636,338,2026-10-08 02:17:23.825243,25.0,0.030135578708262917,0.49452174357397305,0.47849111891269264
0323,cdot_cos,T,S-T,339,67,67970,-0.12267804544297106,0.04819296182459596,-0.11906385403092641,0.048494441252983404,997.0,14.640554371597155,0.6889349225781771,12.68472038560169,-0.11775653851275256,0.229,0.9999999999689618,-146.7351383601775,1.683930695063106,339,2026-10-08 02:17:24.054244,25.0,0.9376978343369419,0.2988103739123379,0.11370380253274204
