record_id,input,event,transition,event_index,k,peak,value_cos,value_sin,value_return,x_input,rr,knowledge,decision,decision_norm,entropy,delta_t,cosine_similarity,delta_h_over_delta_d,frobenius_norm,matrix_size,timestamp,scale,P,zdot,zdot_back
0155,cdot_cos,Q,P-Q,1,0,1625,-0.01826090517763352,-0.019287451573609164,-0.04961143699670217,0.2252508235185462,839.0,0.0011188527201909733,0.5002797131508683,0.5002797131508683,,,1.0,,0.004967141530112327,1,2026-10-07 20:01:17.709243,24.9,,,
0155,cdot_cos,R,Q-R,2,0,1654,0.2184158244297969,0.3753220121874242,0.23667672960743041,0.9972495885711001,839.0,0.008587575072155794,0.5015180784771666,0.7092536683577032,-1.3073332037227172e-05,,0.9999999999999999,,0.009934283060224654,2,2026-10-07 20:01:17.738244,24.9,,,
0155,cdot_cos,S,R-S,3,0,1708,-0.000704734032722799,-0.01201434555723897,-0.2191205584625197,0.004252012055373227,839.0,0.010554170039081347,0.5015233585147406,0.8686639381301121,-6.788549246697404e-06,0.054,1.0,1.1902913004665323,0.01490142459823322,3,2026-10-07 20:01:17.792243,24.9,0.3962175952116977,0.03369488824197972,0.036418425313436184
0155,cdot_cos,T,S-T,4,0,1916,-0.22230944543383485,0.05395913090061803,-0.22160471140111204,0.00399799090368734,839.0,0.012226623002289603,0.5015283231151696,1.003056646231016,-6.870735740737112e-06,0.208,0.9999999999999999,-0.016554503270786988,0.019868566160844595,4,2026-10-07 20:01:18.000243,24.9,0.9881094396210437,0.03417645901819909,0.008040639246193538
0155,cdot_cos,P,T-P,5,1,2355,0.08659315977806877,0.013554999099668105,0.3089026052119036,0.9995435956360412,799.0,0.024771576990652168,0.5027695181768949,1.1242268196624676,-8.369912071250394e-05,0.439,0.9999999999999999,-0.0618987195010067,0.0248357078381399,5,2026-10-07 20:01:18.439244,24.9,0.39935222008691934,0.01807693022701373,0.028576204984880556
0155,cdot_cos,Q,P-Q,6,1,2452,-0.011993138224065766,-0.011532712122661921,-0.09858629800213453,0.0790883282269753,799.0,0.028098167741607658,0.5028677257855083,1.2317693363012652,-3.171588647617853e-05,0.097,0.9999999999999998,0.529319825319561,0.029802849404300096,6,2026-10-07 20:01:18.536243,24.9,0.19416863200562962,0.09638744223315378,0.034294750009850404
0155,cdot_cos,R,Q-R,7,1,2482,0.24736988182841715,0.4089464858796952,0.2593630200524829,0.998434743674166,799.0,0.043470740783884,0.504107506497162,1.333743096250076,-0.00019839293447605972,0.03,1.0000000000000002,-0.1344407494270204,0.03476999093525946,7,2026-10-07 20:01:18.566243,24.9,0.4316518113070212,0.4233101308724231,0.5124191014092114
0155,cdot_cos,S,R-S,8,1,2541,0.24736988182841715,0.4089464858796952,0.0,0.5,799.0,0.05349677559395304,0.5047283506340626,1.4275873575809255,-0.0001753077807416049,0.059,1.0,0.037183493186710055,0.03973713254690684,8,2026-10-07 20:01:18.625243,24.9,0.8766183429503797,0.11246874254908518,0.16993279339100073
0155,cdot_cos,T,S-T,9,1,2753,-0.21389677186402592,0.04623505221851441,-0.4612666536924431,1.0277536625407284e-05,799.0,0.05674205240467605,0.504728363395416,1.5141850902224419,-6.451074321162074e-05,0.212,0.9999999999999999,8682.232510694424,0.044704274503526216,9,2026-10-07 20:01:18.837244,24.9,0.17951482951564365,0.05184697658894522,0.015307909484542491
0155,cdot_cos,P,T-P,10,2,3154,0.026939202383757133,0.001614167299255769,0.24083597424778305,0.9975195104270838,741.0,0.07547989366766582,0.5059669262140386,1.6000079076664495,-0.0004467306982352047,0.401,1.0000000000000002,-0.3085995714360796,0.049671417087898496,10,2026-10-07 20:01:19.238244,24.9,0.42503079059542376,0.03227608243921693,0.046727783698228845
0155,cdot_cos,Q,P-Q,11,2,3261,-0.02621308773701388,-0.031355380901775115,-0.05315229012077101,0.21023789837282042,741.0,0.08262747052092803,0.5062279577320306,1.6789681944605332,-0.0002037643006904033,0.107,1.0,0.9307933364288005,0.054638558856665825,11,2026-10-07 20:01:19.345243,24.9,0.30349521762327925,0.13055242486394883,0.06679978367534779
0155,cdot_cos,R,Q-R,12,2,3290,0.18448318578736853,0.4127988576585299,0.21069627352438242,0.9947608193847142,741.0,0.10341811258855087,0.5074630050042898,1.7579034155948565,-0.0006973889345160337,0.029,1.0000000000000002,-0.399680761144203,0.05960570035615641,12,2026-10-07 20:01:19.374244,24.9,0.4927180000011231,0.43702107634180315,0.7169186919869943
0155,cdot_cos,S,R-S,13,2,3345,0.025286508352919596,-0.05551132961121666,-0.15919667743444893,0.018633274788256656,741.0,0.10797469294875262,0.5074861383616202,1.8297672937996627,-0.00017366664811848314,0.055,1.0,22.639268434651598,0.06457284205002067,13,2026-10-07 20:01:19.429244,24.9,0.049012707604775475,0.08012305722238718,0.08284691564003178
0155,cdot_cos,T,S-T,14,2,3554,-0.160326519051202,-0.024397014537647903,-0.18561302740412158,0.009739633828341086,741.0,0.11223164888301346,0.5074982301809371,1.8988845021311227,-0.00016901134104016526,0.209,0.9999999999999999,0.38499641421173425,0.0695399846442785,14,2026-10-07 20:01:19.638243,24.9,0.9728315391270341,0.06538713301676216,0.020368210211774363
0155,cdot_cos,P,T-P,15,3,3895,0.049913069755639194,0.0004084285234887043,0.21023958880684118,0.994701219768161,778.0,0.1353065145497592,0.5087331095643353,1.9703148616446833,-0.0010297537635487845,0.341,1.0,-0.69702550231263,0.07450712830317727,15,2026-10-07 20:01:19.979244,24.9,0.4334962721519589,0.044953440830747135,0.06766822776171771
0155,cdot_cos,Q,P-Q,16,3,4000,-0.017181507493882045,-0.018354588126934693,-0.06709457724952124,0.15833687340896174,778.0,0.142889895529583,0.5089296686363093,2.0357186755941497,-0.0003803298441575078,0.105,0.9999999999999997,3.3039630929734147,0.07947427036265621,16,2026-10-07 20:01:20.084243,24.9,0.18131341672529563,0.1543536610396124,0.07222267599832197
0155,cdot_cos,R,Q-R,17,3,4027,0.22695705982567357,0.42065975780505604,0.24413856731955563,0.9977148830129392,778.0,0.1677207833680778,0.5101681638816238,2.1034772277086087,-0.0013903160499095857,0.027,0.9999999999999999,-0.8154946170145427,0.08444141180750846,17,2026-10-07 20:01:20.111244,24.9,0.48362589918516424,0.5512397803529547,0.9196625125368444
0155,cdot_cos,S,R-S,18,3,4085,-0.00010699910167759615,-0.0022574624417301087,-0.22706405892735118,0.0034916084130481107,778.0,0.17265684366864256,0.5101724979159961,2.1644785983253745,-0.0003028629964729186,0.058,0.9999999999999997,250.9101128483234,0.08940855365572475,18,2026-10-07 20:01:20.169244,24.9,0.02758239765180081,0.08361959923007581,0.08510448794077172
0155,cdot_cos,T,S-T,19,3,4292,-0.2610153362192359,0.03295141127698303,-0.2609083371175583,0.00150626080007234,778.0,0.1774206568787666,0.5101743675942819,2.223798513250772,-0.00030062397290919063,0.207,1.0,1.1975448293226354,0.09437569715697491,19,2026-10-07 20:01:20.376243,24.9,0.9925797461565506,0.07626682977674666,0.023013590387072635
0155,cdot_cos,P,T-P,20,4,4673,0.040529014690187506,-0.0007423211722674465,0.3015443509094234,0.9994518724899073,779.0,0.20423131119621568,0.5114148932080714,2.287116933632901,-0.0018443063366962538,0.381,0.9999999999999997,-1.2443776626840293,0.09934284304648335,20,2026-10-07 20:01:20.757244,24.9,0.43300807860034823,0.047137654351123034,0.07036917143687424
0155,cdot_cos,Q,P-Q,21,4,4769,-0.02075802455334564,-0.020423638448553952,-0.061287039243533147,0.17857275259066988,779.0,0.21333954949432235,0.5116365244080096,2.3446131041155964,-0.000685510053543765,0.096,0.9999999999999998,5.228488964893119,0.10430998536080295,21,2026-10-07 20:01:20.853244,24.9,0.18444301647765374,0.19471951444503102,0.09487748227194447
0155,cdot_cos,R,Q-R,22,4,4800,0.2343935061886481,0.3997005065182721,0.25515153074199376,0.9982619867714452,779.0,0.24161745796966164,0.5128754061043365,2.4055988905758876,-0.002318537459597046,0.031,0.9999999999999997,-1.318146366109816,0.10927712679343968,22,2026-10-07 20:01:20.884243,24.9,0.4944371965460151,0.5448135662234044,0.9121905959786867
0155,cdot_cos,S,R-S,23,4,4859,0.0005240585226422642,-0.01357135467772125,-0.23386944766600584,0.0029489604396503426,779.0,0.24711799060017342,0.5128790656513418,2.4596815937057754,-0.00048447893130254777,0.059,0.9999999999999994,501.1709169546697,0.11424426881602472,23,2026-10-07 20:01:20.943244,24.9,0.022694534860674794,0.09210329788877007,0.0932293666188438
0155,cdot_cos,T,S-T,24,4,5071,-0.2457881561565169,0.014397332620639407,-0.24631221467915915,0.0021649857960245747,779.0,0.2524856471205365,0.5128817523149496,2.5125971863047902,-0.0004832885421020899,0.212,0.9999999999999997,0.44307340784970517,0.11921141360860865,24,2026-10-07 20:01:21.155244,24.9,0.9975399284805837,0.08345202108409082,0.02531913453001455
0155,cdot_cos,P,T-P,25,5,5452,0.029521928480617226,0.00207786442755665,0.27531008463713413,0.9989471710409104,760.0,0.2825016475398279,0.5141213251580459,2.5706066298306394,-0.002893571983459301,0.381,0.9999999999999996,-1.9444467945398485,0.12417856203878835,25,2026-10-07 20:01:21.536243,24.9,0.43475241711343576,0.053410218560325295,0.07878215333147355
0155,cdot_cos,Q,P-Q,26,5,5560,-0.02593057831301479,-0.030394346526422776,-0.05545250679363202,0.2008857771501969,760.0,0.2931842336635044,0.5143705796681095,2.6227856285882063,-0.0011081221452967807,0.108,0.9999999999999991,7.163159606246227,0.12914570505411851,26,2026-10-07 20:01:21.644243,24.9,0.19964006688689143,0.19419609927885456,0.09891283447848567
0155,cdot_cos,R,Q-R,27,5,5589,0.18597947888838937,0.402135050498295,0.21191005720140416,0.9949160023578973,760.0,0.3244480049840605,0.5156049410758806,2.6791618698538744,-0.0034788254656672847,0.029,0.9999999999999993,-1.9205909269727466,0.13411284636262757,27,2026-10-07 20:01:21.673243,24.9,0.5058745385289605,0.6490822818493571,1.078061080019177
0155,cdot_cos,S,R-S,28,5,5643,0.021400910663362905,-0.05538550551291938,-0.16457856822502645,0.016334501863358025,760.0,0.3308310060107671,0.5156252052381434,2.7284321317445883,-0.0007535488122119238,0.054,0.9999999999999991,134.4875064717038,0.13907998844632455,28,2026-10-07 20:01:21.727243,24.9,0.0268741771934688,0.11695913009992602,0.11820372271678853
0155,cdot_cos,T,S-T,29,5,5851,-0.14752986742073573,-0.012653917772194004,-0.16893077808409865,0.01468150530991054,760.0,0.3370795910348525,0.5156434186916182,2.7768247978226626,-0.0007518985463566335,0.208,0.9999999999999993,0.09060697124619288,0.14404713469288058,29,2026-10-07 20:01:21.935244,24.9,0.9978076082379627,0.09357866538824545,0.03004127415425687
0155,cdot_cos,P,T-P,30,6,6212,0.03463508545211181,0.0012304210052571215,0.18216495287284754,0.989396461188662,778.0,0.3697597308122772,0.5168707372765686,2.8310176290091555,-0.004160968600161232,0.361,0.9999999999999991,-2.7776569959969875,0.14901428573198355,30,2026-10-07 20:01:22.296243,24.9,0.44074128485618624,0.061371151870354676,0.0905267029845559
0155,cdot_cos,Q,P-Q,31,6,6318,-0.021162001050179482,-0.02323804581986897,-0.05579708650229129,0.19951195254940549,778.0,0.3813895626852486,0.517118202083926,2.8791923072043937,-0.001573529548205418,0.106,0.999999999999999,10.455785934115244,0.15398142936163867,31,2026-10-07 20:01:22.402244,24.9,0.19313735728292952,0.2157805647237369,0.10971539502803204
0155,cdot_cos,R,Q-R,32,6,6347,0.21150557629301794,0.4038405568918644,0.23266757734319743,0.9969617256571423,778.0,0.4155052105337094,0.518354656127279,2.932256750269097,-0.004896136471954403,0.029,0.9999999999999988,-2.687206161531626,0.15894857059105516,32,2026-10-07 20:01:22.431243,24.9,0.5073175606199354,0.701785769507983,1.176401649946925
0155,cdot_cos,S,R-S,33,6,6402,-0.00025601372920961677,-0.006360478712469149,-0.21176159002222755,0.005102731032673274,778.0,0.4220931373167116,0.5183609840822464,2.977757157699322,-0.0009937636001274065,0.055,0.9999999999999988,616.6878386395598,0.16391571291519424,33,2026-10-07 20:01:22.486243,24.9,0.019705404205189864,0.11966150612571073,0.11978048696367609
0155,cdot_cos,T,S-T,34,6,6610,-0.19463355073650657,0.008867453547785056,-0.19437753700729696,0.007845017803993933,778.0,0.4286679762075376,0.5183707127668348,3.022594701361838,-0.001007373759809516,0.208,0.9999999999999987,-1.3989722411574521,0.16888286098502364,34,2026-10-07 20:01:22.694243,24.9,0.9865803214228024,0.10126425059397955,0.03160980235974037
0155,cdot_cos,P,T-P,35,7,6990,0.03631224364314089,-1.9191548790660423e-05,0.23094579437964746,0.9968290570068166,839.0,0.4642190655638071,0.5196067745497798,3.0740351476158843,-0.005715650375857754,0.38,0.9999999999999986,-3.809094885880594,0.1738500163374608,35,2026-10-07 20:01:23.074244,24.9,0.4387823902866377,0.06340507652516902,0.09355549830597235
0155,cdot_cos,Q,P-Q,36,7,7091,-0.01859859029807096,-0.016910122039016037,-0.05491083394121185,0.20305969684037037,839.0,0.47685583436666606,0.5198585383711339,3.119151247648391,-0.0021412095163034664,0.101,0.9999999999999986,14.197595350786973,0.178817160500764,36,2026-10-07 20:01:23.175244,24.9,0.18836834404074543,0.24445272331098925,0.12511652280058383
0155,cdot_cos,R,Q-R,37,7,7119,0.23942260752469222,0.3567242278158647,0.25802119782276317,0.9983816489003832,839.0,0.5135985156726269,0.521096234003963,3.1697046653151184,-0.006551127312806895,0.028,0.9999999999999982,-3.56300667105329,0.18378430157067366,37,2026-10-07 20:01:23.203244,24.9,0.510097172629617,0.7806050102242011,1.312238618070031
0155,cdot_cos,S,R-S,38,7,7178,-0.0008867204650615374,-0.01258918241124757,-0.24030932798975374,0.0025131493792597097,839.0,0.5205697149392213,0.5210993492396581,3.2122721439644497,-0.0012978042451526604,0.059,0.999999999999998,1686.3324582353612,0.1887514443210966,38,2026-10-07 20:01:23.262244,24.9,0.01745979025047954,0.1189485248254713,0.11815591977278639
0155,cdot_cos,T,S-T,39,7,7387,-0.19264661208568043,0.06011693943563457,-0.1917598916206189,0.00836896147527161,839.0,0.5276344416020325,0.5211097231784283,3.254329197395681,-0.0013330639385900234,0.209,0.9999999999999978,-3.3988723298161787,0.1937185945463334,39,2026-10-07 20:01:23.471244,24.9,0.9738966262172402,0.1077509996551378,0.03380251991775701
0155,cdot_cos,P,T-P,40,8,7829,0.018812052096726276,0.0009062256488864082,0.21145866418240672,0.994858832917801,779.0,0.5656096327950689,0.5223427911170968,3.303585900667245,-0.007471943618250591,0.442,0.9999999999999979,-4.978541317268742,0.19868575751131615,40,2026-10-07 20:01:23.913243,24.9,0.43973159961236463,0.05578438532314647,0.08591672215619091
0155,cdot_cos,Q,P-Q,41,8,7935,-0.05559023559873927,-0.04510230242414873,-0.07440228769546554,0.13556592819674673,779.0,0.576947838227694,0.5225107962220139,3.345701572100456,-0.0023314480561166433,0.106,0.9999999999999973,30.59725812897418,0.20365290265633634,41,2026-10-07 20:01:24.019244,24.9,0.11026695460594939,0.23802231634955315,0.10696420219457635
0155,cdot_cos,R,Q-R,42,8,7963,0.19556034601242178,0.36384977316555905,0.25115058161116105,0.9980802706310112,779.0,0.6160703638611742,0.5237475449617355,3.394272060260097,-0.008398035850365715,0.028,0.9999999999999968,-4.905271054179395,0.2086200434839553,42,2026-10-07 20:01:24.047244,24.9,0.48559431559387334,0.8466629558950298,1.3972330583385777
0155,cdot_cos,S,R-S,43,8,8021,0.056897608324236786,-0.1390385946729333,-0.138662737688185,0.03068837701667866,779.0,0.6243609637578157,0.5237855672377641,3.4346916871656217,-0.0018503731026835984,0.058,0.9999999999999967,172.20596533318607,0.21358718637785948,43,2026-10-07 20:01:24.105243,24.9,0.029055034281037256,0.14264144426298928,0.1429413775283016
0155,cdot_cos,T,S-T,44,8,8228,-0.08069717136620326,-0.0007654196585445562,-0.13759477969044004,0.03148935217919958,779.0,0.632616771395681,0.5238245816191489,3.474659217255462,-0.0018671729214543116,0.207,0.9999999999999966,-0.43060579648906583,0.2185543387742778,44,2026-10-07 20:01:24.312243,24.9,0.9910428933133807,0.1139946196354063,0.03988312868533944
0155,cdot_cos,P,T-P,45,9,8608,0.04111645048264011,-0.00019946669598488274,0.12181362184884337,0.9540498663737002,759.0,0.6715547362868739,0.5250064812956471,3.5218505769843067,-0.009134922109636177,0.38,0.9999999999999962,-6.149209897167676,0.22352150324057796,45,2026-10-07 20:01:24.692243,24.9,0.45131011263143606,0.06900119235275211,0.10246832866103406
0155,cdot_cos,Q,P-Q,46,9,8705,-0.019634124047588217,-0.02028962400852792,-0.06075057453022832,0.18054058010460433,759.0,0.6850576775837726,0.5252301081468552,3.562283952327068,-0.0032950460827327792,0.097,0.9999999999999958,26.11437756849712,0.22848864872205302,46,2026-10-07 20:01:24.789243,24.9,0.1699382767325607,0.2829346806198902,0.13920558038039857
0155,cdot_cos,R,Q-R,47,9,8734,0.22714762345782277,0.4163994754972607,0.246781747505411,0.9978601246109904,759.0,0.7264440643271326,0.5264659240810305,3.609268577886644,-0.010505215749049609,0.029,0.9999999999999956,-5.834339456974459,0.23345578948578852,47,2026-10-07 20:01:24.818244,24.9,0.5034142479419127,0.8481608072285312,1.4271167842537944
0155,cdot_cos,S,R-S,48,9,8779,-0.00014174060550565664,-0.0009024957778330136,-0.22728936406332842,0.0034721428143361776,759.0,0.7342510044030274,0.5264702236549463,3.647492747911451,-0.0020507185447137086,0.045,0.9999999999999949,1966.356985581469,0.23842293169493553,48,2026-10-07 20:01:24.863244,24.9,0.01620071451660705,0.17178061494853816,0.17348755724210613
0155,cdot_cos,T,S-T,49,9,8989,-0.2677892199945314,0.017854042344384764,-0.2676474793890258,0.0012738685356520948,759.0,0.741904319672501,0.5264718010925125,3.685302652078301,-0.002031641921240508,0.21,0.9999999999999947,12.093425364570527,0.24339008695822345,49,2026-10-07 20:01:25.073244,24.9,0.9906541893461309,0.11974593207813446,0.03644435842606505
0155,cdot_cos,P,T-P,50,10,9367,0.043110445524449696,0.0010215659072940416,0.3108996655189811,0.9995657265005347,759.0,0.7845442958758438,0.5277094027537592,3.7314690211717148,-0.011701669225264773,0.378,0.9999999999999943,-7.813521593274774,0.24835725667261893,50,2026-10-07 20:01:25.451244,24.9,0.4376305745998215,0.0749688339882906,0.11280416985011325
0155,cdot_cos,Q,P-Q,51,10,9474,-0.018989177486584408,-0.021508956668493107,-0.062099623011034104,0.1756241125542858,759.0,0.7985807581676487,0.5279268151406145,3.770151624458334,-0.003994850046110583,0.107,0.9999999999999933,35.447930500324006,0.25332440399732653,51,2026-10-07 20:01:25.558244,24.9,0.14526601910765743,0.2688505859786271,0.13118189057761576
0155,cdot_cos,R,Q-R,52,10,9500,0.21243863585624886,0.43020471965533635,0.23142781334283327,0.9968667695109904,759.0,0.84207832127527,0.5291606748113556,3.8158319530769043,-0.012825907572321802,0.026,0.9999999999999937,-7.157262479376069,0.2582915443384901,52,2026-10-07 20:01:25.584243,24.9,0.5023125422473775,0.9949511034065978,1.672983196446974
0155,cdot_cos,S,R-S,53,10,9559,2.091318153441129e-05,-0.004330824562202781,-0.21241772267471445,0.005020456586049243,759.0,0.8503182155447918,0.5291668879311164,3.8523931552093877,-0.002506270653105321,0.059,0.999999999999993,1660.942862286806,0.2632586880410994,53,2026-10-07 20:01:25.643244,24.9,0.016284737907907083,0.13778111388225553,0.13965922490714855
0155,cdot_cos,T,S-T,54,10,9766,-0.28034174780825183,-0.11607168238271555,-0.28036266098978624,0.0009284823631762261,759.0,0.8583364927133762,0.5291680369834083,3.888575099017372,-0.0024622914500641462,0.207,0.9999999999999919,38.274326897306494,0.2682258459749964,54,2026-10-07 20:01:25.850244,24.9,0.9822974762789423,0.12742429971311636,0.03873563849557675
0155,cdot_cos,P,T-P,55,11,10126,0.03874117787134264,0.002531023437062144,0.31908292567959445,0.9996457540663138,761.0,0.903071875626022,0.5304049763608899,3.9335886519485777,-0.014157508559647954,0.36,0.9999999999999921,-9.454963858774748,0.27319301985361877,55,2026-10-07 20:01:26.210243,24.9,0.4377624971722778,0.08392183692301584,0.12426495253512718
0155,cdot_cos,Q,P-Q,56,11,10236,-0.016385873712723268,-0.020728814183964602,-0.0551270515840659,0.20218984514967578,761.0,0.9187602152979476,0.5306551166528796,3.9710593539403325,-0.005134927522316442,0.11,0.9999999999999912,36.070082774606796,0.27816016875302213,56,2026-10-07 20:01:26.320243,24.9,0.1725445218444618,0.27776237931976355,0.14262126974477837
0155,cdot_cos,R,Q-R,57,11,10265,0.1847974361350741,0.41916758699980683,0.20118330984779736,0.9933697761794923,761.0,0.96417959907637,0.53188384351778,4.015635040409725,-0.015360050641043763,0.029,0.9999999999999911,-8.321721784406721,0.2831273092220602,57,2026-10-07 20:01:26.349244,24.9,0.5139157564343704,0.9372446598417252,1.5661856475318054
0155,cdot_cos,S,R-S,58,11,10316,0.013174409919508332,-0.03938606220731043,-0.17162302621556577,0.013742647778514151,761.0,0.9731204055687677,0.5319008395064917,4.050836191942242,-0.003110904335777017,0.051,0.9999999999999899,720.7080748884765,0.2880944524425212,58,2026-10-07 20:01:26.400243,24.9,0.019497143773209893,0.17557244583884807,0.17530993122348434
0155,cdot_cos,T,S-T,59,11,10525,-0.15198159748208862,-0.014565016018561089,-0.16515600740159694,0.01610507632791705,761.0,0.9820879885519325,0.5319207570948097,4.085760946341891,-0.0031490482951879867,0.209,0.9999999999999891,-1.9150892568918616,0.29306161390348623,59,2026-10-07 20:01:26.609244,24.9,0.9879602121957723,0.13240575517337358,0.04290709561322872
0155,cdot_cos,P,T-P,60,12,10887,0.03252188728040421,0.0005734831433083408,0.18450348476249284,0.989990262822768,735.0,1.0284660112312378,0.5331449073812332,4.129722787321511,-0.01674171245459649,0.362,0.9999999999999896,-11.10375442472896,0.2980287943716962,60,2026-10-07 20:01:26.971244,24.9,0.4440118397457049,0.08566772605433343,0.12811608474946232
0155,cdot_cos,Q,P-Q,61,12,10992,-0.027489780613751638,-0.03161684484115148,-0.06001166789415585,0.18327861540858034,735.0,1.0441114222152699,0.5333714931144699,4.165764637846638,-0.005821613257866576,0.105,0.9999999999999879,48.194116375920665,0.30299594408346386,61,2026-10-07 20:01:27.076244,24.9,0.1532345153605102,0.3005374335811331,0.14900391413363856
0155,cdot_cos,R,Q-R,62,12,11020,0.19137173848943204,0.4080928882753767,0.2188615191031837,0.9957205912322828,735.0,1.0915788722832758,0.5346022507250403,4.209462442071143,-0.01819423415442494,0.028,0.9999999999999872,-10.052849391541585,0.30796308426243546,62,2026-10-07 20:01:27.104243,24.9,0.5066019097892107,1.015463201391362,1.6952660738573535
0155,cdot_cos,S,R-S,63,12,11077,0.025938267982702316,-0.06149264134051511,-0.1654334705067297,0.015995966245055122,735.0,1.1009773614931861,0.534622019095944,4.24343083467424,-0.003698332925263097,0.057,0.9999999999999867,733.2875986492668,0.3129302286136492,63,2026-10-07 20:01:27.161243,24.9,0.019849486313497523,0.16135578303732742,0.16488577561246273
0155,cdot_cos,T,S-T,64,12,11284,-0.17100990588301127,-0.024349926465495355,-0.1969481738657136,0.0073621818313064176,735.0,1.109973431549531,0.5346311174995235,4.277049052767797,-0.003569669610667092,0.207,0.9999999999999855,14.141306600784532,0.31789739337573464,64,2026-10-07 20:01:27.368243,24.9,0.9645983520032421,0.13886313379125648,0.043459275634516674
0155,cdot_cos,P,T-P,65,13,11622,0.04343577891131484,-0.0013561004171304047,0.2144456847943261,0.9952255829789562,801.0,1.1584666988827663,0.5358608323319223,4.320248269624748,-0.019735745831538448,0.338,0.9999999999999855,-13.146199260959438,0.3228645773178066,65,2026-10-07 20:01:27.706244,24.9,0.44081645446350587,0.09528725152872629,0.14347120512791486
0155,cdot_cos,Q,P-Q,66,13,11714,-0.01896302928152811,-0.01683745517910579,-0.06239880819284295,0.17454814633440308,801.0,1.17438761358295,0.5360764619825589,4.355105903136799,-0.00666305383384551,0.092,0.9999999999999842,60.6256697958696,0.32783172661294674,66,2026-10-07 20:01:27.798244,24.9,0.14058161931433444,0.35545217905265925,0.17305342065417123
0155,cdot_cos,R,Q-R,67,13,11744,0.260131837744442,0.38167631196652807,0.2790948670259701,0.9990417682318826,801.0,1.2238698998284556,0.5373103754180774,4.398075112846359,-0.021281640381755226,0.03,0.999999999999984,-11.847335580528016,0.33279886696684596,67,2026-10-07 20:01:27.828243,24.9,0.5031279826202908,0.9773935611479583,1.6494095415168517
0155,cdot_cos,S,R-S,68,13,11796,-0.0007095937908345618,-0.0032655964832220366,-0.26084143153527656,0.0015087684559439288,801.0,1.2330312272518276,0.5373122385516712,4.430790369684697,-0.004036503865351398,0.052,0.9999999999999829,9255.984956385842,0.33776601105263676,68,2026-10-07 20:01:27.880243,24.9,0.013949727486081809,0.17681052045517204,0.17617937352638358
0155,cdot_cos,T,S-T,69,13,12004,-0.2158467875441687,0.05558207854456079,-0.21513719375333412,0.004693294612372711,801.0,1.2422581939557935,0.5373180341558755,4.463298949241607,-0.004095844609385221,0.208,0.9999999999999811,-10.238922801095605,0.34273317982523405,69,2026-10-07 20:01:28.088243,24.9,0.9856164106048199,0.14346842735583631,0.04436041684599012
0155,cdot_cos,P,T-P,70,14,12423,0.039589143750986135,0.0008265999936489268,0.25543593129515485,0.9982742299979708,859.0,1.2927140930318555,0.5385505404285152,4.505837250476628,-0.0229287465705618,0.419,0.9999999999999812,-15.280167232610799,0.34770038384947666,70,2026-10-07 20:01:28.507244,24.9,0.43983026092581823,0.08121881712134246,0.12041980686410969
0155,cdot_cos,Q,P-Q,71,14,12529,-0.015883686909643153,-0.014625146669176666,-0.05547283066062929,0.20080455060210803,859.0,1.3103195627034785,0.5387984047161698,4.53999623573693,-0.00821464959296632,0.106,0.9999999999999792,59.363521533616044,0.3526675366590263,71,2026-10-07 20:01:28.613244,24.9,0.16675960010038438,0.32488961443352826,0.16608933652474547
0155,cdot_cos,R,Q-R,72,14,12555,0.24006256417082267,0.3583217863696662,0.2559462510804658,0.9982959834223745,859.0,1.3615906912917635,0.5400303701576324,4.582309827002009,-0.02454633328883583,0.026,0.9999999999999791,-13.256608624085906,0.3576346759964468,72,2026-10-07 20:01:28.639244,24.9,0.5140981534869483,1.1692305538147758,1.9719664841648068
0155,cdot_cos,S,R-S,73,14,12613,-0.0005035980496097263,-0.002830247234223051,-0.2405661622204324,0.0024971686446475768,859.0,1.3711195515018468,0.5400334512274112,4.614048015952845,-0.004665798664065942,0.058,0.9999999999999777,6452.477889938688,0.3626018214251905,73,2026-10-07 20:01:28.697243,24.9,0.014109497969102497,0.16302894916717198,0.16429069327729942
0155,cdot_cos,T,S-T,74,14,12823,-0.30241987852461366,0.009670977472904522,-0.30191628047500396,0.0005430774531950717,859.0,1.3805020493951554,0.5400341212896919,4.645549355534068,-0.004625924558962299,0.21,0.9999999999999758,59.508058063358455,0.3675689945601715,74,2026-10-07 20:01:28.907244,24.9,0.9914173381356813,0.14685741085635765,0.04467856139670754
0155,cdot_cos,P,T-P,75,15,13282,0.015829885185907708,3.3389319354624236e-05,0.3182497637105214,0.9996383308994,840.0,1.432799664061517,0.5412672517858171,4.687512105303137,-0.026352039251833142,0.459,0.9999999999999756,-17.618666281580307,0.3725362153035294,75,2026-10-07 20:01:29.366244,24.9,0.4384731606581775,0.0736753911106412,0.11393815831451334
0155,cdot_cos,Q,P-Q,76,15,13387,-0.05900497497821007,-0.0411698240506932,-0.07483486016411778,0.13430863938159213,840.0,1.448136058434724,0.5414328936114507,4.720102769871981,-0.007913141181789523,0.105,0.9999999999999731,111.31788725167307,0.37750336933029444,76,2026-10-07 20:01:29.471244,24.9,0.09728002102928764,0.3255546331615479,0.1460608987924476
0155,cdot_cos,R,Q-R,77,15,13414,0.210888529808198,0.3228588561466183,0.26989350478640806,0.9987953348813439,840.0,1.501166137025442,0.5426644106443217,4.761861118003419,-0.02799963849252439,0.027,0.9999999999999727,-16.310369060758113,0.3824705083243276,77,2026-10-07 20:01:29.498244,24.9,0.4880271857930454,1.1694509409621763,1.96407698484141
0155,cdot_cos,S,R-S,78,15,13472,0.022994372612659235,-0.109974685397362,-0.18789415719553876,0.009206790684714417,840.0,1.5112864092466816,0.5426757602375394,4.79278278323523,-0.00545785001136512,0.058,0.9999999999999706,1986.131841802274,0.3874376540305413,78,2026-10-07 20:01:29.556243,24.9,0.01608032144724242,0.19031294595314047,0.17448745209033545
0155,cdot_cos,T,S-T,79,15,13681,-0.0935337508592746,0.022680598019958274,-0.11652812347193384,0.05207698066481639,840.0,1.5232424387560064,0.5427399568599552,4.823978498665567,-0.00649498032847251,0.209,0.9999999999999684,-16.155527784452477,0.39240483111672975,79,2026-10-07 20:01:29.765243,24.9,0.8524149623089473,0.15320946940568178,0.05720588281973608
0155,cdot_cos,P,T-P,80,16,14122,0.030154239295877683,0.002009807769603051,0.12368799015515228,0.9560530826209419,839.0,1.5753279674582565,0.5439182534900715,4.864953015561536,-0.02888014104924777,0.441,0.9999999999999682,-18.9978992968575,0.3973720586673148,80,2026-10-07 20:01:30.206244,24.9,0.460655106695187,0.08058745309296168,0.11810777483503433
0155,cdot_cos,Q,P-Q,81,16,14231,-0.02420585656055216,-0.024828055811994234,-0.05436009585642984,0.2052879227958712,839.0,1.5943205723839986,0.5441711988828362,4.897541084545202,-0.010771532564651114,0.109,0.9999999999999655,71.5909797236156,0.40233921515610277,81,2026-10-07 20:01:30.315244,24.9,0.1861589652878505,0.33784237517412063,0.17424408188754187
0155,cdot_cos,R,Q-R,82,16,14261,0.20935356293414445,0.36438020713577407,0.2335594194946966,0.9970282542835807,839.0,1.6489776052462148,0.5453993602575441,4.938801563562568,-0.03170458956717,0.03,0.9999999999999649,-17.044223530883208,0.40730635436987833,82,2026-10-07 20:01:30.345243,24.9,0.5167204796371548,1.0823510045155658,1.821901095407208
0155,cdot_cos,S,R-S,83,16,14313,0.0023451144211450135,-0.02681130186179756,-0.20700844851299943,0.0057401664403904495,839.0,1.6592616326549325,0.5454064295365825,4.9688893532196055,-0.006084826777642452,0.052,0.9999999999999623,3624.0983911450876,0.412273499071489,83,2026-10-07 20:01:30.397243,24.9,0.014839923386036846,0.19803088212200867,0.19776975785995576
0155,cdot_cos,T,S-T,84,16,14521,-0.19336733570748185,0.041834918261464994,-0.19571245012862687,0.007590487577766409,839.0,1.6695728169869037,0.5454157775431164,4.998818478090848,-0.006138854588210871,0.208,0.9999999999999603,-5.779607702684227,0.4172406804506639,84,2026-10-07 20:01:30.605243,24.9,0.9912376555840477,0.15836498275354474,0.049573001596015395
0155,cdot_cos,P,T-P,85,17,14961,0.04059647670929637,0.00046023900705861496,0.23396381241677822,0.9970579401842833,800.0,1.7251414654804071,0.5466434158369144,5.039803599168705,-0.033722646446943116,0.44,0.9999999999999594,-22.468989439384988,0.42220791876033203,85,2026-10-07 20:01:31.045243,24.9,0.44133084314126136,0.08441657465879684,0.12629238293978046
0155,cdot_cos,Q,P-Q,86,17,15066,-0.0185065070516799,-0.018629084527209305,-0.059102983760976266,0.18668978101879782,800.0,1.743859402686645,0.5468732170487558,5.071493945714774,-0.011606821941870678,0.105,0.9999999999999564,96.2389376794957,0.4271750760848597,86,2026-10-07 20:01:31.150244,24.9,0.1487607418450091,0.35740776412024283,0.1782660686308364
0155,cdot_cos,R,Q-R,87,17,15092,0.2270681055909046,0.3916800896287866,0.24557461264258448,0.9977949725405871,800.0,1.8001970959456581,0.5481010872624048,5.112346974257027,-0.035673538964457095,0.026,0.999999999999955,-19.600375312521432,0.4321422138930971,87,2026-10-07 20:01:31.176243,24.9,0.5093408822100236,1.284922040763726,2.166834356115891
0155,cdot_cos,S,R-S,88,17,15150,-0.0002035765946591577,-0.0025059218279611605,-0.22727168218556376,0.003473666550234674,800.0,1.8106753488063587,0.5481053608859247,5.141684420089351,-0.006760001681874315,0.058,0.9999999999999525,6765.578939818505,0.4371093604652957,88,2026-10-07 20:01:31.234244,24.9,0.013882177977011233,0.18080370015673858,0.1806595320810446
0155,cdot_cos,T,S-T,89,17,15359,-0.21247685042430067,0.0386205457392014,-0.2122732738296415,0.005038455412793899,800.0,1.8211703251638398,0.5481115596437639,5.170874490845798,-0.006810101534324616,0.209,0.9999999999999495,-8.082240627805172,0.4420765468907916,89,2026-10-07 20:01:31.443244,24.9,0.9926702974156014,0.16193111171499405,0.050215197882684644
0155,cdot_cos,P,T-P,90,18,15761,0.02315727924127072,-0.0014106562453480174,0.2356341296655714,0.9971774551289341,717.0,1.8783625535032262,0.5493380801407179,5.211479015971447,-0.03778496414950552,0.402,0.9999999999999492,-25.254255996621588,0.44704378654884375,90,2026-10-07 20:01:31.845243,24.9,0.4405343347319113,0.09145700087508098,0.14226922472484183
0155,cdot_cos,Q,P-Q,91,18,15854,-0.05491755757296229,-0.043673514673494805,-0.07807483681423301,0.1252021240836123,717.0,1.894701753867405,0.5494920357298799,5.241820380091147,-0.011008633700979417,0.093,0.9999999999999449,173.9224317498086,0.45201094241565165,91,2026-10-07 20:01:31.938244,24.9,0.08783433561957837,0.39941704154619406,0.175690326496545
0155,cdot_cos,R,Q-R,92,18,15885,0.20540919266912042,0.39729408374388747,0.2603267502420827,0.9984718011339697,717.0,1.9526541232308183,0.5507194713881013,5.2823160536539815,-0.03979478126945371,0.031,0.999999999999944,-23.452266011391025,0.45697808125509165,92,2026-10-07 20:01:31.969243,24.9,0.4851171407819983,1.1246168940125605,1.8694312697875295
0155,cdot_cos,S,R-S,93,18,15931,0.05802911461997501,-0.11372572084222371,-0.1473800780491454,0.024849263569945875,717.0,1.9644280012961837,0.5507500111303061,5.311241216135194,-0.008231317293312855,0.046,0.9999999999999413,1033.5209696428428,0.4619452248691105,93,2026-10-07 20:01:32.015244,24.9,0.021610887325833883,0.2493983899179358,0.25595387098620304
0155,cdot_cos,T,S-T,94,18,16139,-0.11511376608211908,-0.02101818789174918,-0.1731428807020941,0.013239040677251084,717.0,1.9755987751032684,0.550766281753641,5.339877675897095,-0.007855370338852323,0.208,0.999999999999938,23.105872880411525,0.46691241614284396,94,2026-10-07 20:01:32.223244,24.9,0.9532685785144926,0.1667318748572204,0.0537056433032921
0155,cdot_cos,P,T-P,95,19,16478,0.05416111062114056,0.003641539199707005,0.16927487670325964,0.9854419258180395,740.0,2.0337884612367874,0.5519770708133982,5.380007471177871,-0.04161882670933434,0.339,0.999999999999937,-27.88549838503775,0.47187964790715553,95,2026-10-07 20:01:32.562243,24.9,0.4443003852639589,0.11195310849716988,0.17165099154430363
0155,cdot_cos,Q,P-Q,96,19,16586,-0.017222562026244014,-0.02155352878219089,-0.07138367264738457,0.14461786646930425,740.0,2.0515029826643496,0.5521547078541833,5.409989692415907,-0.01290879786926881,0.108,0.9999999999999329,161.62185945664976,0.4768468102702918,96,2026-10-07 20:01:32.670244,24.9,0.10816831362456264,0.35675983387949706,0.16402334655150227
0155,cdot_cos,R,Q-R,97,19,16614,0.19743682063370382,0.46174835960800703,0.21465938265994783,0.9952508002143248,740.0,2.1108485853547587,0.5533768311398408,5.450130251182798,-0.04403865636181353,0.028,0.9999999999999324,-25.47194612677434,0.4818139480731179,97,2026-10-07 20:01:32.698244,24.9,0.49318261602492075,1.2599570670262041,2.119485810371754
0155,cdot_cos,S,R-S,98,19,16671,0.00017694060060923614,-0.0031289589467861693,-0.19725988003309458,0.007305677397794609,740.0,2.122060578417817,0.553385799817283,5.478240454855121,-0.008461100436406578,0.057,0.9999999999999288,3966.867596127343,0.486781095667332,98,2026-10-07 20:01:32.755244,24.9,0.014923204686959892,0.19391030393499983,0.19670163268523352
0155,cdot_cos,T,S-T,99,19,16877,-0.25117209696452397,-0.023222475230877546,-0.2513490375651332,0.0019102844015111311,740.0,2.1329543600033487,0.5533881449362664,5.506143057414246,-0.008263887458657556,0.206,0.999999999999925,84.09508393428558,0.49174829173150725,99,2026-10-07 20:01:32.961244,24.9,0.9764180721337588,0.17299747564603818,0.0528824348812217
0155,cdot_cos,P,T-P,100,20,17218,0.039412877994280615,-0.00188810311150122,0.2905849749588046,0.9992800192745424,779.0,2.1933355383839848,0.5546145611240536,5.546146174111856,-0.04654671305177575,0.341,0.9999999999999245,-31.21519919122376,0.49671553382087974,100,2026-10-07 20:01:33.302243,24.9,0.43934937340091473,0.1180271405660207,0.1770709043420412
0155,cdot_cos,Q,P-Q,101,20,17309,-0.020466454012208292,-0.018537670767523516,-0.05987933200648891,0.18377237528818938,779.0,2.213448869869375,0.554840032992942,5.5760739294624395,-0.015791894856889383,0.091,0.9999999999999202,136.40201922530568,0.5016826927479974,101,2026-10-07 20:01:33.393243,24.9,0.14262927181541402,0.4459206609771541,0.22102562071857224
0155,cdot_cos,R,Q-R,102,20,17339,0.25535340643434906,0.3896098240904675,0.2758198604465574,0.9989604367740238,779.0,2.274493098681827,0.556065268744853,5.61598454622785,-0.048784434071159136,0.03,0.9999999999999191,-26.92750286041982,0.506649831088054,102,2026-10-07 20:01:33.423244,24.9,0.5084988409311014,1.2042057259954442,2.0348076270817326
0155,cdot_cos,S,R-S,103,20,17389,-0.0006221763468197668,-0.003231646427142343,-0.25597558278116883,0.0017027746059663823,779.0,2.2857012134291015,0.5560673566385691,5.643467925502048,-0.00910133169075136,0.05,0.9999999999999153,19006.284694299793,0.5116169769915118,103,2026-10-07 20:01:33.473243,24.9,0.012776567885265237,0.22559605309139918,0.22416229494549356
0155,cdot_cos,T,S-T,104,20,17598,-0.2087748148739122,0.036327457083364496,-0.20815263852709243,0.005579834518165748,779.0,2.2970527039909667,0.5560741984588301,5.670867002891,-0.009263329337934332,0.209,0.9999999999999112,-23.67756547278346,0.5165841799787869,104,2026-10-07 20:01:33.682244,24.9,0.9826639698841216,0.17503937444501028,0.054313351970647086
0155,cdot_cos,P,T-P,105,21,17997,0.04132345746817422,-0.0014427180921363766,0.2500982723420864,0.9980294045459205,779.0,2.3588676719471158,0.557297606712717,5.7106017927951,-0.05122037732783612,0.399,0.9999999999999106,-34.29521409276091,0.5215514538058272,105,2026-10-07 20:01:34.081243,24.9,0.44080724856246994,0.10252006098941888,0.15492473171967178
0155,cdot_cos,Q,P-Q,106,21,18090,-0.021824668354975336,-0.020451792627220976,-0.06314812582314956,0.17187618247942502,779.0,2.378863712660523,0.5575082269081136,5.739899220127241,-0.016858365460676615,0.093,0.9999999999999056,163.1468046188509,0.5265186152486501,106,2026-10-07 20:01:34.174243,24.9,0.13025299530346515,0.44345978143238685,0.21501119046674425
0155,cdot_cos,R,Q-R,107,21,18120,0.2340160087971571,0.3716292252155683,0.25584067715213243,0.9982915056895185,779.0,2.4413511912935397,0.5587311402259658,5.779560581912947,-0.05356857469489214,0.03,0.9999999999999051,-30.018651934129025,0.5314857532609076,107,2026-10-07 20:01:34.204243,24.9,0.5039421767036448,1.2347421242360213,2.0829159544338913
0155,cdot_cos,S,R-S,108,21,18169,0.014137564166908418,-0.0678020356455377,-0.21987844463024867,0.004172854867905874,779.0,2.4529482401146843,0.558736250514757,5.806558172433204,-0.010094566288502806,0.049,0.9999999999999007,8507.152958131528,0.5364528991623996,108,2026-10-07 20:01:34.253243,24.9,0.013478300987395853,0.250139372104331,0.23667446573764367
0155,cdot_cos,T,S-T,109,21,18378,-0.12465361207009444,0.013071634967451982,-0.13879117623700285,0.030593386476255494,779.0,2.465864849759764,0.5587737163406431,5.83376960191286,-0.01129927923401495,0.209,0.9999999999998958,-32.15498169379581,0.5414201081648345,109,2026-10-07 20:01:34.462244,24.9,0.8988684668629787,0.18042732931083647,0.061801960024305755
0155,cdot_cos,P,T-P,110,22,18776,0.038581855325195154,-0.0009046575597904632,0.1632354673952896,0.9831193600712996,740.0,2.528366863766614,0.5599773231512404,5.873092480464185,-0.05548207938846775,0.398,0.9999999999998952,-36.70866579138702,0.5463873944622694,110,2026-10-07 20:01:34.860243,24.9,0.45097488708461225,0.10492184504802415,0.1570402361981149
0155,cdot_cos,Q,P-Q,111,22,18871,-0.021647631419927562,-0.022511123682600533,-0.06022948674512271,0.1824681507547364,740.0,2.5493826384179914,0.5602006369024012,5.902080777732464,-0.0189652863856917,0.095,0.9999999999998896,163.5223662356608,0.5513545586618529,111,2026-10-07 20:01:34.955244,24.9,0.14580949454883357,0.44693318602140436,0.22121868054081573
0155,cdot_cos,R,Q-R,112,22,18901,0.2212922331028691,0.41211279947944923,0.24293986452279667,0.9976458124246425,740.0,2.6132841691106807,0.5614211731582147,5.941524068524926,-0.05859577953729207,0.03,0.999999999999889,-32.4697385782983,0.5563216963399994,112,2026-10-07 20:01:34.985244,24.9,0.5084761384951579,1.2625425532873935,2.130051023089645
0155,cdot_cos,S,R-S,113,22,18949,-0.0004256446463271449,-0.0038992596366869353,-0.22171787774919624,0.0039867859050683775,740.0,2.625135191615235,0.5614260491769929,5.9680416165922425,-0.011026457833972655,0.048,0.9999999999998838,9755.770817805329,0.5612888421970229,113,2026-10-07 20:01:35.033243,24.9,0.01337848777713814,0.24703840472392138,0.24689630217821407
0155,cdot_cos,T,S-T,114,22,19157,-0.21159816607303375,-0.009627764031001454,-0.21117252142670662,0.005177738129591897,740.0,2.636999855964177,0.56143238176629,5.994458329861846,-0.011089092577052284,0.208,0.9999999999998785,-9.890858247948325,0.5662560570293321,114,2026-10-07 20:01:35.241244,24.9,0.9943676017955921,0.1840936996933316,0.05704165552376047
0155,cdot_cos,P,T-P,115,23,19516,0.04513130358254242,0.0017931154269263058,0.2567294696555762,0.9983288384475234,759.0,2.701718170687661,0.5626530032267377,6.033782148658314,-0.061330358194224575,0.359,0.999999999999878,-41.160398407825774,0.5712233395008471,115,2026-10-07 20:01:35.600243,24.9,0.44078819299247096,0.11977084914776419,0.1802738571684785
0155,cdot_cos,Q,P-Q,116,23,19625,-0.01614304719368362,-0.019926070980917032,-0.06127435077622604,0.17861910122180885,759.0,2.722995325652272,0.5628713149486906,6.062310553603304,-0.0204858184822817,0.109,0.9999999999998718,187.0927467685996,0.5761905122181011,116,2026-10-07 20:01:35.709243,24.9,0.13617753473256244,0.39675150345856125,0.1952032565560634
0155,cdot_cos,R,Q-R,117,23,19653,0.2035738589659776,0.4500962709066626,0.21971690615966122,0.9958103972854189,759.0,2.7882099984416273,0.5640879650375589,6.1015452246202075,-0.06375028502695815,0.028,0.9999999999998708,-35.560320046432174,0.5811576487176201,117,2026-10-07 20:01:35.737243,24.9,0.507298716504568,1.3828955947875317,2.3290954567626945
0155,cdot_cos,S,R-S,118,23,19707,2.542002671729521e-05,-0.0029948369845653037,-0.2035484389392603,0.006253404966202459,759.0,2.8004374789603736,0.5640956028311547,6.127647690614504,-0.012120825602590219,0.054,0.9999999999998648,6759.7348339873,0.5861247978397066,118,2026-10-07 20:01:35.791244,24.9,0.014128429560917097,0.22349290503428007,0.22643482442122845
0155,cdot_cos,T,S-T,119,23,19915,-0.2679214840748757,-0.00045773218199804264,-0.267946904101593,0.0012644182671397186,759.0,2.8123472321853296,0.564097147164631,6.153574371823762,-0.011856849436449015,0.208,0.9999999999998593,170.93210125178075,0.5910920192227991,119,2026-10-07 20:01:35.999244,24.9,0.9779824038341846,0.1877215107148579,0.05725842896613419
0155,cdot_cos,P,T-P,120,24,20275,0.04597634041623729,0.00039243079035050963,0.313897824491113,0.9995969536367854,779.0,2.8785296274177545,0.5653176421195073,6.192745524627925,-0.06676221663462227,0.36,0.9999999999998583,-44.9861484300341,0.5960593146002364,120,2026-10-07 20:01:36.359244,24.9,0.439375094654818,0.12151299226577465,0.18383998675673605
0155,cdot_cos,Q,P-Q,121,24,20379,-0.017448098232046898,-0.018144731798028276,-0.06342443864828419,0.1708991020437185,779.0,2.8998365866166873,0.5655262288913385,6.220789622746847,-0.021821639936608926,0.104,0.9999999999998515,215.45266894670246,0.6010264876442052,121,2026-10-07 20:01:36.463244,24.9,0.12752408692741785,0.42307880526241426,0.2048746076820459
0155,cdot_cos,R,Q-R,122,24,20405,0.22565430761863578,0.4068929054860599,0.24310240585068268,0.9976552989280784,779.0,2.9665300189123367,0.5667434275817749,6.2598868853860745,-0.06929923552569381,0.026,0.9999999999998511,-39.00562493380993,0.6059936227850423,122,2026-10-07 20:01:36.489243,24.9,0.5040348093335076,1.519711004205756,2.5651320113711304
0155,cdot_cos,S,R-S,123,24,20464,-0.00014983068638733352,-0.0044822734919715635,-0.2258041383050231,0.003602482704524587,779.0,2.9788615588353866,0.5667478213745702,6.285538528071327,-0.012985926317767538,0.059,0.9999999999998446,12816.560049710548,0.6109607751418992,123,2026-10-07 20:01:36.548243,24.9,0.013082397452822506,0.20754264540228184,0.20900915123813418
0155,cdot_cos,T,S-T,124,24,20674,-0.2659399604487435,-0.08040658716165555,-0.26579012976235616,0.0013340855443951774,779.0,2.991020051069806,0.5667494484985124,6.311055898901448,-0.012856424800809414,0.21,0.9999999999998381,79.58921481293729,0.615928004316203,124,2026-10-07 20:01:36.758244,24.9,0.98997765900708,0.18973251467490018,0.057897582068663515
0155,cdot_cos,P,T-P,125,25,21054,0.022971586559029054,-0.0013893541955297423,0.28891154700777255,0.9992494080486531,742.0,3.0585492149988447,0.567967781233457,6.350074019839265,-0.0723103035705889,0.38,0.9999999999998376,-48.79937726739368,0.6208953229457396,125,2026-10-07 20:01:37.138243,24.9,0.43946165999441195,0.11389389293704887,0.1777083261290493
0155,cdot_cos,Q,P-Q,126,25,21148,-0.0561709569527949,-0.04303892935344469,-0.07914254351182395,0.12231915911637044,742.0,3.077579409701963,0.5681168624437978,6.377097232961675,-0.020667414399486043,0.094,0.9999999999998295,346.4077669685389,0.6258624932356621,126,2026-10-07 20:01:37.232243,24.9,0.08218692364097596,0.46340090462284506,0.2024488798204085
0155,cdot_cos,R,Q-R,127,25,21179,0.2088058838165888,0.38089201785065685,0.2649768407693837,0.9986386597721808,742.0,3.1456685850679396,0.5693335280459735,6.416064300213885,-0.07494583891026792,0.031,0.9999999999998287,-44.612442739992325,0.6308296305242751,127,2026-10-07 20:01:37.263244,24.9,0.48469505818061825,1.3222078178831482,2.1964250118056925
0155,cdot_cos,S,R-S,128,25,21227,0.06512381454272444,-0.137955326718226,-0.14368206927386434,0.02718090262803849,742.0,3.1595562944107183,0.569366631565215,6.4416493875065,-0.015487289956884524,0.048,0.9999999999998216,1796.1398158148863,0.6357967776359427,128,2026-10-07 20:01:37.311244,24.9,0.021511156799299838,0.2905551826767004,0.28932727797455665
0155,cdot_cos,T,S-T,129,25,21436,-0.07459867264182611,-0.005104208550511067,-0.13972248718455055,0.029913077153343324,742.0,3.173561882604903,0.5694030618728775,6.467176896903471,-0.01568751738684416,0.209,0.9999999999998146,-5.496177298720454,0.6407640133121886,129,2026-10-07 20:01:37.520243,24.9,0.9873176204997937,0.19010429447742924,0.06701238370423213
0155,cdot_cos,P,T-P,130,26,21796,0.03521670808041486,-0.0003867276764781578,0.10981538072224098,0.9390264211711133,737.0,3.2390198895022837,0.5705462921828135,6.50522995811545,-0.07419035634537145,0.36,0.9999999999998137,-51.17327492987965,0.645731334778648,130,2026-10-07 20:01:37.880243,24.9,0.45450314257405355,0.1227985634595425,0.1818277969371692
0155,cdot_cos,Q,P-Q,131,26,21898,-0.024310555801956492,-0.026790870253075735,-0.05952726388237135,0.1850909975660182,737.0,3.2619768482957734,0.5707715453351574,6.532780367283478,-0.026374828872685226,0.102,0.9999999999998055,212.2746206884857,0.6506985119912099,131,2026-10-07 20:01:37.982244,24.9,0.1631765138726934,0.452320650149608,0.22506822346558522
0155,cdot_cos,R,Q-R,132,26,21925,0.2072201754308999,0.41508032735360934,0.2315307312328564,0.9968747635601007,737.0,3.3312933021328037,0.5719842216727079,6.571599846335409,-0.08070966632780568,0.027,0.9999999999998046,-44.80572084458378,0.6556656467051429,132,2026-10-07 20:01:38.009243,24.9,0.5100668383670834,1.5243652833299282,2.5672760680381606
0155,cdot_cos,S,R-S,133,26,21983,0.00859004136979705,-0.03504053063991925,-0.19863013406110286,0.0070623477357900305,737.0,3.3442925735955895,0.5719928097978352,6.596544342709745,-0.015324791589928236,0.058,0.9999999999997966,7613.404994558528,0.6606328002279498,133,2026-10-07 20:01:38.067244,24.9,0.014029293236472078,0.22383307301107697,0.22412537004803082
0155,cdot_cos,T,S-T,134,26,22192,-0.18902880973315966,-0.016551491727239034,-0.1976188511029567,0.007241138200280071,737.0,3.3572579386020887,0.5720016152949828,6.621398878093038,-0.015344190105952372,0.209,0.9999999999997887,-2.2030006595707765,0.6656000431204195,134,2026-10-07 20:01:38.276243,24.9,0.9987365733214392,0.19864136996521312,0.06203523926554613
0155,cdot_cos,P,T-P,135,27,22533,0.049862132996810624,0.002588069516268916,0.2388909427299703,0.9973967409221157,779.0,3.4273246662410486,0.5732140492388231,6.660146924911814,-0.08388927197766641,0.341,0.9999999999997877,-56.53510627935941,0.670567366968349,135,2026-10-07 20:01:38.617243,24.9,0.44171519497721734,0.13458662311745961,0.20547427460105552
0155,cdot_cos,Q,P-Q,136,27,22640,-0.017866698262147537,-0.019872219164693627,-0.06772883125895816,0.15624354742789345,779.0,3.449046015568196,0.573403899355535,6.686982725780617,-0.026355310165767108,0.107,0.999999999999779,303.04938868805124,0.6755345501164223,136,2026-10-07 20:01:38.724244,24.9,0.11270154702026346,0.43155732677156555,0.20300326473969657
0155,cdot_cos,R,Q-R,137,27,22668,0.21775311378123127,0.42570263354746507,0.2356198120433788,0.9971764515292144,779.0,3.5196779341701636,0.5746150476257201,6.725698340653656,-0.08678764325130575,0.028,0.9999999999997781,-49.896725754562794,0.6805016850418314,137,2026-10-07 20:01:38.752243,24.9,0.4984140291855417,1.494822967821988,2.522568521498839
0155,cdot_cos,S,R-S,138,27,22724,-0.00010488982918395028,-0.0034026815221957787,-0.2178580036104152,0.004387212783681025,779.0,3.5327561017662275,0.5746203742693855,6.750262625651938,-0.016262532567439907,0.056,0.9999999999997694,13240.065436018707,0.6854688382517619,138,2026-10-07 20:01:38.808243,24.9,0.013080113887800554,0.23212601266438457,0.23353870707256855
0155,cdot_cos,T,S-T,139,27,22932,-0.24152031247632164,0.012840116711552843,-0.2414154226471377,0.0024450442399847907,779.0,3.5456760475885747,0.5746233428617636,6.774710956611468,-0.016124981578624884,0.208,0.9999999999997605,46.33542477167941,0.6904360880896436,139,2026-10-07 20:01:39.016243,24.9,0.9915059761823078,0.2028165110723382,0.06211512414590017
0155,cdot_cos,P,T-P,140,28,23312,0.0408724194231392,0.0015177293026141726,0.28239273189946085,0.9991172443915249,800.0,3.61712777037232,0.575835944668432,6.813384497946829,-0.09017224980521696,0.38,0.9999999999997596,-61.06478467984212,0.6954034505797039,140,2026-10-07 20:01:39.396243,24.9,0.4399141048829926,0.1254644395403541,0.18803084943090909
0155,cdot_cos,Q,P-Q,141,28,23420,-0.01825643682524499,-0.019679055957728574,-0.05912885624838419,0.18659198376908367,800.0,3.641029021639244,0.5760623056636855,6.840362711412096,-0.030560678990041158,0.108,0.9999999999997504,263.347361361484,0.7003706373697529,141,2026-10-07 20:01:39.504243,24.9,0.14218914973362742,0.44346190587121026,0.22130788210114502
0155,cdot_cos,R,Q-R,142,28,23448,0.21166275958167285,0.39202240036079306,0.22991919640691785,0.9967472226218466,800.0,3.7129155420405016,0.5772709503765797,6.878979145527134,-0.09305808664554574,0.028,0.9999999999997491,-51.708667558600375,0.7053377717469071,142,2026-10-07 20:01:39.532243,24.9,0.5108927130243086,1.5221156484896254,2.5673757286163483
0155,cdot_cos,S,R-S,143,28,23502,-0.00034370265749176165,-0.004690196615159925,-0.2120064622391646,0.005071870039093497,800.0,3.726267497954663,0.5772770981181431,6.90323192129288,-0.017484563001362207,0.054,0.9999999999997397,12292.892091361133,0.7103049243497335,143,2026-10-07 20:01:39.586244,24.9,0.013269331250885644,0.24834073317155556,0.2472584428548384
0155,cdot_cos,T,S-T,144,28,23711,-0.19515601861264575,0.029777169667751204,-0.194812315955154,0.007761201350927843,800.0,3.7397363412230296,0.5772865056196606,6.927439940415425,-0.017701112727522148,0.209,0.9999999999997305,-23.01883510283104,0.7152721826280103,144,2026-10-07 20:01:39.795244,24.9,0.9878408485002714,0.20578311545396197,0.0644442261644341
0155,cdot_cos,P,T-P,145,29,24112,0.028587068753996962,-0.000639070221927545,0.22374308736664272,0.996208530298319,739.0,3.812284840214419,0.5784935614666941,6.965986870457259,-0.09636933889240162,0.401,0.9999999999997293,-65.1736424277438,0.7202395754397889,145,2026-10-07 20:01:40.196243,24.9,0.4420553947779274,0.11731860192473084,0.1809189501032154
0155,cdot_cos,Q,P-Q,146,29,24208,-0.04423430050985473,-0.03944645467762414,-0.07282136926385169,0.14024553983636262,739.0,3.8338258599666637,0.5786634149945155,6.992018714868293,-0.028967202911465345,0.096,0.9999999999997183,396.8250577156755,0.7252067567957831,146,2026-10-07 20:01:40.292243,24.9,0.09760338617802157,0.4934445319675675,0.22438562241921625
0155,cdot_cos,R,Q-R,147,29,24239,0.20211043239483634,0.38776105486402035,0.24634473290469105,0.9978367627011084,739.0,3.907026190352192,0.579871370813067,7.030568826435975,-0.09957727916865744,0.031,0.999999999999717,-58.45418778797493,0.7301738926952502,147,2026-10-07 20:01:40.323244,24.9,0.49208772838068815,1.4117706835602535,2.361300980178329
0155,cdot_cos,S,R-S,148,29,24298,0.040551595962238174,-0.09623051315823967,-0.16155883643259816,0.01758763531701457,739.0,3.9213556423473994,0.5798926534237374,7.0547007055078215,-0.019713058239425624,0.059,0.9999999999997067,3752.5575300055402,0.7351410495268879,148,2026-10-07 20:01:40.382244,24.9,0.0173991152886704,0.2444527468139539,0.24287206771538172
0155,cdot_cos,T,S-T,149,29,24493,-0.11319687684325047,-0.011675606248148285,-0.15374847280548865,0.021282935956575467,739.0,3.9358716144762385,0.579918407281186,7.0788084035918235,-0.020042898399899263,0.195,0.9999999999996961,-12.807408021558096,0.7401083054684114,149,2026-10-07 20:01:40.577244,24.9,0.983677962185009,0.22404639717705502,0.07444088271199507
0155,cdot_cos,P,T-P,150,30,24851,0.04510999697031461,-0.0010683868610190537,0.1583068738135651,0.9809572262581185,740.0,4.008733737246451,0.5811049604626252,7.117055376711578,-0.10164322817737573,0.358,0.999999999999695,-68.7708996561847,0.7450756835313751,150,2026-10-07 20:01:40.935244,24.9,0.4480675500080893,0.1342952213851411,0.20352548259835873
0155,cdot_cos,Q,P-Q,151,30,24946,-0.020579166476675567,-0.021571305164245245,-0.06568916344699018,0.16305644935378397,740.0,4.0320269929879995,0.5813021009223037,7.143162107788878,-0.03288323439679801,0.095,0.9999999999996836,348.78681876207764,0.7500428669784345,151,2026-10-07 20:01:41.030244,24.9,0.12355918682057636,0.5143398574179197,0.24519216570051172
0155,cdot_cos,R,Q-R,152,30,24977,0.22445612525066788,0.4239952279843774,0.24503529172734345,0.99776522792708,740.0,4.106458310155856,0.5825078632954156,7.181641587583063,-0.10626588856468372,0.031,0.9999999999996824,-60.85996362491988,0.7550100026432411,152,2026-10-07 20:01:41.061243,24.9,0.5012967644671011,1.4216711225564407,2.401010231221165
0155,cdot_cos,S,R-S,153,30,25023,-0.0004429488889314827,-0.003784573483326781,-0.22489907413959936,0.003684287816344939,740.0,4.120170602586499,0.5825123138027514,7.205281727521354,-0.019789066017776816,0.046,0.9999999999996715,19430.778565804503,0.7599771505197465,153,2026-10-07 20:01:41.107244,24.9,0.012652133037210727,0.2975976990752008,0.2980933137096348
0155,cdot_cos,T,S-T,154,30,25230,-0.22589589034699115,-0.008891038931864454,-0.22545294145805966,0.0036340088625701657,740.0,4.133837298470774,0.5825167035614773,7.2288445287195655,-0.01978884470234917,0.207,0.9999999999996598,0.05041630792562969,0.7649444234952645,154,2026-10-07 20:01:41.314244,24.9,0.9999888162147209,0.2145573381527217,0.06602268543128151
0155,cdot_cos,P,T-P,155,31,25591,0.04089057963453697,-0.0018616380992876993,0.2667864699815281,0.9986985618910036,739.0,4.208997340581726,0.5837225994624011,7.267290173862842,-0.10990931156802189,0.361,0.9999999999996586,-74.73320607246012,0.7699118195357751,155,2026-10-07 20:01:41.675244,24.9,0.4404523668314486,0.13849721893687644,0.2081995626342147
0155,cdot_cos,Q,P-Q,156,31,25683,-0.01951886889951664,-0.01941997416893069,-0.06040944853405361,0.18180064783952754,739.0,4.233832290543199,0.5839420104843333,7.293435927565631,-0.036746790828963836,0.092,0.9999999999996467,333.4496147677156,0.7748790034578286,156,2026-10-07 20:01:41.767244,24.9,0.13656006112430952,0.5462580180308183,0.26994510827688356
0155,cdot_cos,R,Q-R,157,31,25713,0.23496986437677758,0.41752690034133366,0.25448873327629423,0.998233116299081,739.0,4.309508815899396,0.5851461601884032,7.331862954410657,-0.11321211280112989,0.03,0.9999999999996455,-63.50150792191468,0.7798461380643282,157,2026-10-07 20:01:41.797244,24.9,0.5089444326439924,1.4926175097420855,2.5225508452065766
0155,cdot_cos,S,R-S,158,31,25762,-0.00031232530282010126,-0.0024954185057953263,-0.2352821896795977,0.00284731765378159,739.0,4.323389341127724,0.5851495934066032,7.355218924217334,-0.020982898869996127,0.049,0.9999999999996335,26863.778692934182,0.7848132889478029,158,2026-10-07 20:01:41.846244,24.9,0.012333369580628419,0.28238879918393406,0.28327602506791494
0155,cdot_cos,T,S-T,159,31,25970,-0.24724509157693622,4.2210274261907e-05,-0.24693276627411612,0.002131860904113576,739.0,4.337182918219422,0.5851521639410966,7.378490638418747,-0.02091826609444628,0.208,0.9999999999996219,25.143710662690104,0.7897805713363807,159,2026-10-07 20:01:42.054244,24.9,0.9969149915395048,0.21679194617073402,0.0663152744793159
0155,cdot_cos,P,T-P,160,32,26330,0.03482123851222729,0.00047062155615297833,0.2820663300891635,0.9991100470558769,720.0,4.413574790734749,0.586356348700268,7.416889008603064,-0.11695675201233868,0.36,0.9999999999996204,-79.75394571841066,0.7947479829447643,160,2026-10-07 20:01:42.414243,24.9,0.43992752177264954,0.14155607963854708,0.21219964587591011
0155,cdot_cos,Q,P-Q,161,32,26435,-0.02432082715806918,-0.028938356006129755,-0.05914206567029647,0.18654206776421273,720.0,4.439103295559176,0.586581066014541,7.442882166088769,-0.039533290721126824,0.105,0.999999999999608,344.53714232789133,0.7997151807654845,161,2026-10-07 20:01:42.519244,24.9,0.14107874760181638,0.48659635264281814,0.24312861737548816
0155,cdot_cos,R,Q-R,162,32,26461,0.1865894689419616,0.4185255920025133,0.2109102961000308,0.9947885204435669,720.0,4.515760024789741,0.5877788239583676,7.481205922631413,-0.11997699085503769,0.026,0.9999999999996065,-67.16190074006902,0.8046823115163322,162,2026-10-07 20:01:42.545243,24.9,0.5114565057329551,1.7668687057583221,2.9483357396371366
0155,cdot_cos,S,R-S,163,32,26519,0.03144047998467396,-0.06909190313588934,-0.15514898895728763,0.020568534186587883,720.0,4.530980468258608,0.5878035782336318,7.504576576622633,-0.024065806431326858,0.058,0.9999999999995938,3874.530092268216,0.8096494709360583,163,2026-10-07 20:01:42.603244,24.9,0.018585534382519905,0.2611559914963462,0.2624214391183999
0155,cdot_cos,T,S-T,164,32,26728,-0.12738221499649835,-0.026018084888947,-0.1588226949811723,0.018804323208551136,720.0,4.546054119803317,0.5878262088885691,7.527851374219216,-0.02391312411969991,0.209,0.9999999999995806,6.746703179840675,0.8146167631150167,164,2026-10-07 20:01:42.812243,24.9,0.9936354648663117,0.21915290566226367,0.07212273466367927
0155,cdot_cos,P,T-P,165,33,27050,0.03458482617055827,-0.0017023160467063794,0.16196704116705662,0.9825871281401332,697.0,4.6225863828254345,0.5890082155988285,7.565950489406272,-0.12253170474003788,0.322,0.9999999999995794,-83.43318169377321,0.819584157821857,165,2026-10-07 20:01:43.134243,24.9,0.44715887013199107,0.15922179981843398,0.23767783547241378
0155,cdot_cos,Q,P-Q,166,33,27144,-0.02422235098746544,-0.027358695046539202,-0.05880717715802371,0.18781072885689692,697.0,4.648592958886389,0.5892340267238395,7.591752484021895,-0.04209639896709472,0.094,0.9999999999995657,356.20612478254526,0.8245513494137056,166,2026-10-07 20:01:43.228243,24.9,0.14797073371918606,0.5530794318034205,0.27666570277610897
0155,cdot_cos,R,Q-R,167,33,27173,0.20780898062919068,0.45047258129537954,0.23203133161665612,0.9969133581919339,697.0,4.726565316004478,0.5904320175231365,7.630066350754087,-0.1275145224598395,0.029,0.9999999999995648,-71.30115151374574,0.8295184825420794,167,2026-10-07 20:01:43.257244,24.9,0.5117752232949843,1.5942057528020255,2.6887019695892693
0155,cdot_cos,S,R-S,168,33,27219,-0.00010989898757189049,-0.0028304079121203546,-0.20791887961676256,0.0056122243845735135,697.0,4.741056892548906,0.5904387587099883,7.652964135685128,-0.02393287129421593,0.046,0.9999999999995511,15365.491780915105,0.8344856321047471,168,2026-10-07 20:01:43.303244,24.9,0.013193807388482528,0.31197055532509227,0.3150342727049712
0155,cdot_cos,T,S-T,169,33,27430,-0.2524526227294277,-0.05046183638045412,-0.2523427237418558,0.0018636856016332173,697.0,4.755266607094386,0.5904409972895284,7.6757361271498015,-0.023538478055782082,0.211,0.999999999999537,176.1801318086988,0.8394529355025239,169,2026-10-07 20:01:43.514244,24.9,0.9833843320671981,0.2203284023948952,0.06734461869895646
0155,cdot_cos,P,T-P,170,34,27747,0.04122298215878151,-0.0007631322810047395,0.2936756048882092,0.999333312722507,742.0,4.834035478359552,0.5916408116740455,7.714055660981274,-0.13163960002273353,0.317,0.999999999999536,-90.09820465726399,0.8444203409102228,170,2026-10-07 20:01:43.831244,24.9,0.4399078564900708,0.16447770164888942,0.24848224373869388
0155,cdot_cos,Q,P-Q,171,34,27842,-0.021283458347947266,-0.02228094388223303,-0.06250644050672877,0.17416233932401584,742.0,4.859545469939782,0.5918498022894115,7.739443839194976,-0.04308941319419578,0.095,0.9999999999995216,423.70412984065507,0.8493875367483862,171,2026-10-07 20:01:43.926244,24.9,0.1280885468606665,0.5510295553803919,0.26852622716031505
0155,cdot_cos,R,Q-R,172,34,27872,0.2235171423218436,0.4211145076865025,0.24480060066979087,0.9977521595581743,742.0,4.9387310938818265,0.593046438642855,7.777734568432623,-0.1350747161016299,0.03,0.9999999999995209,-76.86988836895603,0.8543546706443972,172,2026-10-07 20:01:43.956243,24.9,0.5061127971459256,1.5637173233929769,2.639520798068151
0155,cdot_cos,S,R-S,173,34,27918,0.007694937715461414,-0.035216408453122724,-0.21582220460638218,0.004614287270011147,742.0,4.953368509343361,0.5930519701540142,7.800384245722214,-0.025207462232864884,0.046,0.9999999999995058,19862.068557062503,0.8593218209292919,173,2026-10-07 20:01:44.002244,24.9,0.012797300679846248,0.31911556302615013,0.31820468394639295
0155,cdot_cos,T,S-T,174,34,28128,-0.1943050926858843,-0.0035531746151962343,-0.20200003040134573,0.006497618351045222,742.0,4.968089725680232,0.5930597593231142,7.822998974910661,-0.02542686626535139,0.21,0.9999999999994915,-28.167835319982128,0.8642891330198854,174,2026-10-07 20:01:44.212243,24.9,0.9914082943884848,0.22496899811365312,0.07010103017557968
0155,cdot_cos,P,T-P,175,35,28489,0.03841236587593021,-0.0006960244488433734,0.23271745856181453,0.9969654855358375,758.0,5.047855488551095,0.5942543380380823,7.86124953145317,-0.1389565994650585,0.361,0.999999999999491,-95.03746532327935,0.8692565979018614,175,2026-10-07 20:01:44.573244,24.9,0.4417479666851562,0.14779681550831045,0.2209577918860459
0155,cdot_cos,Q,P-Q,176,35,28591,-0.019739581130236116,-0.020656727041389145,-0.05815194700616633,0.19031210434924814,758.0,5.0747990264772325,0.5944822465083508,7.886701969940532,-0.047428817487711404,0.102,0.9999999999994752,401.5988605842496,0.8742238039961217,176,2026-10-07 20:01:44.675244,24.9,0.14517830239482446,0.525766460473146,0.2641523326091919
0155,cdot_cos,R,Q-R,177,35,28617,0.2202340100212753,0.40789069751215495,0.2399735911515114,0.9974658064776584,758.0,5.155111846487617,0.5956760948816997,7.924958788829051,-0.14273838509344913,0.026,0.9999999999994739,-79.83389660981956,0.879190933327529,177,2026-10-07 20:01:44.701244,24.9,0.5128755512048744,1.8293963113122753,3.088954615784008
0155,cdot_cos,S,R-S,178,35,28676,-3.589460718054495e-05,-0.005274346942199774,-0.22026990462845583,0.004132545437166707,758.0,5.169927634665471,0.5956810387046577,7.947380099327253,-0.02657656865565526,0.059,0.9999999999994582,23496.354425370617,0.8841580976370572,178,2026-10-07 20:01:44.760243,24.9,0.012640671689218286,0.26111023477225476,0.25111505386193417
0155,cdot_cos,T,S-T,179,35,28868,-0.1515565618540085,0.0032972701756544573,-0.15152066724682797,0.022469632774643047,758.0,5.185922854190743,0.5957079191064596,7.970032582192888,-0.028777238678539378,0.192,0.9999999999994424,-81.8689407660005,0.8891254006204803,179,2026-10-07 20:01:44.952243,24.9,0.9263783044221753,0.25061861681486874,0.08330843502745804
0155,cdot_cos,P,T-P,180,36,29247,0.022396209005025338,0.0006557844371428024,0.17395277085903385,0.987021837082209,721.0,5.26616518352238,0.5968881236993732,8.008098428130836,-0.14556922741720188,0.379,0.9999999999994417,-98.95910373500435,0.8940929028699917,180,2026-10-07 20:01:45.331244,24.9,0.4482911592443414,0.1355443849502961,0.21172118557160333
0155,cdot_cos,Q,P-Q,181,36,29353,-0.05835232787627139,-0.05212486421411669,-0.08074853688129673,0.1180904578238545,721.0,5.288665497983067,0.597029252346572,8.032211224471217,-0.04121482839246973,0.106,0.9999999999994241,739.4274734151179,0.8990601167133749,181,2026-10-07 20:01:45.437243,24.9,0.0795028445112377,0.49014028873520404,0.21226711755364894
0155,cdot_cos,R,Q-R,182,36,29380,0.17697381669514994,0.40615500649717456,0.23532614457142134,0.9971557881059667,721.0,5.370074924734244,0.5982202999707145,8.07043723744909,-0.15044375756735917,0.027,0.9999999999994221,-91.70828013995906,0.9040272463142158,182,2026-10-07 20:01:45.464243,24.9,0.48381874239803263,1.8406701909921326,3.0151639537472765
0155,cdot_cos,S,R-S,183,36,29436,0.057373474733723666,-0.10876301489513586,-0.11960034196142627,0.048427478354614605,721.0,5.388061688296642,0.5982781145359277,8.093360490362672,-0.03354773570385064,0.056,0.9999999999994056,2021.913015039144,0.9089944083967905,183,2026-10-07 20:01:45.520243,24.9,0.030670061122525346,0.3023660869439663,0.32119220647140534
0155,cdot_cos,T,S-T,184,36,29645,-0.10447076512235508,-0.02243716116894762,-0.16184423985607874,0.017465266253459795,721.0,5.403939926471968,0.5982989645643371,8.11572620522315,-0.029707769891718753,0.209,0.999999999999389,184.17077122112784,0.9139617387176298,184,2026-10-07 20:01:45.729243,24.9,0.878747252304021,0.23077098414811817,0.07597243146088767
0155,cdot_cos,P,T-P,185,37,29968,0.04383371915044495,0.0003299132718652716,0.14830448427280002,0.9757024383237964,757.0,5.484523959670556,0.5994631909253089,8.15358521732058,-0.15197250413543634,0.323,0.9999999999993872,-105.01800881888747,0.9189291978847697,185,2026-10-07 20:01:46.052243,24.9,0.44730312415228396,0.16499443122458424,0.2494861708934609
0155,cdot_cos,Q,P-Q,186,37,30073,-0.021195817710220513,-0.023566302675412328,-0.06502953686066545,0.16531033551010918,757.0,5.510526329043049,0.5996603314937127,8.178281047788808,-0.04950950465040546,0.105,0.9999999999993695,519.7458864740262,0.9238964146587348,186,2026-10-07 20:01:46.157243,24.9,0.12624103762943503,0.5167988572535045,0.24764161307136726
0155,cdot_cos,R,Q-R,187,37,30100,0.2142103503616034,0.42230452034384786,0.2354061680718239,0.9971614337267163,757.0,5.593051719693792,0.6008488083856443,8.216488418647804,-0.15852494692327151,0.027,0.9999999999993681,-91.72701885325525,0.9288635437882093,187,2026-10-07 20:01:46.184243,24.9,0.5027378835949547,1.8108663697773173,3.0564959500274957
0155,cdot_cos,S,R-S,188,37,30157,-4.815186146432075e-05,-0.006445299009651512,-0.21425850222306772,0.004796614795436422,757.0,5.608313113011024,0.600854522421591,8.238506686579877,-0.02957401002209491,0.057,0.9999999999993501,22567.400363458677,0.933830708243054,188,2026-10-07 20:01:46.241244,24.9,0.012774822088544333,0.27058041680000267,0.26774374240759213
0155,cdot_cos,T,S-T,189,37,30365,-0.18424166401720465,-0.00045590217862759183,-0.18419351215574034,0.010086512149503736,757.0,5.623897887208992,0.6008665380337959,8.260553749080898,-0.03028352764450504,0.208,0.9999999999993314,-59.04964393926663,0.9387980474055195,189,2026-10-07 20:01:46.449243,24.9,0.9768431715345218,0.23717761463959644,0.07492679902869016
0155,cdot_cos,P,T-P,190,38,30725,0.04182047417747735,-0.0016030094142981035,0.22606213819468202,0.9964205036011348,799.0,5.7069790007010965,0.6020529286572609,8.298731607953407,-0.16269351996752526,0.36,0.9999999999993305,-111.60741639738873,0.9437655666067207,190,2026-10-07 20:01:46.809243,24.9,0.4431435588828485,0.15363896462910415,0.23078087081140158
0155,cdot_cos,Q,P-Q,191,38,30817,-0.018356205559247604,-0.016329081784041237,-0.060176679736724956,0.18266438010486713,799.0,5.734517941741947,0.6022702889183017,8.323545902773908,-0.054444503573019366,0.092,0.9999999999993118,498.0165917917576,0.9487327718266118,191,2026-10-07 20:01:46.901243,24.9,0.13693552551669613,0.6048548430140862,0.2993363156614176
0155,cdot_cos,R,Q-R,192,38,30847,0.2614713173561951,0.3903123345532109,0.2798275229154427,0.9990590745906529,799.0,5.818272291815688,0.603458396951959,8.361769782828777,-0.1670224255523592,0.03,0.9999999999993106,-94.75394390928771,0.9536999039186815,192,2026-10-07 20:01:46.931243,24.9,0.5096511629518249,1.6498026678801736,2.791811669124715
0155,cdot_cos,S,R-S,193,38,30896,-0.00029010481199961236,-0.0012524450082663414,-0.2617614221681947,0.001474649197690728,799.0,5.833506101814757,0.6034601497465207,8.383541290365716,-0.030639433242926475,0.049,0.9999999999992908,77808.8860430589,0.9586670597928664,193,2026-10-07 20:01:46.980243,24.9,0.011664276690384162,0.3098139404917559,0.3108940816136527
0155,cdot_cos,T,S-T,194,38,31105,-0.30535839421459016,-0.056487270556120614,-0.30506828940259056,0.0005021043273048433,799.0,5.8486340579838805,0.6034607465561495,8.405240569147972,-0.030505800330464843,0.209,0.9999999999992714,223.91212546111458,0.9636344103775842,194,2026-10-07 20:01:47.189243,24.9,0.995629006827695,0.23811455273874904,0.07238256540250289
0155,cdot_cos,P,T-P,195,39,31524,0.03823280937853208,0.00464458205795525,0.34359120359312223,0.9998075383124346,779.0,5.9330379848595545,0.6046485215401471,8.44346220415191,-0.17147482701544303,0.419,0.9999999999992701,-118.68327636478676,0.9686020215243601,195,2026-10-07 20:01:47.608243,24.9,0.43950881706271405,0.13585714004517876,0.20144135292523627
0155,cdot_cos,Q,P-Q,196,39,31636,-0.016219132385725643,-0.02063131825194184,-0.05445194176425772,0.20491506814175994,779.0,5.96248234134174,0.6048918094334697,8.468490714789242,-0.060384255959878466,0.112,0.9999999999992497,456.62186284091155,0.973569254604923,196,2026-10-07 20:01:47.720243,24.9,0.15886072343524985,0.5081674808060297,0.26289604001951605
0155,cdot_cos,R,Q-R,197,39,31666,0.1799479464491647,0.4131327594328119,0.19616707883489035,0.9924943128531633,779.0,6.046867500560105,0.6060694232774281,8.506595166731506,-0.17453079094491059,0.03,0.9999999999992475,-96.93036097583615,0.9785363857552886,197,2026-10-07 20:01:47.750243,24.9,0.5199516421140791,1.6748855811753227,2.8128386406121626
0155,cdot_cos,S,R-S,198,39,31714,-0.00013859188438663562,-0.005206454716897756,-0.18008653833355134,0.011160461043123527,779.0,6.06297547621226,0.6060826584065498,8.528344409042989,-0.033593942199800234,0.048,0.9999999999992265,10648.69465559631,0.9835035406006231,198,2026-10-07 20:01:47.798244,24.9,0.015066139830413605,0.3450633074399874,0.33558282608655193
0155,cdot_cos,T,S-T,199,39,31924,-0.1478602572496774,-0.0052779769487834105,-0.14772166536529077,0.02464399042888286,779.0,6.079993578074344,0.6061118830273186,8.550265780139771,-0.035588215578831045,0.21,0.9999999999992059,-68.23949555458809,0.9884709026777534,199,2026-10-07 20:01:48.008243,24.9,0.9455037120864831,0.2420298854404688,0.08103858029563953
0155,cdot_cos,P,T-P,200,40,32303,0.028028331047331666,0.00210423749874794,0.17588858829700907,0.9876250132730225,720.0,6.1646280280972565,0.6072824530798204,8.58827642027487,-0.17828220643208137,0.379,0.9999999999992033,-121.9012826684475,0.9934384855345895,200,2026-10-07 20:01:48.387244,24.9,0.44915704611070284,0.1468847013116908,0.22330989451955827
0155,cdot_cos,Q,P-Q,201,40,32413,-0.03838362716227328,-0.045499098855656006,-0.06641195820960495,0.16061520553142225,720.0,6.1913321816686055,0.6074727041195401,8.612417864387112,-0.056753993129274066,0.11,0.9999999999991811,638.7781821421605,0.9984057203778126,201,2026-10-07 20:01:48.497243,24.9,0.11750015300622849,0.5099337565275132,0.2427650324668094
0155,cdot_cos,R,Q-R,202,40,32441,0.16033274463983352,0.4167707198136705,0.1987163718021068,0.9929526943538962,720.0,6.276813454533309,0.6086481447501888,8.650521406655837,-0.18312639833615185,0.028,0.9999999999991782,-107.51066613814314,1.0033728481737594,202,2026-10-07 20:01:48.525243,24.9,0.5015344650013788,1.9045017264239477,3.0529026023108523
0155,cdot_cos,S,R-S,203,40,32494,0.06218248936795262,-0.1033007160707405,-0.0981502552718809,0.07988273652790645,720.0,6.297984278348347,0.6087426540270773,8.673253695057676,-0.04573824570694173,0.053,0.9999999999991576,1453.7001779341845,1.0083400102150721,203,2026-10-07 20:01:48.578244,24.9,0.049598659241468016,0.3555763483321713,0.3994495059440983
0155,cdot_cos,T,S-T,204,40,32703,-0.1073228167157067,-0.02776598323921373,-0.16950530608365932,0.014475989332010698,720.0,6.31450454745652,0.6087597796994407,8.694834760283143,-0.03579743349714423,0.209,0.9999999999991351,580.462594333741,1.0133073818063425,204,2026-10-07 20:01:48.787244,24.9,0.7575269029690632,0.24357987363581643,0.07904434979987056
0155,cdot_cos,P,T-P,205,41,33023,0.05326413949072365,0.0005935995591739888,0.16058695620643035,0.9819893145576681,719.0,6.399800665528118,0.6099208848510907,8.732744200802346,-0.18611976925028284,0.32,0.9999999999991322,-129.46487709534213,1.018274906292644,205,2026-10-07 20:01:49.107244,24.9,0.44589823354147085,0.17440295578702858,0.26655036897374473
0155,cdot_cos,Q,P-Q,206,41,33127,-0.016236278589380954,-0.01945098567153099,-0.0695004180801046,0.15051591117514312,719.0,6.426122439160218,0.6100987453232184,8.756570663194553,-0.0579299317804745,0.104,0.9999999999991094,720.7325828855937,1.0232421377160927,206,2026-10-07 20:01:49.211244,24.9,0.10938922487718902,0.5437544331355605,0.25309397723173055
0155,cdot_cos,R,Q-R,207,41,33154,0.20851010860322303,0.47123883125027183,0.22474638719260398,0.9963017301118663,719.0,6.5129015876203145,0.6112753071003937,8.794726566168462,-0.1924599105945735,0.027,0.9999999999991065,-114.34161930458173,1.0282092637244327,207,2026-10-07 20:01:49.238244,24.9,0.4970808427013973,1.905378143694551,3.2140425355591336
0155,cdot_cos,S,R-S,208,41,33213,0.0002454866666334692,-0.002658447524983997,-0.20826462193658957,0.0055643839066512575,719.0,6.529012858919724,0.6112818746183133,8.816038981759606,-0.03601571216236048,0.059,0.9999999999990827,23820.901647654395,1.033176435369106,208,2026-10-07 20:01:49.297244,24.9,0.012987390652555834,0.27025525840741305,0.27307239490523977
0155,cdot_cos,T,S-T,209,41,33404,-0.26268839074910655,-0.1618386463222347,-0.26293387741574004,0.0014322812078080623,719.0,6.544791708112389,0.6112835651012629,8.837230429297506,-0.035358796830703136,0.191,0.9999999999990591,388.5962480743726,1.0381437924839363,209,2026-10-07 20:01:49.488243,24.9,0.9815929630829899,0.2705942570127425,0.0826117758778303
0155,cdot_cos,P,T-P,210,42,33742,0.047513626163320916,-0.001265900390826132,0.31020201691242744,0.9995581199968273,720.0,6.632379865098591,0.6124626618130987,8.875433753961,-0.19760828448811538,0.338,0.9999999999990571,-137.6049021498811,1.0431113604758682,210,2026-10-07 20:01:49.826244,24.9,0.4399623066742224,0.1695067929394042,0.2591365591307752
0155,cdot_cos,Q,P-Q,211,42,33835,-0.020420348025324445,-0.021810802965430167,-0.06793397418864536,0.1555713261817194,720.0,6.659378300139426,0.6126460585041967,8.899204878756764,-0.06143036670022499,0.093,0.9999999999990326,742.532032462415,1.0480785804043895,211,2026-10-07 20:01:49.919244,24.9,0.10895884486135071,0.6178150444978797,0.2903057531272603
0155,cdot_cos,R,Q-R,212,42,33865,0.22268389282643047,0.43732276304804363,0.24310424085175492,0.9976554058074251,720.0,6.747293463375197,0.6138213929568324,8.937381281280246,-0.20153912866181312,0.03,0.9999999999990302,-119.20756823506862,1.0530457102811757,212,2026-10-07 20:01:49.949243,24.9,0.49897771380623357,1.7348311413565447,2.9305054411923477
0155,cdot_cos,S,R-S,213,42,33914,-0.0003075371643154431,-0.0041824757905168245,-0.22299142999074592,0.0038628234075699973,720.0,6.763468168620819,0.61382594116855,8.95850158427213,-0.03736707314061102,0.049,0.9999999999990055,36095.95720502432,1.0580128687904797,213,2026-10-07 20:01:49.998244,24.9,0.012357462167293306,0.3290623275905999,0.33009602542086236
0155,cdot_cos,T,S-T,214,42,34122,-0.23399216690791247,-0.0253917041449695,-0.23368462974359702,0.002962522433663213,720.0,6.779541571479076,0.6138294293236708,8.979557343441538,-0.03722154890969053,0.208,0.9999999999989801,41.719541099245184,1.0629802609295569,214,2026-10-07 20:01:50.206244,24.9,0.9960979559103307,0.2515418056247682,0.0772759752800795
0155,cdot_cos,P,T-P,215,43,34462,0.036326516850915536,0.0003813234335303556,0.270318683758828,0.9988080062222515,719.0,6.868109559760723,0.6150047851063322,9.017747403645748,-0.20644905285646525,0.34,0.9999999999989784,-143.97981142662292,1.067947851344192,215,2026-10-07 20:01:50.546243,24.9,0.4405612103288292,0.17268817612077997,0.2604940831813148
0155,cdot_cos,Q,P-Q,216,43,34568,-0.0254540837225823,-0.030857639402710888,-0.06178060057349784,0.1767771627505625,719.0,6.896969531241206,0.6152126698595982,9.04175011028965,-0.06783675914666432,0.106,0.999999999998953,666.7746986350851,1.0729150944780736,216,2026-10-07 20:01:50.652243,24.9,0.12959756515283075,0.5545134432613602,0.2722638818913525
0155,cdot_cos,R,Q-R,217,43,34596,0.1814871555296368,0.4190226705288812,0.20694123925221908,0.994250274567138,719.0,6.985666409732131,0.6163810935900115,9.079867926682192,-0.2100264293309957,0.028,0.9999999999989505,-121.69358297271175,1.0778822208401295,217,2026-10-07 20:01:50.680243,24.9,0.5081348248594098,1.925299067899701,3.1677456603901786
0155,cdot_cos,S,R-S,218,43,34651,0.0553797150103698,-0.09891566322688398,-0.12610744051926698,0.04148412626538099,719.0,7.004786279043589,0.6164298158447116,9.101484599918662,-0.04562361286168119,0.055,0.9999999999989256,3374.2858880665185,1.0828493893839486,218,2026-10-07 20:01:50.735244,24.9,0.02722937410256778,0.3398577967321227,0.3476339874810593
0155,cdot_cos,T,S-T,219,43,34861,-0.0840059800355232,-0.017363758559081736,-0.139385695045893,0.03015738979596581,719.0,7.0230507673726645,0.6164652336125432,9.122859831142833,-0.04369744718931385,0.21,0.9999999999988994,54.38416338155116,1.0878167961343443,219,2026-10-07 20:01:50.945244,24.9,0.9568777939935675,0.24753019889678904,0.08697375394797731
0155,cdot_cos,P,T-P,220,44,35181,0.03082710226366461,-0.002055370301560889,0.11483308229918782,0.9457996682026794,699.0,7.108748962580241,0.6175753810569438,9.160130852904887,-0.2063238008249019,0.32,0.9999999999988958,-146.49076972240027,1.0927843758729467,220,2026-10-07 20:01:51.265243,24.9,0.45465819015743963,0.17701228979001699,0.2678068600236755
0155,cdot_cos,Q,P-Q,221,44,35275,-0.03726039631043009,-0.03878281288369556,-0.0680874985740947,0.15506979577646207,699.0,7.136338632838275,0.6177572800171769,9.18363010848302,-0.06694423398131757,0.094,0.9999999999988697,766.2471883563818,1.09775160483522,221,2026-10-07 20:01:51.359244,24.9,0.12467748805179303,0.6249852016954546,0.2935071304046246
0155,cdot_cos,R,Q-R,222,44,35304,0.19471511539192884,0.40502224521072583,0.23197551170235894,0.9969090783064478,699.0,7.226246180498986,0.6189258779836613,9.221795861779377,-0.21969552356948127,0.029,0.999999999998867,-130.71329402335107,1.1027187323275565,222,2026-10-07 20:01:51.388243,24.9,0.4989315791555346,1.8806036105384605,3.100260264162439
0155,cdot_cos,S,R-S,223,44,35352,0.06627764822667415,-0.12080675299256696,-0.1284374671652547,0.03923755222846952,699.0,7.245413642249506,0.6189718450167072,9.243228760834349,-0.047190591490885496,0.048,0.9999999999988402,3752.7967468818615,1.1076858910121148,223,2026-10-07 20:01:51.436243,24.9,0.025848720661538798,0.38219937951401256,0.3993221198024995
0155,cdot_cos,T,S-T,224,44,35560,-0.09562668981220007,-0.022153047492699893,-0.16190433803887422,0.01743960545036018,699.0,7.262937320932331,0.6189922749372037,9.264236084216062,-0.043252067318183304,0.208,0.9999999999988131,192.7821585692157,1.1126533062436206,224,2026-10-07 20:01:51.644243,24.9,0.9129631230831438,0.25465838945908414,0.08424845520589053
0155,cdot_cos,P,T-P,225,45,35880,0.04301852310865064,-0.000880293645954129,0.13864521292085072,0.9692986398985882,718.0,7.351351532264485,0.620127112157705,9.30191486816073,-0.21956500779047958,0.32,0.9999999999988103,-155.36407978794193,1.117620905133224,225,2026-10-07 20:01:51.964243,24.9,0.4479784284885183,0.18373815330151172,0.27629441041298053
0155,cdot_cos,Q,P-Q,226,45,35975,-0.020037482265015356,-0.02222032216459223,-0.063056005373666,0.1722029156102683,718.0,7.380529739045299,0.6203285872688323,9.325591979220262,-0.07302825690403737,0.095,0.9999999999987826,727.3193699534837,1.122588139796332,226,2026-10-07 20:01:52.059244,24.9,0.13444823221109373,0.6321473516711394,0.3071390187454077
0155,cdot_cos,R,Q-R,227,45,36005,0.21422229531965573,0.4404629898816369,0.2342597775846711,0.9970794790056529,718.0,7.471459529082002,0.6214943398388888,9.363764926829965,-0.22916310893100317,0.03,0.9999999999987806,-133.93481261585637,1.1275552686055013,227,2026-10-07 20:01:52.089243,24.9,0.5059455140183725,1.7964556176917799,3.0309930012234254
0155,cdot_cos,S,R-S,228,45,36052,0.006089410569713837,-0.030298577031395726,-0.20813288474994188,0.005582564415780743,718.0,7.488317076106806,0.6215008628537884,9.384465782526448,-0.04279279515013297,0.047,0.9999999999987521,28571.192408801944,1.1325224265642753,228,2026-10-07 20:01:52.136243,24.9,0.012840131694046136,0.35837881732828625,0.35867121329370255
0155,cdot_cos,T,S-T,229,45,36261,-0.20141163170561588,-0.020630065074418828,-0.20750104227532973,0.005670586778917449,718.0,7.5051471379108605,0.6215074886744837,9.405123511777468,-0.042818938049434256,0.209,0.9999999999987232,-3.9456092314303763,1.137489855171528,229,2026-10-07 20:01:52.345243,24.9,0.9993896410933044,0.2592416012763287,0.08052661150265496
0155,cdot_cos,P,T-P,230,46,36598,0.04390415087285031,-0.0017175308578445201,0.2453157825784662,0.9977807471753447,741.0,7.596680065440311,0.6226726416999097,9.44330693044823,-0.23427678582469239,0.337,0.9999999999987212,-164.3199164378112,1.1424575021540493,230,2026-10-07 20:01:52.682244,24.9,0.4416536617440405,0.18012529781094616,0.2716110609182508
0155,cdot_cos,Q,P-Q,231,46,36690,-0.017774167648615245,-0.0175742854399312,-0.061678318521465554,0.17714809942015025,741.0,7.626551588635438,0.6228793577545138,9.466955706416805,-0.07705359211252792,0.092,0.999999999998693,760.5756312120043,1.1474247357366159,231,2026-10-07 20:01:52.774244,24.9,0.12997157455316719,0.6625491368050265,0.3246904695122522
0155,cdot_cos,R,Q-R,232,46,36719,0.2446199304952922,0.42236374816582833,0.26239409814390746,0.9985483663942066,741.0,7.718589106612436,0.6240437368064156,9.505160161837498,-0.23901900973329634,0.029,0.999999999998691,-139.10025034908202,1.1523918624145268,232,2026-10-07 20:01:52.803244,24.9,0.5078212952915749,1.876289240246723,3.173707516448195
0155,cdot_cos,S,R-S,233,46,36771,-0.00021345949970887236,-0.001966243010640523,-0.2448333899950011,0.0022460100523869937,741.0,7.735376364569748,0.6240463542057182,9.525663337518443,-0.0439051427024643,0.052,0.9999999999986604,74544.93734863054,1.1573590298560343,233,2026-10-07 20:01:52.855244,24.9,0.011749006124672775,0.3218149267268847,0.32283188379446703
0155,cdot_cos,T,S-T,234,46,36979,-0.2666789664875572,-0.10362287582734808,-0.2664655069878483,0.0013118671484417701,741.0,7.752057858992032,0.6240478829934583,9.54610619115182,-0.04372294635874608,0.208,0.9999999999986294,119.17700472276682,1.1623264686986656,234,2026-10-07 20:01:53.063244,24.9,0.9958416055268539,0.26280977075377765,0.08019949241482562
0155,cdot_cos,P,T-P,235,47,37339,0.03201153228369928,0.0015803228754145578,0.2986904987712565,0.9994115285020453,759.0,7.84470522920332,0.6252118296858941,9.58432524301041,-0.2442445842763985,0.36,0.9999999999986274,-172.27733814683464,1.1672941769906837,235,2026-10-07 20:01:53.423244,24.9,0.4399971459747422,0.1722233029083463,0.25735380614246606
0155,cdot_cos,Q,P-Q,236,47,37448,-0.025607340601608877,-0.030208051023622236,-0.05761887288530816,0.19236588244105632,759.0,7.876058637086041,0.6254356995603113,9.60813527138976,-0.08329364187684733,0.109,0.999999999998598,718.9486429048105,1.1722614444562438,236,2026-10-07 20:01:53.532243,24.9,0.14481015453329057,0.5690265342181997,0.2876459438781795
0155,cdot_cos,R,Q-R,237,47,37476,0.18102459285870945,0.3924157945145471,0.20663193346031833,0.9942060784211755,759.0,7.968753013662887,0.6265918708402936,9.64626906751782,-0.24788673684553977,0.028,0.9999999999985956,-142.36047704905826,1.1772285685317851,237,2026-10-07 20:01:53.560243,24.9,0.5147957387919267,1.9966318735073723,3.3105134491730706
0155,cdot_cos,S,R-S,238,47,37529,0.04185506718084623,-0.09553199083488588,-0.13916952567786323,0.03031521893003053,759.0,7.987870022002454,0.6266271020445959,9.66714193385381,-0.05148223429738059,0.053,0.9999999999985641,5574.731447227498,1.1821957386466284,238,2026-10-07 20:01:53.613244,24.9,0.022037809182948502,0.3581761007217626,0.3606982705578654
0155,cdot_cos,T,S-T,239,47,37738,-0.10185256982749967,-0.006743197616194719,-0.1437076370083459,0.027164073685275295,759.0,8.006719680339394,0.6266586699654337,9.687917812825063,-0.050881302428617284,0.209,0.999999999998533,19.036156098175496,1.1871631914539138,239,2026-10-07 20:01:53.822243,24.9,0.9882590042528828,0.2624768514486777,0.09018975280832521
0155,cdot_cos,P,T-P,240,48,38098,0.029454650510964492,-0.0007481561188496252,0.13130722033846415,0.9633692874962065,759.0,8.097585345908001,0.6277775215623238,9.725497621416784,-0.2466575699009535,0.36,0.999999999998529,-174.97965594052943,1.1921309228662245,240,2026-10-07 20:01:54.182244,24.9,0.45216105685444496,0.1711668456870023,0.2524046265794648
0155,cdot_cos,Q,P-Q,241,48,38194,-0.02590050872809603,-0.026375360609766085,-0.05535515923906052,0.20127517829608352,759.0,8.129959809234036,0.6280111090629853,9.74936462464384,-0.08853135066263543,0.096,0.9999999999984978,676.946406766302,1.1970981712759257,241,2026-10-07 20:01:54.278244,24.9,0.16761187797772206,0.6577796937284885,0.3372339929795243
0155,cdot_cos,R,Q-R,242,48,38224,0.21295942761511585,0.3816558454443032,0.2388599363432119,0.9973947355146315,759.0,8.223879047103871,0.629167739657649,9.787563585783543,-0.25850116474242546,0.03,0.9999999999984949,-146.95254895034327,1.2020652983050237,242,2026-10-07 20:01:54.308243,24.9,0.5181344594988025,1.856284577453297,3.130641262327849
0155,cdot_cos,S,R-S,243,48,38270,0.009386250691410877,-0.05046089865676525,-0.20357317692370497,0.006249578271732361,759.0,8.241336883881234,0.6291749823403516,9.807877870404093,-0.048377438025694906,0.046,0.9999999999984609,29011.864159380195,1.2070324562614447,243,2026-10-07 20:01:54.354244,24.9,0.012991967103224422,0.38395325104410305,0.37951819081222493
0155,cdot_cos,T,S-T,244,48,38480,-0.16798656785694438,0.0046676210162230605,-0.17737281854835527,0.01193134537255371,759.0,8.259202746199929,0.6291888095038678,9.828253967118368,-0.04961357002950004,0.21,0.9999999999984271,-89.39881287726382,1.2119999231921255,244,2026-10-07 20:01:54.564243,24.9,0.9753926221340863,0.2668481582033065,0.08507553485092922
0155,cdot_cos,P,T-P,245,49,38857,0.039060534680380475,-0.0016482256396568521,0.20704710253732486,0.9942653240591179,742.0,8.353413110326622,0.6303403116924112,9.86639728839615,-0.26306201868181067,0.377,0.9999999999984249,-185.36521317628421,1.21696771019095,245,2026-10-07 20:01:54.941243,24.9,0.4442358244806025,0.16672958696348608,0.2498948650575427
0155,cdot_cos,Q,P-Q,246,49,38950,-0.020289920982312172,-0.0202388211541231,-0.05935045566269265,0.18575596140494116,742.0,8.384916854770397,0.630555279889124,9.889884329310423,-0.08861175027935907,0.093,0.9999999999983911,811.5166386010507,1.221934956878044,246,2026-10-07 20:01:55.034244,24.9,0.1396377706415705,0.6799721484265124,0.33874994025564414
0155,cdot_cos,R,Q-R,247,49,38980,0.24007187364673643,0.42246594987410796,0.2603617946290486,0.9984731320314423,742.0,8.479887929933954,0.6317098851862372,9.928111431372239,-0.26879715119721137,0.03,0.999999999998388,-156.0580064619146,1.2269020831596922,247,2026-10-07 20:01:55.064243,24.9,0.5115347813817075,1.8719122262988996,3.1657025054518804
0155,cdot_cos,S,R-S,248,49,39030,-0.0005073062046565215,-0.004327343488291509,-0.24057917985139296,0.002496361366344488,742.0,8.497231588348331,0.6317127700214688,9.948233943747958,-0.04941463290738092,0.05,0.9999999999983517,76046.8105379982,1.2318692493711239,248,2026-10-07 20:01:55.114244,24.9,0.011800344039966854,0.351777716343431,0.34687316828755144
0155,cdot_cos,T,S-T,249,49,39237,-0.18850636130016438,0.003124231445098846,-0.18799905509550785,0.009182994857529266,742.0,8.515065701568297,0.6317233819565149,9.968438158240254,-0.0509166837448843,0.207,0.9999999999983156,-141.5435385697146,1.2368367228105488,249,2026-10-07 20:01:55.321243,24.9,0.9709307123695187,0.2733289405888349,0.08615513632833591
0155,cdot_cos,P,T-P,250,50,39599,0.03552835054563933,6.061273880275631e-07,0.2240347118458037,0.9962358588888338,757.0,8.610389769752109,0.6328738801066146,10.00662621200507,-0.27360334392040186,0.362,0.9999999999983136,-193.55673032261546,1.2418045048933206,250,2026-10-07 20:01:55.683244,24.9,0.44312504321802765,0.17614136912152814,0.2633261552039009
0155,cdot_cos,Q,P-Q,251,50,39702,-0.022555772176433085,-0.024073272244712552,-0.05808412272207242,0.19057247721291795,757.0,8.642592052812283,0.6330937898725424,10.030103913209471,-0.09309327564051872,0.103,0.9999999999982775,820.8369806512408,1.2467717754868444,251,2026-10-07 20:01:55.786243,24.9,0.1438443156766021,0.6214658332609512,0.31264352485606073
0155,cdot_cos,R,Q-R,252,50,39728,0.21161323151449896,0.40167411956984994,0.23416900369093205,0.9970728897181607,757.0,8.738411731403865,0.634243450070482,10.068314694275474,-0.27869032799082116,0.026,0.9999999999982748,-161.43644242266117,1.2517388929833488,252,2026-10-07 20:01:55.812243,24.9,0.5137792480542747,2.184964566141709,3.685372253522373
0155,cdot_cos,S,R-S,253,50,39787,0.006694433107204266,-0.031623496312535304,-0.20491879840729468,0.006044894069366644,757.0,8.756210210251652,0.6342504153986341,10.088382505602427,-0.05210466206557361,0.059,0.9999999999982369,32530.508394721754,1.25670607826194,253,2026-10-07 20:01:55.871244,24.9,0.012924068159374814,0.30032631838884594,0.30166913301334203
0155,cdot_cos,T,S-T,254,50,39977,-0.21059815127454076,0.002916357247185133,-0.21729258438174504,0.004449140185695691,757.0,8.773850236973749,0.6342555419573748,10.108382090095704,-0.05174509788293489,0.19,0.9999999999981983,70.13753295928231,1.261673529581365,254,2026-10-07 20:01:56.061243,24.9,0.9930753284161731,0.3000368620470449,0.09284224590577177
0155,cdot_cos,P,T-P,255,51,40356,0.029548160172314788,0.002013608308098955,0.24014631144685555,0.997476654527638,719.0,8.870224217829529,0.6354041229423697,10.146602481107848,-0.28416113798982273,0.379,0.9999999999981959,-202.3505901135164,1.2666413705888921,255,2026-10-07 20:01:56.440243,24.9,0.4413565304672018,0.1671453431260184,0.25428490990971087
0155,cdot_cos,Q,P-Q,256,51,40465,-0.036193152562842994,-0.04235952268384748,-0.06574131273515778,0.16287931946701517,719.0,8.90054640706327,0.6355915303120849,10.169477267589112,-0.09002803029758144,0.109,0.9999999999981573,1035.8883323917835,1.2716086581930448,256,2026-10-07 20:01:56.549243,24.9,0.11574532963825708,0.581495927267476,0.2781852223279039
0155,cdot_cos,R,Q-R,257,51,40493,0.16313473098548978,0.4167876944651445,0.19932788354833278,0.9930584490937103,719.0,8.996990329973839,0.6367332425554768,10.207623284188896,-0.28800200808500837,0.028,0.9999999999981534,-173.40094137842638,1.2765757787047332,257,2026-10-07 20:01:56.577244,24.9,0.502879423589183,2.1615069177186426,3.4444258182345804
0155,cdot_cos,S,R-S,258,51,40547,0.06980458520941295,-0.10853713088266118,-0.09333014577607683,0.08916114607500596,719.0,9.021590794455514,0.63683567535752,10.229108492563654,-0.0739501201578856,0.054,0.9999999999981166,2089.681075374414,1.2815429548295532,258,2026-10-07 20:01:56.631244,24.9,0.05532423872789734,0.4013825792347913,0.45556415706806935
0155,cdot_cos,T,S-T,259,51,40756,-0.09552472874426335,-0.024492351611061496,-0.16532931395367628,0.016036839437169808,719.0,9.040339648531196,0.6368540979669653,10.249209680354786,-0.05649428347194826,0.209,0.9999999999980768,947.5224852196509,1.2865104578056676,259,2026-10-07 20:01:56.840243,24.9,0.7341924260201314,0.2732877406109676,0.08970743576881206
0155,cdot_cos,P,T-P,260,52,41075,0.050759231133994734,-0.0014262459421244928,0.1462839598782581,0.9744807227761205,721.0,9.135825070030899,0.6379727948862334,10.28701539726478,-0.2891524540785832,0.319,0.9999999999980722,-207.97247815687697,1.2914781973604808,260,2026-10-07 20:01:57.159244,24.9,0.44725735263353433,0.19656161680902148,0.29932734012446
0155,cdot_cos,Q,P-Q,261,52,41167,-0.01762164626273173,-0.01836386701889331,-0.06838087739672646,0.1541150641914021,721.0,9.165745960055352,0.6381495813888786,10.309635583625159,-0.09121343480815179,0.092,0.9999999999980327,1119.650065523934,1.2964454541382961,261,2026-10-07 20:01:57.251244,24.9,0.11417027463379283,0.6941680977709795,0.3252270654831845
0155,cdot_cos,R,Q-R,262,52,41198,0.23844197952699203,0.4505061494475919,0.25606362578972375,0.9983009479129329,721.0,9.26355200002076,0.6392938323569852,10.347888336923798,-0.29982837381745253,0.031,0.9999999999980295,-182.31571991106608,1.3014125806719452,262,2026-10-07 20:01:57.282243,24.9,0.49868473444868816,1.8657992076829348,3.155033547271202
0155,cdot_cos,S,R-S,263,52,41246,-3.796982384390285e-05,-0.0005340163077499106,-0.23847994935083594,0.0026299665019486477,721.0,9.281425510931694,0.639296844738987,10.367666251324161,-0.05513574169107456,0.048,0.9999999999979879,81228.95170189245,1.306379745150533,263,2026-10-07 20:01:57.330244,24.9,0.011819508878906156,0.3702112850993422,0.37236481064447285
0155,cdot_cos,T,S-T,264,52,41455,-0.3075283019058635,-0.1529747304093818,-0.3074903320820196,0.0004727319119375733,721.0,9.299092283390296,0.6392973862082585,10.38736675580051,-0.05460240710003362,0.209,0.9999999999979459,984.9766534910686,1.3113472610348256,264,2026-10-07 20:01:57.539244,24.9,0.9902799459023992,0.2777662769390582,0.08453001176364668
0155,cdot_cos,P,T-P,265,53,41796,0.034977566630635885,0.0025207925892993,0.3425058685364994,0.9998022671891867,760.0,9.39753181469222,0.640441769869996,10.425650641788163,-0.3057213624933584,0.341,0.9999999999979429,-219.43598444253334,1.3163150702176425,265,2026-10-07 20:01:57.880243,24.9,0.43981630415306733,0.19596153626051524,0.28867897742499754
0155,cdot_cos,Q,P-Q,266,53,41905,-0.016819973216759137,-0.020852494570892534,-0.05179753984739502,0.21589364900753372,760.0,9.432738051119967,0.6406886748447386,10.449330476792996,-0.11008760117610279,0.109,0.9999999999979038,792.34434835199,1.3212823689438902,266,2026-10-07 20:01:57.989243,24.9,0.16913238567697444,0.6132061018608818,0.32299299474997456
0155,cdot_cos,R,Q-R,267,53,41933,0.19578567223278723,0.4341776816406393,0.21260564544954635,0.9950028635250032,760.0,9.531210744897892,0.6418256371403341,10.487531848149969,-0.30967083306167315,0.028,0.9999999999978997,-175.54076565135702,1.3262494881767648,267,2026-10-07 20:01:58.017244,24.9,0.5249242948698889,2.08787464144633,3.5168819206401785
0155,cdot_cos,S,R-S,268,53,41987,1.3699679309595302e-05,-0.0032940747256206718,-0.19577197255347764,0.007579331188968457,760.0,9.549659031040962,0.6418342917335095,10.507294733986859,-0.058372143413853154,0.054,0.999999999997856,29036.453193881796,1.3312166670008578,268,2026-10-07 20:01:58.071244,24.9,0.013499356281693894,0.33759047099535666,0.34163492857536076
0155,cdot_cos,T,S-T,269,53,42194,-0.23899930721799204,-0.009977403868086076,-0.23901300689730162,0.002595379254604663,760.0,9.567670515765391,0.6418372552919048,10.526928273921277,-0.05709875120004152,0.207,0.9999999999978123,429.6835236344959,1.3361841916892563,269,2026-10-07 20:01:58.278244,24.9,0.9779452644795597,0.2833492242007212,0.0870120034996572
0155,cdot_cos,P,T-P,270,54,42556,0.033685531827949124,-0.0012667698911554334,0.27268483904594115,0.9988761297773834,741.0,9.66696560986006,0.642977024947605,10.565205458258639,-0.31626237482436487,0.362,0.999999999997809,-227.3824560324131,1.3411520724638484,270,2026-10-07 20:01:58.640243,24.9,0.4406705857740685,0.1826254615105607,0.27429584004052354
0155,cdot_cos,Q,P-Q,271,54,42651,-0.026156293026895476,-0.02690338604709987,-0.0598418248548446,0.18391250595819106,741.0,9.699891349899037,0.6431867028510491,10.58820477595293,-0.10556430435879133,0.095,0.9999999999977663,1004.8654007158399,1.3461193443010067,271,2026-10-07 20:01:58.735244,24.9,0.13588836789675957,0.6973579923299242,0.3465867372523833
0155,cdot_cos,R,Q-R,272,54,42681,0.20999240276781372,0.386751414729675,0.2361486957947092,0.9972132887076739,741.0,9.799463628402746,0.6443226650499013,10.626457052233576,-0.32096850064038174,0.03,0.9999999999977622,-189.62267978567266,1.351086467258714,272,2026-10-07 20:01:58.765243,24.9,0.5111424477713521,1.9828367565291198,3.31907595012364
0155,cdot_cos,S,R-S,273,54,42727,0.04720792659065482,-0.10865135555587378,-0.1627844761771589,0.017068018783613095,741.0,9.818861555290784,0.6443420937584101,10.646294062699033,-0.06290870204929945,0.046,0.9999999999977173,13282.395918095179,1.3560536285009628,273,2026-10-07 20:01:58.811244,24.9,0.016537380401912476,0.4395634577780404,0.42169406278343446
0155,cdot_cos,T,S-T,274,54,42936,-0.08323294642083112,-0.004788099940905308,-0.13044087301148594,0.037399622509479834,741.0,9.839903466518326,0.6443846644865374,10.666479629997339,-0.06837723915790257,0.209,0.9999999999976728,-128.45768322896498,1.3610211711922238,274,2026-10-07 20:01:59.020243,24.9,0.9231385145443638,0.27781111266881126,0.10067900108871643
0155,cdot_cos,P,T-P,275,55,43297,0.024861238447368633,-0.0011464720711136394,0.10809418486819976,0.9365258984680717,736.0,9.934986600386347,0.6454499343040213,10.703592023845992,-0.3103857780239245,0.361,0.9999999999976668,-227.18050853785778,1.3659890750240533,275,2026-10-07 20:01:59.381243,24.9,0.4585424490772008,0.16979593758826508,0.263388182459893
0155,cdot_cos,Q,P-Q,276,55,43390,-0.05723495019295768,-0.043957947154583406,-0.0820961886403263,0.11464024981569071,736.0,9.962496133457053,0.6455802353221626,10.725200654904715,-0.09034286751297534,0.093,0.9999999999976188,1688.72748386655,1.3709563462805134,276,2026-10-07 20:01:59.474244,24.9,0.08754150021509607,0.6887220488839716,0.29580143086780675
0155,cdot_cos,R,Q-R,277,55,43420,0.20902901659547388,0.3807207627716752,0.26626396678843156,0.9986815415969574,736.0,10.063088901478766,0.6467144292233656,10.76348960857166,-0.33199727176643806,0.03,0.9999999999976148,-213.06269060090614,1.3759234684284116,277,2026-10-07 20:01:59.504243,24.9,0.4829313861804716,1.994292385571169,3.353092267390423
0155,cdot_cos,S,R-S,278,55,43466,0.028610564602272227,-0.08796136788054217,-0.18041845199320164,0.011069620668374813,736.0,10.082153676591323,0.6467269916697342,10.783110232166115,-0.06329656591431457,0.046,0.9999999999975672,21389.20222765617,1.3808906300802355,278,2026-10-07 20:01:59.550244,24.9,0.014334197388778742,0.4205368496362916,0.4144516328816835
0155,cdot_cos,T,S-T,279,55,43676,-0.1316177629836623,-0.0069189183592388934,-0.16022832758593453,0.018169303152507366,736.0,10.101778291645305,0.6467476108073952,10.80283132643762,-0.0652786797444301,0.21,0.9999999999975198,-96.12981215361769,1.385858187844659,279,2026-10-07 20:01:59.760243,24.9,0.9700924745672875,0.28476504908864275,0.09345054787610184
0155,cdot_cos,P,T-P,280,56,44033,0.03705521858102624,-0.0009599036730969174,0.16867298156468852,0.9852253459035141,760.0,10.201754997208553,0.6478648583553515,10.84086929778182,-0.3340475706075792,0.357,0.9999999999975155,-240.5634197674397,1.3908261063508094,280,2026-10-07 20:02:00.117243,24.9,0.4472745425477896,0.18770260236398703,0.2800467942948139
0155,cdot_cos,Q,P-Q,281,56,44127,-0.021117619129915416,-0.020904389025846976,-0.05817283771094166,0.19023196117656072,760.0,10.235797949733191,0.6480803959858781,10.863824306958495,-0.11446500519221256,0.094,0.999999999997469,1018.7667224459366,1.3957933842846322,281,2026-10-07 20:02:00.211244,24.9,0.14685083026189263,0.7207851650818328,0.3621590694110445
0155,cdot_cos,R,Q-R,282,56,44157,0.23396698755899423,0.4043595880342587,0.25508460668890964,0.998259093162482,760.0,10.337262608243938,0.6492104585780452,10.902114829620121,-0.34291770430472956,0.03,0.9999999999974652,-202.15933232018722,1.400760505738604,282,2026-10-07 20:02:00.241244,24.9,0.5136553847876074,2.00074719267563,3.382155283691546
0155,cdot_cos,S,R-S,283,56,44205,0.003475412188311192,-0.0294170281920644,-0.23049157537068304,0.0032068944401095994,760.0,10.35584278129373,0.6492140862024197,10.921488727559273,-0.06316115144574551,0.048,0.999999999997415,77118.39043232321,1.4057276729698833,283,2026-10-07 20:02:00.289243,24.9,0.011923424584315147,0.39421054637354497,0.3870869385373214
0155,cdot_cos,T,S-T,284,56,44413,-0.17452029025849555,0.01325017004893122,-0.17799570244680674,0.011749877734603799,760.0,10.375106820695798,0.6492273774632166,10.940991633540643,-0.06560449278924542,0.208,0.9999999999973649,-183.83066744714458,1.4106952394150092,284,2026-10-07 20:02:00.497243,24.9,0.9634415026633705,0.29078341580727285,0.09261557404840812
0155,cdot_cos,P,T-P,285,57,44793,0.03952521633470798,-0.0005766892914561566,0.21404550659320354,0.9951780013354842,761.0,10.476808682269555,0.6503522639254157,10.979227538864686,-0.3478550279891599,0.38,0.9999999999973611,-250.91468755711313,1.4156632412858419,285,2026-10-07 20:02:00.877243,24.9,0.44423446769044656,0.17864166316867364,0.2676364778256753
0155,cdot_cos,Q,P-Q,286,57,44888,-0.01952504504241607,-0.01972669261197414,-0.05905026137712405,0.18688919231896015,761.0,10.51087448470399,0.6505633256372103,11.002042408357024,-0.11724259974606861,0.095,0.9999999999973125,1092.630332058894,1.4206305259800263,286,2026-10-07 20:02:00.972243,24.9,0.13988034740493135,0.7178041978810474,0.35858739404668794
0155,cdot_cos,R,Q-R,287,57,44918,0.22472554768823363,0.3996265930532488,0.2442505927306497,0.9977212338061298,761.0,10.613191479866954,0.6516890938649157,11.040331754695114,-0.35389697055554364,0.03,0.9999999999973079,-210.21589078938592,1.4255976465048281,287,2026-10-07 20:02:01.002244,24.9,0.5123692125798927,2.018316301379534,3.410566505432122
0155,cdot_cos,S,R-S,288,57,44965,-0.0004768792694037343,-0.0031268513186361,-0.22520242695763737,0.0036566648213484246,761.0,10.631973462786762,0.6516932167195064,11.059619010606312,-0.0653358001918525,0.047,0.9999999999972551,69990.62518788014,1.4305648116999155,288,2026-10-07 20:02:01.049243,24.9,0.012075389225237952,0.41970874472863073,0.3996166578682632
0155,cdot_cos,T,S-T,289,57,45172,-0.14537996687728402,0.006371958026749705,-0.1449030876078803,0.026388427106644827,761.0,10.652644101871445,0.6517229687449422,11.07930889944555,-0.07203641507315507,0.207,0.9999999999972038,-225.21541922484295,1.4355323891284262,289,2026-10-07 20:02:01.256243,24.9,0.9111779638379,0.29588610918093877,0.09985815982938608
0155,cdot_cos,P,T-P,290,58,45554,0.025747103169908636,0.0003903543616735755,0.17112707004719266,0.9860889632924,717.0,10.75447031198767,0.6528338995303832,11.117379431135221,-0.3563704903547305,0.382,0.9999999999971991,-255.94220540814786,1.4405004238393573,290,2026-10-07 20:02:01.638243,24.9,0.45029115862006,0.17294347507606445,0.2665607594665595
0155,cdot_cos,Q,P-Q,291,58,45659,-0.04750697230445979,-0.046378552904479634,-0.07325407547436844,0.13895142845269592,717.0,10.784772916829558,0.652990309248486,11.13919956353972,-0.10668491784112477,0.105,0.9999999999971455,1596.355875722907,1.4454677389411719,291,2026-10-07 20:02:01.743244,24.9,0.09628894267444071,0.6352973889099764,0.2885962365894049
0155,cdot_cos,R,Q-R,292,58,45687,0.18129429211847672,0.4076720452749887,0.22880126442293652,0.9966557117123369,717.0,10.887882763658766,0.654111218219393,11.177476853452228,-0.364707200150292,0.028,0.9999999999971402,-230.19021972889135,1.450434853110903,292,2026-10-07 20:02:01.771244,24.9,0.49288574066774,2.2274240397085636,3.682494529614555
0155,cdot_cos,S,R-S,293,58,45744,0.04840304674960889,-0.0978729043792004,-0.13289124536886784,0.03526399542648457,717.0,10.909508663053238,0.6541508473368762,11.197278332457666,-0.07692859054304807,0.057,0.9999999999970868,7261.797079609916,1.4554020451961442,293,2026-10-07 20:02:01.828243,24.9,0.023733830735537035,0.3682783733884358,0.3794017437626669
0155,cdot_cos,T,S-T,294,58,45951,-0.10663285091529726,-0.021508528284790888,-0.15503589766490614,0.020625339942642845,717.0,10.929866498225048,0.6541740247741918,11.21676748350958,-0.07255497444958536,0.207,0.9999999999970324,188.7014527924714,1.4603696358936438,294,2026-10-07 20:02:02.035244,24.9,0.9415008474439878,0.2952825744470241,0.09834702981550565
0155,cdot_cos,P,T-P,295,59,46271,0.043184802686035,-0.0034275957429221863,0.14981765360133226,0.9765798458601738,701.0,11.031755648874306,0.655270603138651,11.254662045454682,-0.36461567944582884,0.32,0.9999999999970263,-266.3381974896789,1.4653375321234787,295,2026-10-07 20:02:02.355244,24.9,0.44887549456408465,0.21120766724913864,0.3184035957789322
0155,cdot_cos,Q,P-Q,296,59,46362,-0.020256889810285453,-0.021550783447231915,-0.06344169249632045,0.17083823656033714,701.0,11.065039405264496,0.6554622639730258,11.277019554948872,-0.1198092485269105,0.091,0.9999999999969735,1277.2898110226026,1.4703048150411036,296,2026-10-07 20:02:02.446244,24.9,0.12960011415158984,0.7550319385921034,0.3657555647273674
0155,cdot_cos,R,Q-R,297,59,46392,0.23573189448700194,0.46097297781041313,0.2559887842972874,0.9982977840816577,701.0,11.169171461698069,0.6565812265915647,11.315336428057526,-0.37658465017503717,0.03,0.9999999999969689,-229.47630009606982,1.4752719340630067,297,2026-10-07 20:02:02.476243,24.9,0.5056790624742025,2.0526746563275764,3.471068547785746
0155,cdot_cos,S,R-S,298,59,46442,-7.777949108904627e-05,-0.0022501448776173602,-0.235809673978091,0.0028102688974520917,701.0,11.18819988464415,0.6565843740931384,11.334424127716918,-0.06919562965727942,0.05,0.9999999999969115,97661.27619615983,1.480239108754056,298,2026-10-07 20:02:02.526243,24.9,0.01176862220515109,0.37922214306169266,0.38056845892164404
0155,cdot_cos,T,S-T,299,59,46651,-0.25860381209304295,-0.031947379492912056,-0.2585260326019539,0.0015981674375913607,701.0,11.207093676004238,0.6565861640347636,11.353456663681365,-0.06882241821476626,0.209,0.9999999999968544,208.50481226378636,1.4852067188835059,299,2026-10-07 20:02:02.735244,24.9,0.9945918590190375,0.2957168519412266,0.0904009155985027
0155,cdot_cos,P,T-P,300,60,46972,0.045484007958862684,0.001435966196139068,0.30408782005190566,0.9994854929801277,719.0,11.311809528755584,0.6577047108630307,11.391800608816101,-0.3829441891290523,0.321,0.99999999999685,-280.8302370325574,1.4901746411101475,300,2026-10-07 20:02:03.056243,24.9,0.4403079927953647,0.2155631670998929,0.32621760981727616
0155,cdot_cos,Q,P-Q,301,60,47079,-0.017584423135008527,-0.022417489546142217,-0.06306843109387121,0.17215881533884347,719.0,11.34548522928237,0.6578972012669271,11.414111241762415,-0.12387497254531582,0.107,0.9999999999967959,1345.88120415206,1.4951419730370779,301,2026-10-07 20:02:03.163244,24.9,0.1235169875642613,0.6465872851586154,0.3147261731475289
0155,cdot_cos,R,Q-R,302,60,47107,0.19268976886870437,0.472341219520777,0.2102741920037129,0.9947057591741437,719.0,11.450179207779527,0.6590083604237011,11.452365818671403,-0.386858846793783,0.028,0.9999999999967905,-236.67525272614037,1.5001090858482362,302,2026-10-07 20:02:03.191243,24.9,0.5067219538726082,2.2204984990045356,3.7390706606127897
0155,cdot_cos,S,R-S,303,60,47161,0.00030024266217199875,-0.0034595578210183556,-0.19238952620653238,0.008239849602526755,719.0,11.469833145226623,0.6590175576664319,11.471471095401562,-0.07301934534497041,0.054,0.999999999996732,34123.21612431079,1.5050762728911513,303,2026-10-07 20:02:03.245243,24.9,0.013595284777887996,0.3588714459326399,0.3639618045758495
0155,cdot_cos,T,S-T,304,60,47370,-0.2449492735874952,-0.21306171363512547,-0.24524951624966718,0.00222290953799933,719.0,11.488937323940252,0.6590200388366741,11.49042861409121,-0.07109662930753975,0.209,0.9999999999966727,774.9230603687784,1.5100438972107721,304,2026-10-07 20:02:03.454243,24.9,0.9733187048777608,0.2982667985223357,0.09140755365372842
0155,cdot_cos,P,T-P,305,61,47691,0.048432410984352,0.0008364382007314512,0.2933816845718472,0.9993284188849955,718.0,11.59450866700896,0.6601345866040877,11.528776857737473,-0.3943937741966902,0.321,0.9999999999966681,-290.07024583557205,1.515011842962827,305,2026-10-07 20:02:03.775244,24.9,0.44054976456304873,0.21505232247678335,0.328882688687561
0155,cdot_cos,Q,P-Q,306,61,47796,-0.019570149806644857,-0.02371502182993909,-0.06800256079099685,0.15534710549813444,718.0,11.627000914970347,0.6603076859698521,11.550689556463254,-0.12208055416411111,0.105,0.9999999999966109,1573.1612812681137,1.5199791748831004,306,2026-10-07 20:02:03.880243,24.9,0.10746363673402272,0.6573879175495414,0.309449980584646
0155,cdot_cos,R,Q-R,307,61,47822,0.19116130250370725,0.4377783122569731,0.21073145231035212,0.9947653826322967,718.0,11.732560129694363,0.6614151114676496,11.588951591521038,-0.398333096349402,0.026,0.9999999999966062,-249.45474231423225,1.5249462811190146,307,2026-10-07 20:02:03.906244,24.9,0.4998129057882718,2.4167365615899334,4.0599697970775335
0155,cdot_cos,S,R-S,308,61,47880,0.012928869161290964,-0.03932752035793513,-0.17823243334241629,0.011681627344598955,718.0,11.752671216173024,0.6614281056063707,11.60803878272789,-0.07629716959019107,0.058,0.9999999999965454,24783.16829403959,1.5299134811504835,308,2026-10-07 20:02:03.964243,24.9,0.014686729875485624,0.3501893647536361,0.3467428703217356
0155,cdot_cos,T,S-T,309,61,48072,-0.15105521984264542,-0.023489706331143372,-0.16398408900393638,0.01657405500842606,718.0,11.773182096005785,0.6614465414530369,11.627191842077181,-0.07794641867202376,0.192,0.9999999999964849,-89.45881964019576,1.5348810703864728,309,2026-10-07 20:02:04.156243,24.9,0.9790635221821955,0.32787452891968233,0.10682749912896417
0155,cdot_cos,P,T-P,310,62,48409,0.024208362480818896,-0.001336391238414669,0.1752635823234643,0.9874333584199739,700.0,11.878575035278182,0.662544009044352,11.665314045933464,-0.402022784923988,0.337,0.99999999999648,-295.29470283823787,1.5398490867516124,310,2026-10-07 20:02:04.493243,24.9,0.44658995796031814,0.20197208742772196,0.31273869220295814
0155,cdot_cos,Q,P-Q,311,62,48503,-0.05132050096098404,-0.04380151100862799,-0.07552886344180293,0.1323120841964269,700.0,11.90931128293207,0.6626909326277651,11.686705522989229,-0.1178935292364169,0.094,0.9999999999964192,1933.8573773316919,1.5448163918222761,311,2026-10-07 20:02:04.587244,24.9,0.08981083778059487,0.7309610011773128,0.3269813580200821
0155,cdot_cos,R,Q-R,312,62,48533,0.19611560659035512,0.4151588546527591,0.24743610755133916,0.9978946354878788,700.0,12.015995703499517,0.6637980133823395,11.72503437548207,-0.41090231204908406,0.03,0.9999999999964152,-264.66794007753157,1.5497835090164793,312,2026-10-07 20:02:04.617243,24.9,0.49012920675030724,2.1459618066892006,3.5561473522482365
0155,cdot_cos,S,R-S,313,62,48580,0.05948615886316727,-0.11051468429352944,-0.13662944772718785,0.03223073336073649,700.0,12.038068991333422,0.6638337407941827,11.744441527411544,-0.08546993595127016,0.047,0.9999999999963534,9108.758773962178,1.5547506779412892,313,2026-10-07 20:02:04.664243,24.9,0.022202165247568562,0.4504545412563314,0.4696444219979775
0155,cdot_cos,T,S-T,314,62,48791,-0.11771761802856133,-0.026534086130420062,-0.17720377689172861,0.011981068918695735,700.0,12.058338430377612,0.6638470211989087,11.763423002435639,-0.07862189385800986,0.211,0.9999999999962907,515.6501051383938,1.5597183370007481,314,2026-10-07 20:02:04.875243,24.9,0.9165845565348933,0.2983618644834206,0.09606369215256022
0155,cdot_cos,P,T-P,315,63,49109,0.03992519464503362,0.0010807536164404254,0.15764281267359495,0.9806458787943645,760.0,12.163977698145425,0.6649331376375889,11.801416641525833,-0.4112390358452896,0.318,0.9999999999962857,-306.24445974822856,1.5646863212392563,315,2026-10-07 20:02:05.193243,24.9,0.4453846244377178,0.22238690832665498,0.3321989552446959
0155,cdot_cos,Q,P-Q,316,63,49215,-0.019119774148070416,-0.021567832753962488,-0.05904496879310404,0.1869092194596754,760.0,12.199776504073364,0.6651399517579052,11.823811168439237,-0.14013068656989253,0.106,0.999999999996227,1310.8793000243413,1.5696536676034616,316,2026-10-07 20:02:05.299244,24.9,0.14447016972229687,0.675794769236069,0.3377245842258422
0155,cdot_cos,R,Q-R,317,63,49242,0.21540794723354023,0.4313865542177056,0.23452772138161065,0.99709884294179,760.0,12.307246189223472,0.6662421638427642,11.862129377974346,-0.42245836348804866,0.027,0.9999999999962228,-256.14641755108187,1.574620775060094,317,2026-10-07 20:02:05.326244,24.9,0.5125807357115847,2.3570278673231733,3.9803587092632355
0155,cdot_cos,S,R-S,318,63,49299,2.055738218561703e-05,-0.004730334514233094,-0.2153873898513546,0.0046642827782479475,760.0,12.327056008908816,0.6662473155754391,11.88091647444369,-0.07827544608058883,0.057,0.9999999999961567,66809.15705976976,1.5795879755964266,318,2026-10-07 20:02:05.383244,24.9,0.012313317799028996,0.34882625610633683,0.34754069623410544
0155,cdot_cos,T,S-T,319,63,49491,-0.20109152032026725,0.007399840070993723,-0.20111207770245287,0.006641915976425537,760.0,12.347012382419594,0.6662546515492046,11.899713562016363,-0.07898095486120131,0.192,0.9999999999960911,-96.171115542258,1.58455559100699,319,2026-10-07 20:02:05.575244,24.9,0.9911071331846957,0.33323115944625575,0.10393944536863746
0155,cdot_cos,P,T-P,320,64,49869,0.045821622514246686,-0.0008295026258074903,0.24691314283451393,0.9978670993860408,761.0,12.455016774136178,0.6673558766274902,11.938050147802587,-0.42895304571319914,0.378,0.9999999999960879,-317.80250718303984,1.5895237850300907,320,2026-10-07 20:02:05.953243,24.9,0.44225216190243033,0.18880942319257207,0.2857259040121265
0155,cdot_cos,Q,P-Q,321,64,49964,-0.017356061987162233,-0.017379269859186204,-0.06317768450140893,0.17177144781592615,761.0,12.489752306353179,0.6675452560642267,11.960082510979191,-0.13871097270283503,0.095,0.999999999996025,1532.5955025109154,1.594491102545612,321,2026-10-07 20:02:06.048243,24.9,0.12338776609043905,0.7533948083170603,0.36563718123158584
0155,cdot_cos,R,Q-R,322,64,49994,0.23586237978334426,0.4155120738069654,0.2532184417705065,0.9981764396000851,761.0,12.59816178771642,0.6686446810149288,11.998425987420454,-0.4346752503120701,0.03,0.9999999999960202,-269.1991639995241,1.5994582181801233,322,2026-10-07 20:02:06.078244,24.9,0.5061683458190662,2.1367704932115927,3.6136493787746935
0155,cdot_cos,S,R-S,323,64,50041,-0.00014772592263768622,-0.0009061413080407329,-0.23601010570598194,0.0027963176098674647,761.0,12.617958535945874,0.6686477583965489,12.017097930707923,-0.07978182473114644,0.047,0.999999999995952,115323.1771010924,1.604425388452487,323,2026-10-07 20:02:06.125243,24.9,0.011698447004664712,0.4199051838256952,0.4212074091373354
0155,cdot_cos,T,S-T,324,64,50249,-0.2549105243936339,-0.06737064231039414,-0.2547627984709962,0.0017548882281151817,761.0,12.637632874996035,0.668649689665075,12.035720655931556,-0.07941238855150094,0.208,0.9999999999958841,191.29197967688958,1.60939306732694,324,2026-10-07 20:02:06.333244,24.9,0.9953586816092178,0.30918125323459167,0.09458816851038743
0155,cdot_cos,P,T-P,325,65,50630,0.022045715782165225,-0.0001534506907992777,0.2769562401757991,0.9989894105260867,736.0,12.746577937291464,0.6697481623603776,12.074083307316595,-0.4412367996350268,0.381,0.9999999999958803,-329.3886253438912,1.614361299656991,325,2026-10-07 20:02:06.714243,24.9,0.44042143791866795,0.18162660564272268,0.28594504539482823
0155,cdot_cos,Q,P-Q,326,65,50732,-0.06196194972726966,-0.04945741769411761,-0.08400766550943489,0.1098972691694763,736.0,12.77603234849579,0.6698688909029141,12.094825092560512,-0.11992118172085914,0.102,0.9999999999958105,2661.471853823994,1.6193286438875687,326,2026-10-07 20:02:06.816243,24.9,0.06860498882202214,0.6798940631366713,0.2887687372973052
0155,cdot_cos,R,Q-R,327,65,50759,0.19262893470784964,0.3820490300563404,0.2545908844351193,0.9982375968593272,736.0,12.885276326171345,0.6709644862695979,12.133173130162328,-0.44643919612556215,0.027,0.9999999999958046,-298.02792557714395,1.6242957485901015,327,2026-10-07 20:02:06.843244,24.9,0.4812429966753961,2.4698512167218385,4.046073247242808
0155,cdot_cos,S,R-S,328,65,50817,0.07383890413261388,-0.1512468726495964,-0.11879003057523577,0.04936578604998584,736.0,12.909404314198769,0.6710186185960365,12.152691571205885,-0.09910635631996523,0.058,0.9999999999957369,6416.366386906935,1.6292629547739226,328,2026-10-07 20:02:06.901243,24.9,0.030057367943811062,0.400288010727453,0.4159997935762662
0155,cdot_cos,T,S-T,329,65,51008,-0.0667183021518016,-0.006109027837387627,-0.14055720628441548,0.029315803624290374,736.0,12.93170973541573,0.6710507628546222,12.171786003357768,-0.09178048357615785,0.191,0.9999999999956677,227.906104111373,1.6342305926009666,329,2026-10-07 20:02:07.092243,24.9,0.9232829795497776,0.32458663424592066,0.11678231003644558
0155,cdot_cos,P,T-P,330,66,51366,0.02584859851320699,-0.001300710444172779,0.0925669006650086,0.9092833481253049,700.0,13.03339640848071,0.6720469797545358,12.208367594943935,-0.41976778977875373,0.358,0.9999999999956571,-329.232826938639,1.6391987785085735,330,2026-10-07 20:02:07.450243,24.9,0.4577856791404101,0.18804946524665983,0.28404098621502955
0155,cdot_cos,Q,P-Q,331,66,51461,-0.044991932508738494,-0.04262767611368824,-0.07084053102194549,0.14629891509699938,700.0,13.066353152532338,0.6722071215139431,12.229765349942767,-0.1367185287084354,0.095,0.9999999999955882,1767.4918904212245,1.6441661048633052,331,2026-10-07 20:02:07.545243,24.9,0.1261471094613398,0.7525460008258659,0.3469130952802932
0155,cdot_cos,R,Q-R,332,66,51490,0.2000938456022984,0.4302142676820683,0.24508577811103688,0.997768029251974,700.0,13.176380148637625,0.6732982285474388,12.26810637564946,-0.4581534268145945,0.029,0.9999999999955823,-294.59520307219236,1.649133215065757,332,2026-10-07 20:02:07.574244,24.9,0.4957974044030578,2.2558192704328466,3.7940343484581605
0155,cdot_cos,S,R-S,333,66,51539,0.018784414918230238,-0.05721944462025766,-0.18130943068406816,0.010829371424048443,700.0,13.197190670217443,0.6733100607254978,12.286784442538988,-0.08708578200255122,0.049,0.9999999999955088,31360.890865714427,1.6541003927724047,333,2026-10-07 20:02:07.623244,24.9,0.014108976517619123,0.421242013393498,0.42470452203711107
0155,cdot_cos,T,S-T,334,66,51748,-0.17804193031535562,-0.03947369468280217,-0.19682634523358586,0.007384383992312004,700.0,13.217661865950188,0.67331812878161,12.305366711221932,-0.08579880744807795,0.209,0.9999999999954357,159.5148244603155,1.6590681030148,334,2026-10-07 20:02:07.832243,24.9,0.9851120263727473,0.31285432650516193,0.09794830494136059
0155,cdot_cos,P,T-P,335,67,52066,0.041180457400311524,-5.804391938526855e-05,0.21922238771566716,0.9957587098022429,740.0,13.327963778696601,0.6744051373543783,12.343670010585786,-0.46378645436487803,0.318,0.999999999995431,-347.73198334044605,1.6640361818254692,335,2026-10-07 20:02:08.150244,24.9,0.44263771765865995,0.23030930067866662,0.34686136083777774
0155,cdot_cos,Q,P-Q,336,67,52164,-0.02000035285067558,-0.02187395425038415,-0.06118081025098711,0.17896107803848546,740.0,13.36413858118182,0.6746002997687697,12.365657679120707,-0.15289618993593118,0.098,0.9999999999953629,1592.9822624840674,1.6690035234255876,336,2026-10-07 20:02:08.248243,24.9,0.13089731351678588,0.7499456439539244,0.3691306376042719
0155,cdot_cos,R,Q-R,337,67,52194,0.21794659435843788,0.4329832213322631,0.23794694720911347,0.9973349902231096,740.0,13.47495312491157,0.6756868127001847,12.40399109388472,-0.4701302920408603,0.03,0.9999999999953578,-291.9745296466683,1.6739706363902214,337,2026-10-07 20:02:08.278244,24.9,0.5092688983628416,2.187396621138493,3.6938181243250177
0155,cdot_cos,S,R-S,338,67,52253,0.004923405527673349,-0.023473104088012123,-0.21302318883076454,0.00494570686249195,740.0,13.49538237845013,0.6756921959320153,12.422479958738846,-0.0870942869466681,0.059,0.9999999999952822,71153.54068802176,1.6789378493528528,338,2026-10-07 20:02:08.337244,24.9,0.012302578645365221,0.3512770416157891,0.34625853455184863
