record_id,input,event,transition,event_index,k,peak,value_cos,value_sin,value_return,x_input,rr,knowledge,decision,decision_norm,entropy,delta_t,cosine_similarity,delta_h_over_delta_d,frobenius_norm,matrix_size,timestamp,scale,P,zdot,zdot_back
0420,cdot_cos,Q,P-Q,1,0,1485,-0.020732464144882737,-0.012673339418017302,-0.06427279175010205,0.01472403494781919,913.0,7.313636548013799e-05,0.5000182840913618,0.5000182840913618,,,1.0,,0.004967141530112327,1,2026-10-07 23:16:17.569243,65.4,,,
0420,cdot_cos,R,Q-R,2,0,1515,0.0627216030277677,0.0785082060680504,0.08345406717265044,0.9957555772373102,913.0,0.0070982139905293885,0.5012547961774863,0.7088813309587625,-9.085187289371422e-06,,1.0,,0.009934283060224654,2,2026-10-07 23:16:17.599244,65.4,,,
0420,cdot_cos,S,R-S,3,0,1566,-0.0006417719217511106,-0.002131045751177431,-0.06336337494951881,0.015612239089889363,913.0,0.008827818605388067,0.5012741831037798,0.8682323536583311,-4.9674804572732435e-06,0.051,1.0,0.21239606370545241,0.014901424596561904,3,2026-10-07 23:16:17.650244,65.4,0.4365149438400438,0.03034581305030088,0.03391381597762116
0420,cdot_cos,T,S-T,4,0,1795,-0.30338448817357394,0.11845867148010034,-0.3027427162518228,2.519076060306971e-09,913.0,0.010193486921660078,0.5012741831069079,1.0025483662138854,-4.684543615561397e-06,0.229,1.0,90451.41117322865,0.019868566157048843,4,2026-10-07 23:16:17.879244,65.4,0.9413898308096585,0.029859633955747825,0.0059636171016245005
0420,cdot_cos,P,T-P,5,1,2294,0.0396223353463367,0.001936643835797362,0.34300682351991063,0.9999999998190221,998.0,0.02250353095712057,0.5025159500125203,1.1236598240063704,-7.258406833594334e-05,0.499,1.0,-0.054679766720708574,0.024835707827441322,5,2026-10-07 23:16:18.378243,65.4,0.3924051437265428,0.015072304662638576,0.02466942692477053
0420,cdot_cos,Q,P-Q,6,1,2406,-0.006049147099971395,-0.005165952120879346,-0.045671482446308094,0.04802052495513114,998.0,0.025235646974973377,0.5025755796525407,1.231053727333786,-2.3520529893449396e-05,0.112,1.0000000000000002,0.8228045385757407,0.02980284939783977,6,2026-10-07 23:16:18.490243,65.4,0.12418439003280737,0.07885713122040329,0.02439389301654291
0420,cdot_cos,R,Q-R,7,1,2435,0.05540979305936881,0.07078568494680876,0.061458940159340204,0.9823535160634259,998.0,0.04016752835049091,0.5037954017702347,1.3329173447448734,-0.00017610548873696794,0.029,0.9999999999999999,-0.12508787685533268,0.034769990925022524,7,2026-10-07 23:16:18.519244,65.4,0.4204453901849534,0.3106681480094799,0.5148924612247424
0420,cdot_cos,S,R-S,8,1,2465,-0.0023873944073147173,-0.004394124995413973,-0.057797187466683525,0.022314833620844802,998.0,0.04325439955952321,0.5038231103960816,1.4250269515217595,-4.6436330422603314e-05,0.03,1.0,4.679739768795535,0.03973713247239476,8,2026-10-07 23:16:18.549243,65.4,0.061273518920466556,0.09517822225568184,0.10289570696774344
0420,cdot_cos,T,S-T,9,1,2715,-0.2391164243933735,0.1434502505424685,-0.23672902998605877,1.8889420321197422e-07,998.0,0.04587822168583182,0.503823110630634,1.5114693318966022,-4.217258565846085e-05,0.25,1.0,18178.22018781527,0.04470427435232751,9,2026-10-07 23:16:18.799244,65.4,0.9038405790444602,0.04162594531155388,0.01049528850523443
0420,cdot_cos,P,T-P,10,2,3292,0.029384426845905046,0.0009166844984381429,0.2685008512392785,0.9999999763512527,1000.0,0.06406737221530015,0.5050647972506866,1.597155125300623,-0.0003606037460391835,0.577,1.0000000000000002,-0.2564505046911298,0.049671416988307134,10,2026-10-07 23:16:19.376243,65.4,0.4135197253662019,0.018814480830793078,0.03152365776337666
0420,cdot_cos,Q,P-Q,11,2,3404,-0.027260282732248023,-0.016359128633847173,-0.05664470957815307,0.024019795374453225,1000.0,0.06759013256456703,0.5050946216028629,1.675209343531537,-8.363117147460235e-05,0.112,1.0000000000000002,9.286792649437528,0.054638558669163534,11,2026-10-07 23:16:19.488243,65.4,0.036449256875537385,0.1055024783839743,0.031453217404168565
0420,cdot_cos,R,Q-R,12,2,3433,0.05100762548520663,0.06409220483144623,0.07826790821745466,0.9940519214021095,1000.0,0.0876999273733104,0.5063288590371627,1.7539746184378522,-0.0005630750207741192,0.029,1.0,-0.38845349847251587,0.05960570014540658,12,2026-10-07 23:16:19.517244,65.4,0.42678530376485124,0.41704311837406133,0.6934412003014953
0420,cdot_cos,S,R-S,13,2,3463,-0.0033499677902681865,-0.006147093080992971,-0.05435759327547482,0.02778754112980164,1000.0,0.09177863343026259,0.5063633596408594,1.8257190572586535,-0.00013199248035896267,0.03,1.0,12.494927457064533,0.06457284166747294,13,2026-10-07 23:16:19.547244,65.4,0.03816017397341655,0.12572140237286922,0.13595686856507316
0420,cdot_cos,T,S-T,14,2,3714,-0.211691899512007,0.11886694249210884,-0.20834193172173882,1.2091855262687104e-06,1000.0,0.09524321151568255,0.5063633611421652,1.894638210669393,-0.00011683067739132792,0.251,0.9999999999999997,10099.077422515375,0.06953998416397107,14,2026-10-07 23:16:19.798244,65.4,0.8782922592547947,0.051882690570232495,0.013803099941912186
0420,cdot_cos,P,T-P,15,3,4292,0.030598981054839287,0.00029837119974328183,0.2422908805668463,0.9999998687056016,963.0,0.1178237440965193,0.5076049034354014,1.9659453375596951,-0.0008674298297585469,0.578,1.0000000000000002,-0.6045699421247083,0.07450712853687548,15,2026-10-07 23:16:20.376243,65.4,0.4209193745205597,0.023158938119103002,0.03906666536476947
0420,cdot_cos,Q,P-Q,16,3,4402,-0.03193948607469457,-0.020006853678778247,-0.06253846712953386,0.016463389727859733,963.0,0.12201494398136561,0.5076253426899119,2.030501370961027,-0.00018123461265467567,0.11,1.0,33.57241903088931,0.07947427041097088,16,2026-10-07 23:16:20.486243,65.4,0.022681036947069307,0.12879869148769266,0.03810181713496649
0420,cdot_cos,R,Q-R,17,3,4432,0.05085876616897701,0.06389378302266517,0.08279825224367159,0.9955703962251751,963.0,0.14615945622381168,0.5088612907916051,2.0980888509435376,-0.001167303741021946,0.03,0.9999999999999998,-0.7978240567029906,0.08444141181349445,17,2026-10-07 23:16:20.516243,65.4,0.42966870200757595,0.4814325607915282,0.8048170747482024
0420,cdot_cos,S,R-S,18,3,4459,-0.005852013925623617,-0.010833416866425761,-0.05671078009460063,0.023918706634120705,963.0,0.1509008976288573,0.5088909833315107,2.1590415914137235,-0.0002539231453108128,0.027,0.9999999999999997,30.76128208012171,0.08940855325419994,18,2026-10-07 23:16:20.543243,65.4,0.027403761573523897,0.1643810774480135,0.1756089409276156
0420,cdot_cos,T,S-T,19,3,4711,-0.19369970950981788,0.09226109119409531,-0.18784769558419426,4.6194084110525934e-06,963.0,0.1550360344060044,0.5088909890660107,2.218204394843963,-0.00022807043626658395,0.252,0.9999999999999999,4508.276067216064,0.09437569667147146,19,2026-10-07 23:16:20.795244,65.4,0.8928344905845315,0.06027072102370965,0.016409272925186937
0420,cdot_cos,P,T-P,20,4,5255,0.036066124180556346,-0.0013458169739481564,0.22976583369037423,0.9999997021529751,993.0,0.18127734102480697,0.5101323240547654,2.2813811085246654,-0.0015908739314313873,0.544,1.0000000000000002,-1.097853123863036,0.09934284322036815,20,2026-10-07 23:16:21.339243,65.4,0.4245870320567786,0.02865299511984432,0.048237695990445875
0420,cdot_cos,Q,P-Q,21,4,5360,-0.023399134693706306,-0.013236424765190845,-0.059465258874262655,0.020054803827544272,993.0,0.18621049309639504,0.5101572175649831,2.3378340663259674,-0.00032679301221498675,0.105,1.0000000000000002,50.779536841542736,0.10430998534297453,21,2026-10-07 23:16:21.444243,65.4,0.020897215080016684,0.15480084435347635,0.046982400681791096
0420,cdot_cos,R,Q-R,22,4,5390,0.05913998178397236,0.06515769087122697,0.08253911647767867,0.9954950269431776,993.0,0.213785518339037,0.5113928340145143,2.3986450086661035,-0.0019880650611247045,0.03,1.0000000000000002,-1.3444884531442052,0.10927712665694012,22,2026-10-07 23:16:21.474244,65.4,0.4336044453829166,0.5459334494256105,0.9191675080880656
0420,cdot_cos,S,R-S,23,4,5410,-0.004044617006176142,-0.006241080374714029,-0.0631845987901485,0.015792948333506793,993.0,0.21896650006193166,0.5114124352673691,2.452647879016447,-0.00040411912029367887,0.02,1.0000000000000002,80.80840304250508,0.11424426791053975,23,2026-10-07 23:16:21.494244,65.4,0.01985096625155923,0.2472619540347165,0.2590490861447331
0420,cdot_cos,T,S-T,24,4,5670,-0.26933289165755664,0.16955813857016264,-0.2652882746513805,2.9177931283512598e-08,993.0,0.22367599650042566,0.5114124353035829,2.5053990297637005,-0.0003757386027645856,0.26,0.9999999999999998,783693.230336197,0.1192114126743334,24,2026-10-07 23:16:21.754244,65.4,0.9272494919796348,0.06568762711948584,0.01811344784036153
0420,cdot_cos,P,T-P,25,5,6248,0.044816161336607846,0.00013334801305136217,0.3141490529941645,0.999999998805273,1040.0,0.2531240661640643,0.5126535008416505,2.5632675049099145,-0.0025304598858977064,0.578,1.0000000000000002,-1.7361865405497996,0.12417856286096939,25,2026-10-07 23:16:22.332243,65.4,0.4267684395070924,0.030621431336265843,0.050948217411139515
0420,cdot_cos,Q,P-Q,26,5,6359,-0.005011958778697507,-0.003967396009633936,-0.04982812011530535,0.037013415400429565,1040.0,0.259074371125149,0.5126994340163034,2.614264419720191,-0.0005492648035630874,0.111,1.0000000000000002,43.1321174142244,0.12914570543389073,26,2026-10-07 23:16:22.443244,65.4,0.027133275626801172,0.16369498704750504,0.053606351000762824
0420,cdot_cos,R,Q-R,27,5,6389,0.06030726211774132,0.06714254980608551,0.06531922089643882,0.9862365138916896,1040.0,0.2894643532886104,0.513923259466063,2.670423590893571,-0.003003899470967972,0.03,0.9999999999999999,-2.0057065065013937,0.1341128466065366,27,2026-10-07 23:16:22.473243,65.4,0.4416889376321715,0.6023455496937613,1.012999405448715
0420,cdot_cos,S,R-S,28,5,6416,-0.0020058487000127025,-0.003232646925239256,-0.06231311081775402,0.016703745984087,1040.0,0.29521510410677465,0.5139439858254014,2.719535949763467,-0.0006058833778044221,0.027,1.0,115.69885738326262,0.13907998781964193,28,2026-10-07 23:16:22.500243,65.4,0.01910349561171656,0.20326329210162358,0.21299077104311961
0420,cdot_cos,T,S-T,29,5,6669,-0.22185553037132602,0.16940077178157462,-0.21984968167131333,5.696921264949806e-07,1040.0,0.3004405710620981,0.5139439865322865,2.767673070261941,-0.0005608762396227299,0.253,0.9999999999999998,63669.66540860132,0.14404713399784427,29,2026-10-07 23:16:22.753243,65.4,0.922890828723327,0.07424452296666348,0.02065401958625867
0420,cdot_cos,P,T-P,30,6,7288,0.027764317776114218,0.0005069743557219745,0.24961984814744023,0.9999999187014903,1018.0,0.3327828327279064,0.5151847175427721,2.821782912207615,-0.003689870807390322,0.619,1.0000000000000002,-2.5218959962505823,0.14901428923901827,30,2026-10-07 23:16:23.372243,65.4,0.42827245999374597,0.03103795962573003,0.05224921109177428
0420,cdot_cos,Q,P-Q,31,6,7398,-0.030954027557901612,-0.018430024320125447,-0.058718345334015834,0.02103764402167033,1018.0,0.3388655650787519,0.5152108176457095,2.8685724319045307,-0.0007360767957757484,0.11,1.0,113.17173800776735,0.1539814322234358,31,2026-10-07 23:16:23.482244,65.4,0.018081094888626602,0.179337378434012,0.05529756682586817
0420,cdot_cos,R,Q-R,32,6,7430,0.04906953239979938,0.061161289462206676,0.080023559957701,0.9946937040353859,1018.0,0.372237055983389,0.5164447753569623,2.92145282428779,-0.0042748649635410575,0.032,1.0000000000000002,-2.8678358549034253,0.15894857325351744,32,2026-10-07 23:16:23.514244,65.4,0.43700403329177895,0.6251432105126792,1.042859090769911
0420,cdot_cos,S,R-S,33,6,7458,-0.0038952208748671753,-0.006774151991941975,-0.05296475327466656,0.0303571755811293,1018.0,0.37887473055156334,0.5164824315826075,2.9669656862550666,-0.0008981169406545704,0.028,1.0,89.67303453884436,0.163915714295267,33,2026-10-07 23:16:23.542243,65.4,0.023288191459305434,0.2202744018836756,0.23705980600622584
0420,cdot_cos,T,S-T,34,6,7727,-0.23494512770370404,0.14444852376445685,-0.23104990682883686,2.738557906892825e-07,1018.0,0.38457242248887485,0.516482431922308,3.0115842172769463,-0.0007835925517805309,0.269,1.0000000000000004,337133.4227031346,0.16888286276556277,34,2026-10-07 23:16:23.811244,65.4,0.8640255118863678,0.07564719547935682,0.021181010919373647
0420,cdot_cos,P,T-P,35,7,8306,0.03128546431805002,0.000577528213024193,0.2662305920217541,0.999999972565946,981.0,0.4195729217194573,0.517722763747829,3.0628891784749555,-0.005069292587986859,0.579,1.0000000000000002,-3.455285068095576,0.1738500219088335,35,2026-10-07 23:16:24.390244,65.4,0.4293753983846809,0.03585485133055476,0.06044991231534104
0420,cdot_cos,Q,P-Q,36,7,8417,-0.028981847420688253,-0.01766449702709501,-0.060267311738738276,0.019049480516485653,981.0,0.42609234032965726,0.5177463893543849,3.1064783396739375,-0.000992989072186074,0.111,0.9999999999999997,172.53751797474388,0.17881716547777754,36,2026-10-07 23:16:24.501244,65.4,0.016488634342784518,0.19123636138758354,0.0587335009927923
0420,cdot_cos,R,Q-R,37,7,8447,0.05143219454172076,0.064135512162547,0.080414041962409,0.9948268058939325,981.0,0.46202739394750086,0.5189800838127331,3.1568326114962133,-0.005747091490589724,0.03,1.0,-3.8535493016390316,0.1837843062460896,37,2026-10-07 23:16:24.531244,65.4,0.4372636923760181,0.714855215279565,1.1978351205947868
0420,cdot_cos,S,R-S,38,7,8474,-0.004817005863954362,-0.008749216970055861,-0.05624920040567512,0.024633699088533894,981.0,0.46898365324643115,0.5190106294301324,3.1993963954686984,-0.0011662371487641595,0.027,1.0,149.96764615808758,0.18875144704425517,38,2026-10-07 23:16:24.558244,65.4,0.019685112007519295,0.2423524859259828,0.2576392332937144
0420,cdot_cos,T,S-T,39,7,8726,-0.2339909766052469,0.1173524316775712,-0.22917397074129253,3.0960207406322484e-07,981.0,0.47511442818750393,0.519010629814036,3.2412203480691626,-0.0010422904613157185,0.252,0.9999999999999997,322858.90345262346,0.19371859710240025,39,2026-10-07 23:16:24.810244,65.4,0.8878809529322964,0.0865047515274284,0.02432847198838405
0420,cdot_cos,P,T-P,40,8,9287,0.03742194956779756,-0.0015891354849221287,0.27141292617304447,0.9999999804522449,956.0,0.5125820480162551,0.520250500398952,3.29035307447116,-0.00666271427890537,0.561,0.9999999999999998,-4.533072956134584,0.19868576112857,40,2026-10-07 23:16:25.371244,65.4,0.4301747806478236,0.03957896984270664,0.0667872011207685
0420,cdot_cos,Q,P-Q,41,8,9393,-0.02373465822507335,-0.014186889816842645,-0.06115660779287091,0.017992531657979843,956.0,0.5195220323510208,0.5202728065716826,3.331371423357492,-0.0012895909972467578,0.106,1.0000000000000002,240.88055564514627,0.2036529051467932,41,2026-10-07 23:16:25.477243,65.4,0.015505928068365706,0.21359964752507588,0.06547155032797854
0420,cdot_cos,R,Q-R,42,8,9425,0.05879767144375848,0.06866413204260147,0.08253232966883182,0.9954930359481486,956.0,0.5578651732915711,0.5215068368251439,3.3797505876398852,-0.007436006935380435,0.032,1.0,-4.980766007068308,0.20862004581877128,42,2026-10-07 23:16:25.509243,65.4,0.43754540355216764,0.7100108611259957,1.1982231543921986
0420,cdot_cos,S,R-S,43,8,9441,-0.004972509110463739,-0.008090889895166218,-0.06377018055422222,0.015208584671056678,956.0,0.5649627274630845,0.5215256876505887,3.41987264136217,-0.0014345007719083604,0.016,0.9999999999999997,318.36834843300716,0.21358718582647981,43,2026-10-07 23:16:25.525243,65.4,0.015242164040349454,0.42591042357086395,0.4435971357195853
0420,cdot_cos,T,S-T,44,8,9705,-0.2613588917119899,0.13097932405957058,-0.25638638260152613,5.222683078662612e-08,956.0,0.5714943068458388,0.521525687715323,3.459410055098842,-0.0013361342763213403,0.264,1.0,1519541.4410545651,0.21855433895149237,44,2026-10-07 23:16:25.789243,65.4,0.9290244543900817,0.08770823507228602,0.02474083099528137
0420,cdot_cos,P,T-P,45,9,10243,0.04507016692624958,0.002065117353956893,0.3064290586382395,0.9999999980205769,1019.0,0.6112726755812515,0.5227650364836527,3.5068144799788326,-0.008466998680997056,0.538,0.9999999999999996,-5.753718877928473,0.22352150790924447,45,2026-10-07 23:16:26.327244,65.4,0.43076393514451367,0.04433589305546369,0.07393748835578576
0420,cdot_cos,Q,P-Q,46,9,10356,-0.005734878837386791,-0.004694916058785343,-0.05080504576363637,0.034802282577305915,1019.0,0.6191997277735177,0.5228081636913763,3.545857492072032,-0.0017553491147788921,0.113,1.0,155.62448673315413,0.22848865307488633,46,2026-10-07 23:16:26.440243,65.4,0.02185028866856662,0.21317595448606497,0.07015090435633799
0420,cdot_cos,R,Q-R,47,9,10383,0.05868899646481962,0.06976074879540305,0.06442387530220642,0.9854186238976752,1019.0,0.6594504412951022,0.5240291570949968,3.5925629099318948,-0.009259886605273302,0.027,0.9999999999999992,-6.146255555715578,0.23345579324933116,47,2026-10-07 23:16:26.467244,65.4,0.44466453312231735,0.8862819460380782,1.4907671674660923
0420,cdot_cos,S,R-S,48,9,10412,-0.0021977671197351356,-0.0037443491580533535,-0.060886763584554755,0.01830701425862918,1019.0,0.667058952859574,0.5240518379230702,3.630737644692182,-0.001815885583840067,0.029,0.9999999999999997,328.2067567078959,0.23842293373871684,48,2026-10-07 23:16:26.496243,65.4,0.016582990387422808,0.2503663734737193,0.2623624677404045
0420,cdot_cos,T,S-T,49,9,10664,-0.21807812268058363,0.14175530303547704,-0.2158803555608485,7.385507682617256e-07,1019.0,0.6739716909565779,0.5240518388380695,3.6683628802598243,-0.0016678894085621241,0.252,0.9999999999999998,161744.57785077934,0.2433900889712255,49,2026-10-07 23:16:26.748243,65.4,0.9150902296572285,0.09698067887465692,0.027431500384936466
0420,cdot_cos,P,T-P,50,10,11262,0.040287881485291575,-0.0021073610796600883,0.2583660041658752,0.9999999541154198,999.0,0.715937215012401,0.5252906001769452,3.7143654641253327,-0.010491823898507554,0.598,0.9999999999999997,-7.12319170208699,0.24835726877845155,50,2026-10-07 23:16:27.346244,65.4,0.43126626164932436,0.04185871203387405,0.07017646163181121
0420,cdot_cos,Q,P-Q,51,10,11353,-0.014264513599890602,-0.008656491883839188,-0.05455239508518218,0.027445426767038067,999.0,0.7240347105490913,0.5253245941938213,3.7515680029096505,-0.002097363711439992,0.091,0.9999999999999997,246.93934281626701,0.2533244131665949,51,2026-10-07 23:16:27.437243,65.4,0.018271980882097253,0.2784732460273042,0.08898346743615668
0420,cdot_cos,R,Q-R,52,10,11387,0.058843607841546595,0.06088104565801485,0.07310812144143719,0.9916843958731134,999.0,0.7666193457893704,0.5265527385808972,3.7970258083994617,-0.01141531304259322,0.034,0.9999999999999996,-7.587014547481583,0.25829155354550365,52,2026-10-07 23:16:27.471244,65.4,0.442078626111875,0.7430353025383079,1.252489271772915
0420,cdot_cos,S,R-S,53,10,11412,-0.003430975479880622,-0.004822076108699048,-0.06227458332142722,0.016745181786808335,999.0,0.7745611111216962,0.526573473814215,3.8335127662173325,-0.002201033498217531,0.025,0.9999999999999997,444.3779051410153,0.2632586934230838,53,2026-10-07 23:16:27.496243,65.4,0.015201787524028735,0.3042965435399303,0.3176706132930329
0420,cdot_cos,T,S-T,54,10,11682,-0.2185232481224124,0.1494843006562822,-0.21509227264253178,7.776141332916146e-07,999.0,0.7818341729663669,0.5265734747771175,3.8695089879518623,-0.0020356039995251085,0.27,0.9999999999999999,171802.97244022263,0.26822585309673475,54,2026-10-07 23:16:27.766243,65.4,0.9219465617679669,0.09503031528776489,0.02693726609137293
0420,cdot_cos,P,T-P,55,11,12261,0.0460853870011715,-0.0038719888927578527,0.2646086351235839,0.999999969495901,939.0,0.8258774813770893,0.5278115866078624,3.9143555034620507,-0.012729955440076114,0.579,0.9999999999999993,-8.637629634890352,0.27319303953684604,55,2026-10-07 23:16:28.345243,65.4,0.431670207175847,0.04542345785084025,0.07606789017395915
0420,cdot_cos,Q,P-Q,56,11,12352,-0.00752812109746027,-0.005296044745114976,-0.05361350809863177,0.02913284457227568,939.0,0.8344345371576399,0.5278476512746269,3.9500501433005635,-0.0025541674488686185,0.091,0.9999999999999998,282.15394468154267,0.27816018453494623,56,2026-10-07 23:16:28.436243,65.4,0.018611156276262458,0.2914394070232486,0.0940335800060512
0420,cdot_cos,R,Q-R,57,11,12382,0.06049258137160974,0.0654079235531422,0.06802070246907001,0.9884397356135206,939.0,0.8789194534553205,0.5290711041095344,3.994399257227128,-0.013698524891055374,0.03,0.9999999999999997,-9.108939163174945,0.28312732429163256,57,2026-10-07 23:16:28.466244,65.4,0.44328412727539185,0.8784343549357551,1.4828305432560196
0420,cdot_cos,S,R-S,58,11,12411,-0.004122220627679663,-0.006374400339146354,-0.0646148019992894,0.01440304230242783,939.0,0.8871405984537852,0.5290889290976662,4.0294212535841085,-0.0026094554883605483,0.029,0.9999999999999999,622.108094584274,0.28809446418453516,58,2026-10-07 23:16:28.495244,65.4,0.014270337988448185,0.273038813269411,0.2834877585677487
0420,cdot_cos,T,S-T,59,11,12681,-0.22115586868412151,0.11090471953512164,-0.21703364805644185,6.848943338160715e-07,939.0,0.8947557046249464,0.5290889299452795,4.0640092012915465,-0.0024387681109506215,0.27,0.9999999999999998,201374.13744577323,0.29306162743233344,59,2026-10-07 23:16:28.765243,65.4,0.9324039095649194,0.09933562848295208,0.02820409693022638
0420,cdot_cos,P,T-P,60,12,13200,0.055064662808596496,0.0018982909798816328,0.276220531492718,0.9999999857259521,963.0,0.9407818378345794,0.5303263309498607,4.107890114075089,-0.015179298753827994,0.519,0.9999999999999992,-10.296201955314313,0.29802881656289854,60,2026-10-07 23:16:29.284243,65.4,0.4319973101517476,0.052601158533104764,0.08868233759081504
0420,cdot_cos,Q,P-Q,61,12,13312,-0.004635232534777712,-0.004109897940095961,-0.05969989534337421,0.019755440767597093,963.0,0.9493557071823091,0.5303507726476298,4.142171971904103,-0.002911733556008292,0.112,0.9999999999999996,501.911336672913,0.30299596452795724,61,2026-10-07 23:16:29.396243,65.4,0.01479970144213769,0.24445111000801478,0.07655240489044415
0420,cdot_cos,R,Q-R,62,12,13340,0.05709832717683372,0.07592364927987061,0.06173355971161143,0.9826621740180316,963.0,0.9955388864763747,0.5315663494307922,4.18555764331036,-0.01613355243707761,0.028,0.9999999999999996,-10.876991946713316,0.3079631037773779,62,2026-10-07 23:16:29.424243,65.4,0.44064174716942833,0.981392017512041,1.6493992605023418
0420,cdot_cos,S,R-S,63,12,13367,-0.0026119427992143053,-0.005014596515760541,-0.059710269976048023,0.01974230576585903,963.0,1.0043136601629834,0.531590767348729,4.219370931348816,-0.0031519645120560145,0.027,0.9999999999999996,531.641885217322,0.312930243159249,63,2026-10-07 23:16:29.451244,65.4,0.01626775325891461,0.3095210203526371,0.3249916180225455
0420,cdot_cos,T,S-T,64,12,13620,-0.36324409700069155,0.0896285424660776,-0.36063215420147726,5.71499337548424e-11,963.0,1.012253021575417,0.5315907673487997,4.252726161188649,-0.0028757132541213848,0.253,0.9999999999999993,,0.31789740840408826,64,2026-10-07 23:16:29.704243,65.4,0.9084062742867872,0.11040181348451161,0.031380875147959196
0420,cdot_cos,P,T-P,65,13,14163,0.035105382113618654,-0.0009288984538458073,0.3983494791143102,0.9999999999951501,974.0,1.0601769777861463,0.5328273990507639,4.295791850734388,-0.017833680798582073,0.543,0.9999999999999992,-12.0957335322249,0.3228646088431743,65,2026-10-07 23:16:30.247243,65.4,0.4322512800724499,0.05226224272965208,0.08825774624443683
0420,cdot_cos,Q,P-Q,66,13,14267,-0.02642695097234761,-0.015127138032320039,-0.06153233308596626,0.017563469662494318,974.0,1.0690098171798192,0.5328491150350432,4.328886702824656,-0.00337691450741058,0.104,0.9999999999999992,665.7200569530357,0.3278317569768288,66,2026-10-07 23:16:30.351244,65.4,0.013828026653781796,0.2759143201458713,0.0849311480160862
0420,cdot_cos,R,Q-R,67,13,14297,0.057386079735189235,0.064154408117319,0.08381303070753685,0.9958536513560279,974.0,1.1175671563764875,0.5340802113502576,4.3716349674502135,-0.01905819810580262,0.03,0.9999999999999991,-12.737657813280363,0.33279889613463903,67,2026-10-07 23:16:30.381243,65.4,0.4391956032889743,0.9599979683370046,1.6185779732222758
0420,cdot_cos,S,R-S,68,13,14349,-0.0038467750913943398,-0.030813916397000485,-0.061232854826583576,0.01790463663777865,974.0,1.1266096952800395,0.5341023417048649,4.404320768599246,-0.003642562541622287,0.052,0.9999999999999993,696.5833054973876,0.3377660384857968,68,2026-10-07 23:16:30.433243,65.4,0.014522075359331746,0.16632219717365643,0.17389497891446154
0420,cdot_cos,T,S-T,69,13,14578,-0.1622416282158253,0.09346595059930697,-0.15839485312443097,3.170439956283657e-05,974.0,1.1348646648825478,0.53410238089178,4.436587611754188,-0.0033509403336082024,0.229,0.9999999999999991,7441.826121552317,0.34273320443838373,69,2026-10-07 23:16:30.662244,65.4,0.9166523665846575,0.12665292359151892,0.036047902194359244
0420,cdot_cos,P,T-P,70,14,15137,0.03552496359937624,0.0014588961049363822,0.19776659181520154,0.9999975853048709,998.0,1.1846167342849552,0.5353381747681839,4.478960546402883,-0.020706743057529446,0.559,0.9999999999999988,-14.044253702264086,0.3477004166955062,70,2026-10-07 23:16:31.221244,65.4,0.4325006108079795,0.053116760202957865,0.08900191306334058
0420,cdot_cos,Q,P-Q,71,14,15247,-0.01832817277752217,-0.012303488618964985,-0.05385313637689841,0.02869284051856431,998.0,1.1942492027894547,0.5353736269606963,4.511138401820365,-0.004111619713989331,0.11,0.9999999999999993,468.09864686693567,0.3526675667641534,71,2026-10-07 23:16:31.331244,65.4,0.017665312734634134,0.2716017586653367,0.08756789549545002
0420,cdot_cos,R,Q-R,72,14,15277,0.052417385023974965,0.06630239940849914,0.07074555780149713,0.9903084249673513,998.0,1.2443691211913293,0.536597007033195,4.5531766265506635,-0.021923294168928978,0.03,0.9999999999999989,-14.559395608398725,0.35763470553834414,72,2026-10-07 23:16:31.361243,65.4,0.4437675930913341,0.9978753762627098,1.6706639467291526
0420,cdot_cos,S,R-S,73,14,15307,-0.0024596736246942515,-0.004458325365621192,-0.054877058648669215,0.026884322943161957,998.0,1.2541217253652173,0.5366302125768911,4.584970583469002,-0.004370647059191563,0.03,0.9999999999999988,528.6059240700265,0.36260184460641603,73,2026-10-07 23:16:31.391244,65.4,0.01802439059494073,0.3052210933380891,0.32508680579626714
0420,cdot_cos,T,S-T,74,14,15557,-0.2469160767811565,0.13846729645437872,-0.24445640315646225,1.1395651822505302e-07,998.0,1.2626823867916146,0.5366302127176411,4.616267675368172,-0.0038645961137967234,0.25,0.9999999999999989,3595389.436528259,0.36756901756219523,74,2026-10-07 23:16:31.641243,65.4,0.8772657032433883,0.1201607712179702,0.034242645705589325
0420,cdot_cos,P,T-P,75,15,16135,0.0306530565098937,-0.000849800252412848,0.2775691332910502,0.9999999869309806,920.0,1.3142021109742024,0.5378651060855114,4.658048496836726,-0.02380428585665062,0.578,0.9999999999999987,-16.146891919293292,0.3725362435347747,75,2026-10-07 23:16:32.219244,65.4,0.4327256963433432,0.05257935760620352,0.0891344709041311
0420,cdot_cos,Q,P-Q,76,15,16206,-0.03649431931982322,-0.020199544031286144,-0.06714737582971692,0.012231444277077973,920.0,1.3234641241843859,0.5378802077705553,4.689130985242257,-0.004380361091218896,0.071,0.9999999999999989,1286.2091024234276,0.3775033884393509,76,2026-10-07 23:16:32.290244,65.4,0.011863124754868662,0.4324766305376879,0.1304508902842746
0420,cdot_cos,R,Q-R,77,15,16261,0.05420470968927577,0.06620120881718146,0.09069902900909899,0.9973531020363092,920.0,1.375613792510554,0.5391113641829642,4.730683068521736,-0.025228184687109672,0.055,0.9999999999999984,-16.933529635848355,0.3824705310825721,77,2026-10-07 23:16:32.345243,65.4,0.43763487213677943,0.5621133701323908,0.9481757877485125
0420,cdot_cos,S,R-S,78,15,16287,-0.007155345881983668,-0.04791518664637594,-0.06136005557125944,0.017758941245227533,920.0,1.3852965948989489,0.5391332819644512,4.7614962687433176,-0.0047914770406823235,0.026,0.9999999999999983,932.4259236081037,0.38743766904650306,78,2026-10-07 23:16:32.371244,65.4,0.014048764501392657,0.35643588790793634,0.37241547647672335
0420,cdot_cos,T,S-T,79,15,16555,-0.22016198646686572,0.08532808628159619,-0.21300664058488206,8.912550620569455e-07,920.0,1.3941484586817667,0.5391332830644192,4.79192148411562,-0.004409697995051773,0.268,0.9999999999999982,347081.9548365516,0.3924048495661054,79,2026-10-07 23:16:32.639244,65.4,0.9170648026466289,0.11581215469612817,0.03302934247320105
0420,cdot_cos,P,T-P,80,16,17055,0.04105901905775645,0.002237509331566833,0.2612210055246222,0.9999999619305532,936.0,1.4473719098160736,0.5403672192604448,4.833191390914544,-0.027095572889177792,0.5,0.9999999999999986,-18.384965906012525,0.39737207314045214,80,2026-10-07 23:16:33.139244,65.4,0.4328976598673778,0.06297630359709161,0.10644690226861364
0420,cdot_cos,Q,P-Q,81,16,17166,-0.021503468353282207,-0.014433526006530872,-0.06256248741103865,0.01643797205555666,936.0,1.4571247622788583,0.5403874985777577,4.863487544097749,-0.005075095363146483,0.111,0.9999999999999983,1085.8589165658468,0.4023392261127736,81,2026-10-07 23:16:33.250243,65.4,0.013050500177722836,0.2854017084917497,0.08786353570076387
0420,cdot_cos,R,Q-R,82,16,17194,0.05307208314109488,0.07444174563959916,0.07457555149437708,0.9924395925889752,936.0,1.510731089101242,0.5416116084678383,4.904501768035694,-0.028492133506419517,0.028,0.9999999999999984,-19.12984964260953,0.40730636373500884,82,2026-10-07 23:16:33.278244,65.4,0.43960560182019526,1.1401012845722116,1.9145116722279871
0420,cdot_cos,S,R-S,83,16,17221,-0.004032853490612175,-0.008277462458658328,-0.05710493663170706,0.02332421050029497,936.0,1.5209704342149022,0.5416403713874592,4.934578685428949,-0.005559305650755375,0.027,0.9999999999999981,797.3052860377995,0.41227350148443453,83,2026-10-07 23:16:33.305243,65.4,0.016161482612013833,0.3587849185636828,0.3792350042096372
0420,cdot_cos,T,S-T,84,16,17475,-0.26339250387250474,0.09335211504874123,-0.25935965038189257,4.29976154271376e-08,936.0,1.5301054747036809,0.5416403714404827,4.964216061320156,-0.004991434985456993,0.254,0.9999999999999981,10709797.323798422,0.4172406844513592,84,2026-10-07 23:16:33.559244,65.4,0.8924640736773263,0.12600523571171163,0.03596472633377428
0420,cdot_cos,P,T-P,85,17,17991,0.0586702852281498,-0.00274079225402948,0.32206278910065456,0.9999999992879738,941.0,1.5849810939564517,0.5428732866502027,5.0050444626114485,-0.030600545584052456,0.516,0.999999999999998,-20.771185558178793,0.4222079221069418,85,2026-10-07 23:16:34.075244,65.4,0.4330577803750962,0.06302691998156126,0.10634809932707529
0420,cdot_cos,Q,P-Q,86,17,18084,-0.0016951456485300844,-0.001218524881567902,-0.060365430876679886,0.018929938123485767,941.0,1.595149256124652,0.5428966206425326,5.034616211506329,-0.005788466166047792,0.093,0.999999999999998,1063.3448004614074,0.42717507284790684,86,2026-10-07 23:16:34.168243,65.4,0.013753406157568305,0.35181943248420133,0.10933507707742343
0420,cdot_cos,R,Q-R,87,17,18117,0.07488709825834595,0.08721855156883815,0.07658224390687604,0.9933632811802219,941.0,1.6504195083985131,0.5441208235705142,5.075221242359287,-0.03209755162124676,0.033,0.9999999999999981,-21.490787886431068,0.4321422111719638,87,2026-10-07 23:16:34.201244,65.4,0.4405813403441111,0.9857444634592327,1.6748561295109412
0420,cdot_cos,S,R-S,88,17,18143,-0.0006570225887366312,-0.0010647036497208565,-0.07554412084708259,0.007099645178920839,941.0,1.6602083907129614,0.5441295711441102,5.1043879021402665,-0.005798715094632797,0.026,0.9999999999999981,3006.415006160551,0.43710934829392395,88,2026-10-07 23:16:34.227243,65.4,0.010723830264187597,0.3691391539950829,0.3764954736326269
0420,cdot_cos,T,S-T,89,17,18412,-0.5419231002760876,0.07811354659649371,-0.5412660776873509,4.2315146707372976e-16,941.0,1.6696147444062575,0.5441295711441102,5.133308177994993,-0.0056044211675459615,0.269,0.9999999999999976,,0.44207653977892825,89,2026-10-07 23:16:34.496243,65.4,0.9659260756326274,0.12245811977382881,0.03496785759589595
0420,cdot_cos,P,T-P,90,18,18932,0.048047714782379826,-0.002600081119271963,0.5899708150584674,1.0,958.0,1.7260908591512814,0.5453614108712997,5.173752693574591,-0.03429968134404611,0.52,0.9999999999999978,-23.29463772204256,0.44704379007313666,90,2026-10-07 23:16:35.016243,65.4,0.4331789838029914,0.06463286716786096,0.1086079129711998
0420,cdot_cos,Q,P-Q,91,18,19039,-0.008042454281951515,-0.005956368717294211,-0.05609016906433134,0.024884833625978202,958.0,1.7368329262608329,0.5453920579822326,5.202708725707463,-0.006653055797766407,0.107,0.9999999999999974,902.0956528949362,0.45201094527424934,91,2026-10-07 23:16:35.123244,65.4,0.015678298539845502,0.315084101384467,0.10039315055655608
0420,cdot_cos,R,Q-R,92,18,19068,0.06229229888419671,0.07107868602946388,0.07033475316614823,0.9900471424236773,958.0,1.7935188568475573,0.5466110768505257,5.242909351363279,-0.03577561757729404,0.029,0.9999999999999979,-23.890164899830694,0.4569780822469146,92,2026-10-07 23:16:35.152243,65.4,0.443067213943957,1.1579784310688224,1.9546872616111877
0420,cdot_cos,S,R-S,93,18,19121,-0.0009071894187802015,-0.0026651226265297324,-0.06319948830297692,0.01577781957940586,958.0,1.8039956752628246,0.5466304991777757,5.271513714123524,-0.006737870770478341,0.053,0.9999999999999978,1495.070412158699,0.46194522555912404,93,2026-10-07 23:16:35.205244,65.4,0.013438487423593583,0.19009246747466715,0.19767581915598612
0420,cdot_cos,T,S-T,94,18,19351,-0.23082014393656725,0.12422677977280122,-0.22991295451778704,2.949949732865761e-07,958.0,1.813668658399872,0.54663049954091,5.2997794094787976,-0.006255750256112632,0.23,0.9999999999999972,1327664.4861828831,0.466912413072995,94,2026-10-07 23:16:35.435244,65.4,0.92582654690932,0.14719207295671635,0.04205644842194545
0420,cdot_cos,P,T-P,95,19,19890,0.02249260488190143,-0.0006758527573585961,0.25331274881846866,0.9999999361451845,937.0,1.871704028822914,0.547861196690192,5.33989050300673,-0.03821739120952915,0.539,0.999999999999997,-25.970354259831694,0.4718796807787421,95,2026-10-07 23:16:35.974244,65.4,0.43330585994409054,0.0633601990709457,0.10767230134145096
0420,cdot_cos,Q,P-Q,96,19,19997,-0.04926971347461456,-0.02739174607030842,-0.07176231835651599,0.009073739764622852,937.0,1.8819709529983515,0.5478723610606674,5.368031014653174,-0.00688623773838561,0.107,0.9999999999999972,2806.3520052544477,0.4768468375288853,96,2026-10-07 23:16:36.081243,65.4,0.010569089332560466,0.32189583940156163,0.0959525623872654
0420,cdot_cos,R,Q-R,97,19,20028,0.04911206091330082,0.05996744116378345,0.09838177438791539,0.9983968302266418,937.0,1.9405897384548483,0.5491004963035442,5.408012808188988,-0.040019102146247716,0.031,0.999999999999997,-26.978188762217613,0.4818139745167888,97,2026-10-07 23:16:36.112243,65.4,0.4369544900822511,1.1337610183084679,1.8909285631127997
0420,cdot_cos,S,R-S,98,19,20080,-0.0018258629134571026,-0.10690225449363612,-0.05093792382675792,0.034511545674819406,937.0,1.9522641361334765,0.5491429386007498,5.436237841479735,-0.00811654886416845,0.052,0.9999999999999968,751.6688629627528,0.48678111770847504,98,2026-10-07 23:16:36.164243,65.4,0.019632745374549128,0.20793779458495545,0.22450764766592718
0420,cdot_cos,T,S-T,99,19,20309,-0.12480231084424474,0.05093081195525537,-0.12297644793078764,0.0003213495469876487,937.0,1.9622152690916836,0.5491433337930479,5.463907284907785,-0.006956892556019525,0.229,0.9999999999999969,2934.4101939741704,0.49174831000938285,99,2026-10-07 23:16:36.393243,65.4,0.8464605274419669,0.1517575352017568,0.043454729075140405
0420,cdot_cos,P,T-P,100,20,20827,0.02430075581763303,0.0009675512195619123,0.14910306666187778,0.9999417868203595,919.0,2.021769087255881,0.5503727489922159,5.503727596394522,-0.04235272165314731,0.518,0.9999999999999967,-28.790785343375077,0.4967155855355979,100,2026-10-07 23:16:36.911244,65.4,0.4335538862218128,0.0677611496630003,0.11496876093474415
0420,cdot_cos,Q,P-Q,101,20,20940,-0.04410219778464032,-0.029745881069313408,-0.06840295360227336,0.011278068121854794,919.0,2.032415820142552,0.5503866117479144,5.531317109082405,-0.007704980606721225,0.113,0.9999999999999966,2499.340087932633,0.501682745749537,101,2026-10-07 23:16:37.024243,65.4,0.011144625041048333,0.3128233593378632,0.09421887510328177
0420,cdot_cos,R,Q-R,102,20,20967,0.04462425084711532,0.06571148370371423,0.08872644863175563,0.9969897271405834,919.0,2.092467166466238,0.5516117781349656,5.5710059967966545,-0.04419433975085826,0.027,0.9999999999999963,-29.783186618398275,0.5066498811007303,102,2026-10-07 23:16:37.051244,65.4,0.4379472343336813,1.3506267444617648,2.2241239379143054
0420,cdot_cos,S,R-S,103,20,20996,0.00041141236884391835,-0.08792769628893742,-0.0442128384782714,0.05257437338692797,919.0,2.1053496643434872,0.5516763677224517,5.5989037545518805,-0.009648151614997937,0.029,0.9999999999999962,534.8569247844167,0.5116170174654637,103,2026-10-07 23:16:37.080243,65.4,0.027858930315572742,0.3978993739143807,0.44422406473272563
0420,cdot_cos,T,S-T,104,20,21248,-0.18908956361268134,0.05050954534984645,-0.18950097598152527,4.145994066067747e-06,919.0,2.1155453301532723,0.551676372815892,5.626017300017425,-0.007677868948154464,0.252,0.9999999999999962,386827.47549877083,0.516584222278096,104,2026-10-07 23:16:37.332243,65.4,0.7736633650256464,0.14134979598402256,0.04045899130867078
0420,cdot_cos,P,T-P,105,21,21746,0.06523399856911982,0.0015781188203737927,0.2543235621818012,0.9999999402299433,962.0,2.1765899615194346,0.552904575849165,5.665586092393814,-0.04672139796330833,0.498,0.999999999999996,-31.78914882754251,0.5215515055761522,105,2026-10-07 23:16:37.830244,65.4,0.4335851971634568,0.0722369809493944,0.12257958105655088
0420,cdot_cos,Q,P-Q,106,21,21858,-0.003536740639777058,-0.003176324228634212,-0.06877073920889688,0.011012983112423167,962.0,2.187493363178869,0.552918098463439,5.692640377471792,-0.008484914753035921,0.112,0.999999999999996,2827.595495625844,0.5265186675257623,106,2026-10-07 23:16:37.942244,65.4,0.011038043553241695,0.32128423507330905,0.09735180053066506
0420,cdot_cos,R,Q-R,107,21,21886,0.06406200210538407,0.08554757610048931,0.06759874274516113,0.9881201167026062,962.0,2.248557630175856,0.5541310697349004,5.731976495307908,-0.04827785109530394,0.028,0.9999999999999961,-32.806165552728004,0.5314858026871798,107,2026-10-07 23:16:37.970243,65.4,0.4385645407385133,1.290812551718011,2.180866678463812
0420,cdot_cos,S,R-S,108,21,21915,-0.0006593828505728122,-0.0013136289015826387,-0.06472138495595688,0.014304425752757694,962.0,2.2597788660750777,0.5541486244992349,5.758881575221827,-0.00901608359470451,0.029,0.9999999999999958,2236.530593786053,0.5364529385989885,108,2026-10-07 23:16:37.999244,65.4,0.01284710753092336,0.37343219857303267,0.3869391689386848
0420,cdot_cos,T,S-T,109,21,22167,-0.2874170281777777,0.13431266302286857,-0.2867576453272049,7.165772171391268e-09,962.0,2.2702166976930918,0.5541486245080288,5.785481631273223,-0.008426922056077221,0.252,0.9999999999999957,66996116.24494415,0.5414201496535415,109,2026-10-07 23:16:38.251244,65.4,0.9324738200040944,0.14468995374124413,0.04141996673815094
0420,cdot_cos,P,T-P,110,22,22708,0.05000218826818385,-0.0018663605494750133,0.33741921644596157,0.9999999997391869,956.0,2.3327026027606648,0.5553755133546869,5.824827670835306,-0.05123185380602557,0.541,0.9999999999999954,-34.88900552527103,0.5463874615121095,110,2026-10-07 23:16:38.792243,65.4,0.4336515217596991,0.06903340804049082,0.11550074873858227
0420,cdot_cos,Q,P-Q,111,22,22814,-0.002567102556122963,-0.0021477079669870616,-0.052569290824306815,0.03112779349051424,956.0,2.344910845192903,0.5554136929443447,5.851646519082685,-0.010171726689420773,0.106,0.9999999999999946,1075.4470512813027,0.5513546232694263,111,2026-10-07 23:16:38.898243,65.4,0.017655782349284752,0.3538898674377027,0.11517209841734018
0420,cdot_cos,R,Q-R,112,22,22846,0.07686593325543425,0.09554070173653735,0.07943303581155722,0.9944859168346597,956.0,2.4077272546574577,0.5566331263583862,5.890851458301225,-0.05314772568761858,0.032,0.9999999999999951,-35.242595867341635,0.556321759229291,112,2026-10-07 23:16:38.930244,65.4,0.44547503396921634,1.154453079213219,1.963012795767341
0420,cdot_cos,S,R-S,113,22,22896,-1.499987216441968e-05,-4.336724869639053e-05,-0.07688093312759868,0.006509169052464744,956.0,2.418795842262549,0.5566411056360933,5.917176281434518,-0.009510466895346539,0.05,0.999999999999995,5468.823168531454,0.5612889022593704,113,2026-10-07 23:16:38.980243,65.4,0.010169722780828911,0.21747650322625933,0.22137175210182214
0420,cdot_cos,T,S-T,114,22,23126,-0.4833055586568944,0.10431559530679786,-0.48329055878473,1.875712819161172e-14,956.0,2.4294749049800837,0.5566411056360933,5.943300807166441,-0.009217120057944155,0.23,0.9999999999999947,,0.5662561116236883,114,2026-10-07 23:16:39.210243,65.4,0.9686748253064709,0.16212624054722477,0.04643070746754272
0420,cdot_cos,P,T-P,115,23,23664,0.040074895009270264,0.00048404341382293184,0.5233804536661647,0.9999999999999987,961.0,2.4933739129142722,0.5578666080535036,5.982453055555017,-0.05596787756165322,0.538,0.9999999999999947,-38.148237685649576,0.5712234381472961,115,2026-10-07 23:16:39.748243,65.4,0.43373822108120924,0.07182511059130496,0.1187713902122464
0420,cdot_cos,Q,P-Q,116,23,23775,-0.005606171082253576,-0.004932856756312498,-0.04568106609152384,0.047991880541418175,961.0,2.506758723976328,0.557925404623655,6.0090406943781,-0.011907209854907614,0.111,0.9999999999999944,749.3747950482765,0.5761906036863109,116,2026-10-07 23:16:39.859244,65.4,0.024715240643400478,0.3475529881665283,0.12058388344194215
0420,cdot_cos,R,Q-R,117,23,23805,0.05975016719910718,0.07674611514431152,0.06535633828136075,0.9862694257287954,961.0,2.5705306762872415,0.5591333567096304,6.047952151489633,-0.05757431957696764,0.03,0.9999999999999944,-37.80539828712372,0.5811577383129704,117,2026-10-07 23:16:39.889244,65.4,0.45240141801193307,1.2620547913469413,2.1257317436971235
0420,cdot_cos,S,R-S,118,23,23834,-0.0011090963895659675,-0.0022240124104943664,-0.06085926358867315,0.018339364674709577,961.0,2.5824820114571443,0.5591558116095683,6.073987031289781,-0.010950656190350768,0.029,0.9999999999999941,2076.3247004236036,0.5861248730021158,118,2026-10-07 23:16:39.918243,65.4,0.014156043261897828,0.39432702580245105,0.412115005858716
0420,cdot_cos,T,S-T,119,23,24084,-0.29443703881557026,0.14254070465960153,-0.2933279424260043,4.662810591839102e-09,961.0,2.5934016437837837,0.5591558116152775,6.099669965765873,-0.010049744658552687,0.25,0.9999999999999936,157799659.26025268,0.5910920965582425,119,2026-10-07 23:16:40.168243,65.4,0.9142554908552346,0.15241164093148285,0.04367852930655758
0420,cdot_cos,P,T-P,120,24,24625,0.03995113716397912,-0.0019532143819874486,0.3343881759795494,0.9999999996820055,937.0,2.6586878319228857,0.5603798527492787,6.138653920091009,-0.06093377276720157,0.541,0.9999999999999937,-41.57052136174262,0.5960594408621619,120,2026-10-07 23:16:40.709243,65.4,0.4338436664012818,0.07114291828557943,0.12067687271553054
0420,cdot_cos,Q,P-Q,121,24,24731,-0.02797535133666376,-0.01698757398585367,-0.06792648850064288,0.011630882910966386,937.0,2.6703782813687806,0.5603940851382142,6.164335152736441,-0.011070925528195075,0.106,0.9999999999999933,3503.4769963769513,0.6010266063900752,121,2026-10-07 23:16:40.815244,65.4,0.01106525032108487,0.36485849266149795,0.11028725892353702
0420,cdot_cos,R,Q-R,122,24,24762,0.05661560985612702,0.06839726681157804,0.08459096119279078,0.9960585166175006,937.0,2.7360378323671233,0.5616125635042902,6.203213734809712,-0.06304444576459814,0.031,0.9999999999999933,-42.65444646652038,0.6059937408075806,122,2026-10-07 23:16:40.846244,65.4,0.4385002440109628,1.2539812016179686,2.1180500322046014
0420,cdot_cos,S,R-S,123,24,24776,-0.006095885948835021,-0.010888627963245863,-0.06271149580496205,0.016281154999203903,937.0,2.7481251158690947,0.5616324741110665,6.228805676695367,-0.011772648765260237,0.014,0.9999999999999936,2575.099673021911,0.6109608683160717,123,2026-10-07 23:16:40.860243,65.4,0.012840354415674746,0.8298861853892932,0.863377392997958
0420,cdot_cos,T,S-T,124,24,25043,-0.17454949182316756,0.07605685106125239,-0.16845360587433253,1.6422105302408638e-05,937.0,2.7592746455580235,0.5616324941939446,6.254074991397504,-0.010905316491632977,0.267,0.9999999999999928,43187.64832664313,0.6159281062573295,124,2026-10-07 23:16:41.127244,65.4,0.923547564661411,0.14566962916753076,0.041758538160782
0420,cdot_cos,P,T-P,125,25,25562,0.03129714819817396,-0.000609857316812938,0.2058466400213415,0.9999985764711748,983.0,2.825912697844556,0.5628550330511032,6.292910805293466,-0.06605818182143657,0.519,0.999999999999993,-45.11338433691015,0.620895457851953,125,2026-10-07 23:16:41.646244,65.4,0.4339120293469826,0.07634365497579637,0.12839701789312646
0420,cdot_cos,Q,P-Q,126,25,25652,-0.025509755552983165,-0.01412494059301361,-0.05680690375115713,0.02377237694918173,983.0,2.8385193594229,0.5628840865174615,6.318358448365739,-0.012674084477474222,0.09,0.9999999999999932,1837.4433083347558,0.625862618196861,126,2026-10-07 23:16:41.736243,65.4,0.014815707490244944,0.4421810120592568,0.1400740175371556
0420,cdot_cos,R,Q-R,127,25,25687,0.0582680041938229,0.06268428941305995,0.08377775974680607,0.9958441156421746,983.0,2.9055052800152223,0.5641007697704972,6.357093073514876,-0.06824756455727467,0.035,0.9999999999999925,-45.67621025533243,0.6308297539690155,127,2026-10-07 23:16:41.771244,65.4,0.44295260473161385,1.1278801649457888,1.9138834454949205
0420,cdot_cos,S,R-S,128,25,25713,-0.012350781677345681,-0.03778311747885388,-0.07061878587116859,0.009771472356768016,983.0,2.9174709709691053,0.5641127043737344,6.382206948549912,-0.012358547626152816,0.026,0.9999999999999922,4682.938830909764,0.6357968860288066,128,2026-10-07 23:16:41.797244,65.4,0.010864045492314256,0.448849140530108,0.4602188828416539
0420,cdot_cos,T,S-T,129,25,25980,-0.19972334896264,0.1265447253853509,-0.1873725672852943,4.765201826738702e-06,983.0,2.928845435322788,0.5641127101938005,6.407089006604257,-0.01179499887392893,0.267,0.9999999999999919,96828.58286392517,0.640764131867857,129,2026-10-07 23:16:42.064243,65.4,0.9533448165569887,0.14857457252848646,0.04260099008869892
0420,cdot_cos,P,T-P,130,26,26545,0.04394214686116592,-0.0021664194726727327,0.24366549582380592,0.9999998799939342,1033.0,2.996809792699317,0.5653336869556597,6.445796029537558,-0.07138763283881538,0.565,0.9999999999999916,-48.80734492779799,0.645731522601669,130,2026-10-07 23:16:42.629244,65.4,0.43397197580309915,0.07227401279347759,0.12029089801155607
0420,cdot_cos,Q,P-Q,131,26,26649,-0.005171172617979031,-0.0037612876628632676,-0.04911331947914495,0.038716217556050925,1033.0,3.0105150697794176,0.5653809427259298,6.471080948370761,-0.014593632710361307,0.104,0.9999999999999909,1201.8426491377431,0.650698691197642,131,2026-10-07 23:16:42.733243,65.4,0.020410674826677713,0.39218640247550757,0.13178151038558172
0420,cdot_cos,R,Q-R,132,26,26679,0.06267291412308527,0.06295075013318811,0.0678440867410643,0.9883070030831805,1033.0,3.0783845644142227,0.5665868338491302,6.509587411093891,-0.07320260692947855,0.03,0.9999999999999915,-48.60221050766806,0.6556658238299072,132,2026-10-07 23:16:42.763244,65.4,0.4490412463047493,1.339717372213086,2.262316487826836
0420,cdot_cos,S,R-S,133,26,26730,-0.0010297258535925627,-0.0021770785631075383,-0.06370263997667784,0.015274883500296746,1033.0,3.090898112112203,0.566605465478027,6.534413284992379,-0.013674890451196778,0.051,0.999999999999991,3194.9818670153304,0.660632967655553,133,2026-10-07 23:16:42.814244,65.4,0.012867286027205995,0.2363895764263198,0.24536368035255054
0420,cdot_cos,T,S-T,134,26,26960,-0.22193883108271775,0.17618189514449534,-0.22090910522912519,5.315566745399462e-07,1033.0,3.1024963012097073,0.5666054661263932,6.558932753328826,-0.012724117062763152,0.23,0.9999999999999908,1466414.317304223,0.6656002026473764,134,2026-10-07 23:16:43.044243,65.4,0.9280012953314314,0.17579598257276502,0.05042690911958496
0420,cdot_cos,P,T-P,135,27,27578,0.033760746238803256,0.00035569568976925577,0.255699577321521,0.9999999453738108,999.0,3.1717642640956747,0.5678248098581544,6.597528395302014,-0.07693318284853515,0.618,0.9999999999999905,-52.65870821595731,0.670567640210881,135,2026-10-07 23:16:43.662244,65.4,0.4340445037801038,0.06656076489489134,0.11208408233975303
0420,cdot_cos,Q,P-Q,136,27,27689,-0.02424573746231125,-0.01447401127151444,-0.05800648370111451,0.02201814923114397,999.0,3.184765406619793,0.5678516483630963,6.622231617232246,-0.014628974805778747,0.111,0.9999999999999897,2321.4485373773214,0.6755348142898234,136,2026-10-07 23:16:43.773243,65.4,0.014137007387740378,0.3717135088497764,0.11712741012719212
0420,cdot_cos,R,Q-R,137,27,27719,0.05585742007360377,0.06666987917688562,0.08010315753591501,0.9947211097100443,999.0,3.254284663060325,0.5690637224454818,6.660720432554823,-0.07918545460266493,0.03,0.9999999999999901,-53.26116673482112,0.6805019459021181,137,2026-10-07 23:16:43.803244,65.4,0.44252567513249147,1.377562685943438,2.3173085480177344
0420,cdot_cos,S,R-S,138,27,27747,-0.0022176360539493383,-0.003941488853205415,-0.05807505612755311,0.021921786700000768,999.0,3.2674191677763993,0.5690904250222463,6.6852991158633355,-0.015152585345171532,0.028,0.9999999999999896,2398.0033770593827,0.6854690769692686,138,2026-10-07 23:16:43.831244,65.4,0.014612603255264414,0.4455644743455722,0.4690894541455088
0420,cdot_cos,T,S-T,139,27,27999,-0.25603896627694994,0.1572060096542833,-0.25382133022300063,6.176585962701103e-08,999.0,3.279236273623677,0.5690904250974818,6.709477491708962,-0.013684929863153998,0.252,0.9999999999999887,19507490.269979917,0.6904363308124334,139,2026-10-07 23:16:44.083244,65.4,0.8983045647967955,0.16342030727501725,0.046893277171737295
0420,cdot_cos,P,T-P,140,28,28577,0.04003247196707426,0.0021380276484951237,0.2960714382440242,0.9999999961030517,960.0,3.349783002643008,0.5703080795100118,6.747976542116266,-0.08266799662811927,0.578,0.999999999999989,-56.65241800555728,0.6954037679931322,140,2026-10-07 23:16:44.661243,65.4,0.43410920294129457,0.07371061814082995,0.12205316439330606
0420,cdot_cos,Q,P-Q,141,28,28689,-0.006285899111008262,-0.005698156677768762,-0.046318371078082524,0.04612306699774155,960.0,3.3644457481944765,0.5703642210637516,6.7727002474498015,-0.017402381649647383,0.112,0.9999999999999886,1162.5188586866655,0.700370944958417,141,2026-10-07 23:16:44.773243,65.4,0.023508715049206746,0.37700045359990203,0.13091737099525458
0420,cdot_cos,R,Q-R,142,28,28718,0.05158560490114393,0.07117873109878119,0.05787150401215219,0.9777909571929387,960.0,3.434231104249386,0.5715539719031006,6.8108520032995745,-0.08380821728874016,0.029,0.9999999999999883,-55.814909679262705,0.7053380751270231,142,2026-10-07 23:16:44.802243,65.4,0.4527773799832484,1.4387248551558105,2.406391588100329
0420,cdot_cos,S,R-S,143,28,28747,-0.0033638755065056843,-0.0067762380119681795,-0.05494948040764962,0.026760689069477005,960.0,3.4478917897935135,0.5715865220582959,6.835181045174527,-0.016606746844681483,0.029,0.9999999999999882,2064.5514603858996,0.7103052058552968,143,2026-10-07 23:16:44.831244,65.4,0.017481070809411546,0.44302160876916663,0.47105812221129206
0420,cdot_cos,T,S-T,144,28,29015,-0.2439760888888642,0.10000994641892828,-0.24061221338235853,1.4652952371390263e-07,960.0,3.4599263575579977,0.5715865222365242,6.8590386443643805,-0.014684563475312872,0.268,0.9999999999999877,10784949.096110903,0.715272477157281,144,2026-10-07 23:16:45.099244,65.4,0.8773070532597232,0.15641748690288773,0.04490510359882162
0420,cdot_cos,P,T-P,145,29,29537,0.03908858958824447,-0.0018599400766082328,0.2830646784771087,0.9999999908766611,937.0,3.5317315627734613,0.5728024179960194,6.8974548827796225,-0.08861643283775736,0.522,0.9999999999999876,-60.80444707952422,0.7202399021520443,145,2026-10-07 23:16:45.621243,65.4,0.4341823202367852,0.08139514730711038,0.1375578643974399
0420,cdot_cos,Q,P-Q,146,29,29643,-0.023051331965807765,-0.013924772765090706,-0.062139921554052235,0.016890803949518116,937.0,3.544902891346621,0.5728229479431659,6.921446435327376,-0.016452398164788863,0.106,0.9999999999999871,3515.0618829139853,0.7252070780453387,146,2026-10-07 23:16:45.727243,65.4,0.012447543790303172,0.40216042654215217,0.12425781672792088
0420,cdot_cos,R,Q-R,147,29,29674,0.06037447647346024,0.07195673490178005,0.083425808439268,0.9957477591630873,937.0,3.6169895732003976,0.5740327850818854,6.959778068019954,-0.09106264035022472,0.031,0.999999999999987,-61.6696576734333,0.7301742086912832,147,2026-10-07 23:16:45.758244,65.4,0.4407273794862447,1.3750122491451864,2.325376833992795
0420,cdot_cos,S,R-S,148,29,29688,-0.004029574712992119,-0.006553361400707899,-0.06440405118645236,0.014600016887305257,937.0,3.6301536507936225,0.5740505176008306,6.983626383573706,-0.016827129156507487,0.014,0.9999999999999866,4186.405294311499,0.7351413292555029,148,2026-10-07 23:16:45.772243,65.4,0.012135061766264284,0.9074091283948205,0.9402912566589221
0420,cdot_cos,T,S-T,149,29,29955,-0.30913048343098304,0.13277777507536825,-0.3051009087179909,2.1590458859263774e-09,937.0,3.6423970287954526,0.5740505176034529,7.007179994461258,-0.015705102148231037,0.267,0.9999999999999858,427871330.76828563,0.7401086090382976,149,2026-10-07 23:16:46.039244,65.4,0.9310489074659933,0.15970152637786536,0.04585534832146091
0420,cdot_cos,P,T-P,150,30,30474,0.0486479002100024,0.0031727466448450126,0.35777838364098546,0.9999999999311235,978.0,3.7154342658794026,0.5752646167034046,7.045524330051013,-0.09471631681151864,0.519,0.9999999999999859,-65.07806048652508,0.7450760517848128,150,2026-10-07 23:16:46.558244,65.4,0.4342269316187825,0.08402286712563249,0.14072685372630067
0420,cdot_cos,Q,P-Q,151,30,30586,-0.0046500138190331075,-0.004111969106851153,-0.053297914029035505,0.029722332757145743,978.0,3.729612764871859,0.575300688743465,7.069413689539385,-0.018604529648319237,0.112,0.9999999999999853,2109.99397416284,0.7500432340612265,151,2026-10-07 23:16:46.670244,65.4,0.016721912728659066,0.38719518234769734,0.1265937410040758
0420,cdot_cos,R,Q-R,152,30,30616,0.057781512578264554,0.07804723596494102,0.06243152639729766,0.9834229784138607,978.0,3.802165986725287,0.5764937500395141,7.107492767213182,-0.09623946909671102,0.03,0.9999999999999852,-65.07204592545521,0.7550103633897836,152,2026-10-07 23:16:46.700243,65.4,0.44633520234051005,1.4377588812226172,2.4184407284475906
0420,cdot_cos,S,R-S,153,30,30643,-0.0017659638697563637,-0.00339555444144697,-0.05954747644802092,0.019949403433006142,978.0,3.815878297745216,0.5765179429201491,7.131133598061488,-0.018396979860363327,0.027,0.9999999999999843,3217.578361610773,0.7599774913078794,153,2026-10-07 23:16:46.727243,65.4,0.014533999537659863,0.48448493536460785,0.5078633711084931
0420,cdot_cos,T,S-T,154,30,30913,-0.3585382470925667,0.10171769688938989,-0.35677228322281035,7.356091166025956e-11,978.0,3.8283281732349757,0.5765179429202384,7.154399999870389,-0.016760609304873626,0.27,0.999999999999984,,0.7649447824153461,154,2026-10-07 23:16:46.997243,65.4,0.9069826797085597,0.16055532536380018,0.04611064996207226
0420,cdot_cos,P,T-P,155,31,31452,0.038451185201395864,-0.00041598310742990105,0.39698943229396255,0.9999999999946989,979.0,3.9025781734416682,0.5777301824761018,7.1926832601978,-0.10101514769850733,0.539,0.9999999999999839,-69.50320832719196,0.7699122589120648,155,2026-10-07 23:16:47.536243,65.4,0.43427458626405946,0.08191439967029313,0.1377551024242905
0420,cdot_cos,Q,P-Q,156,31,31562,-0.018249505719089048,-0.012438938999804585,-0.05670069092048491,0.023934116309121244,979.0,3.9166318960795516,0.5777591849480698,7.216210435968074,-0.019337746856802576,0.11,0.9999999999999831,2816.2220424440497,0.7748794424351731,156,2026-10-07 23:16:47.646244,65.4,0.014643936352054644,0.40145672412537686,0.12776111488984912
0420,cdot_cos,R,Q-R,157,31,31592,0.055248591015044195,0.06714545680878468,0.07349809673413324,0.9918921007255682,979.0,3.990898652749251,0.5789606490724297,7.25435667466019,-0.10326463249664444,0.03,0.999999999999983,-69.85384243957485,0.7798465708925675,157,2026-10-07 23:16:47.676243,65.4,0.44364259256020466,1.4728256206619477,2.4755585556566504
0420,cdot_cos,S,R-S,158,31,31620,-0.0023273915132975527,-0.004317219318989396,-0.05757598252834175,0.022632644867841067,979.0,4.0050014333192685,0.5789880528050858,7.2777675081151765,-0.019828080428051703,0.028,0.9999999999999826,3044.714861136594,0.7848136985445717,158,2026-10-07 23:16:47.704243,65.4,0.014876098569424978,0.47780081373561506,0.5036707346434767
0420,cdot_cos,T,S-T,159,31,31872,-0.24965241450360878,0.13033599282240924,-0.24732502299031123,9.446309592518433e-08,979.0,4.017655498318446,0.5789880529194612,7.300762091627128,-0.017850765619972668,0.252,0.9999999999999823,17287938.157485437,0.7897809864574143,159,2026-10-07 23:16:47.956243,65.4,0.8951453356138339,0.17479838031581835,0.050214543647528156
0420,cdot_cos,P,T-P,160,32,32431,0.03515551743708893,0.00021521361647980973,0.2848079319406977,0.9999999918596997,937.0,4.093099816998441,0.5801983703870348,7.338993932318137,-0.10751102400418744,0.559,0.999999999999982,-74.07995074545344,0.794748499126955,160,2026-10-07 23:16:48.515244,65.4,0.4343244718649903,0.08035780046060437,0.13496300300535838
0420,cdot_cos,Q,P-Q,161,32,32541,-0.02038289752359425,-0.014591510133136379,-0.05553841496068318,0.02577562563402779,937.0,4.107495519233401,0.5802295543937273,7.36228828349216,-0.020741228839627337,0.11,0.9999999999999813,2782.509509452832,0.799715685286407,161,2026-10-07 23:16:48.625243,65.4,0.015245891150318021,0.4082503820382545,0.13087002031782127
0420,cdot_cos,R,Q-R,162,32,32571,0.052355580675870705,0.06854824816013816,0.07273847819946495,0.9914826524048619,937.0,4.182914901046857,0.5814285867925153,7.400378334311994,-0.10976641401289086,0.03,0.9999999999999812,-74.24752263846084,0.8046828128374987,162,2026-10-07 23:16:48.655244,65.4,0.4443947120200369,1.4982724954475835,2.513979393781855
0420,cdot_cos,S,R-S,163,32,32598,-0.003650327272188151,-0.0073383643387182375,-0.056005907948058854,0.025018904077218847,937.0,4.197391868960256,0.5814588305931427,7.423569994226965,-0.02129801969365552,0.027,0.9999999999999807,2925.174498041515,0.8096499387537319,163,2026-10-07 23:16:48.682244,65.4,0.01570412388499706,0.5061617915438354,0.536183996792569
0420,cdot_cos,T,S-T,164,32,32850,-0.22793221141156206,0.08616690050093839,-0.22428188413937392,4.2633703178400773e-07,937.0,4.210247637790224,0.5814588311085099,7.446306867238498,-0.01897465261798164,0.252,0.9999999999999796,4508178.063297842,0.8146172358101892,164,2026-10-07 23:16:48.934243,65.4,0.8847538313710821,0.17753280788664347,0.0510149556744752
0420,cdot_cos,P,T-P,165,33,33368,0.03313272820886041,0.0006454749853576786,0.2610649396204225,0.9999999615399996,959.0,4.286868404135125,0.5826671653748413,7.484495871112974,-0.11419988659445401,0.518,0.9999999999999796,-78.80702933765629,0.8195847400421462,165,2026-10-07 23:16:49.452243,65.4,0.4343750228856142,0.08739477169452035,0.14791653734536786
0420,cdot_cos,Q,P-Q,166,33,33479,-0.031027176175208823,-0.01990457725049394,-0.06415990438406924,0.014831524086445485,959.0,4.300788621265747,0.5826850793831544,7.507372744790371,-0.020968291867357235,0.111,0.9999999999999791,5204.39608476804,0.8245519298835622,166,2026-10-07 23:16:49.563244,65.4,0.011721701964083132,0.4087252455817978,0.12540736153713986
0420,cdot_cos,R,Q-R,167,33,33506,0.05056390379450926,0.06527134145504303,0.08159107996971808,0.995208251466147,959.0,4.377605408654284,0.5838866241365827,7.545478745208104,-0.11683695724365106,0.027,0.9999999999999787,-79.78784402558465,0.8295190543048566,167,2026-10-07 23:16:49.590244,65.4,0.4401966416943979,1.6955781170771504,2.845066199575429
0420,cdot_cos,S,R-S,168,33,33536,-0.0049941635092244285,-0.00948936635429985,-0.05555806730373369,0.025743370740813454,959.0,4.392349839587913,0.5839176917211694,7.5684389607536975,-0.022662134783421585,0.03,0.9999999999999782,3031.2888405402796,0.8344861817810896,168,2026-10-07 23:16:49.620243,65.4,0.01567634432528335,0.4632917070900078,0.4914810311209846
0420,cdot_cos,T,S-T,169,33,33789,-0.2640955472838599,0.11733759515664752,-0.2591013837746355,4.3730040622144364e-08,959.0,4.405402911079684,0.583917691773943,7.590930655884001,-0.020126112519951386,0.253,0.9999999999999775,48054684.38903138,0.8394534891823503,169,2026-10-07 23:16:49.873244,65.4,0.8816090608395131,0.17950841630135278,0.05159316795166375
0420,cdot_cos,P,T-P,170,34,34327,0.0570201467633662,-0.005503329395062623,0.3211156940472261,0.9999999992424764,959.0,4.483181098236398,0.5851239923520788,7.629084158414742,-0.12106013513842437,0.538,0.9999999999999774,-83.67236528598765,0.8444210317407567,170,2026-10-07 23:16:50.411244,65.4,0.43441667939208567,0.08553216150712808,0.14456912110913306
0420,cdot_cos,Q,P-Q,171,34,34419,-0.005253149847175116,-0.003605286828823985,-0.06227329661054131,0.01674656736913332,959.0,4.497435516861354,0.5851441851029227,7.6517538365585915,-0.02241611175343843,0.092,0.9999999999999762,4885.120613221114,0.8493882087472954,171,2026-10-07 23:16:50.503244,65.4,0.012270149772938678,0.49998660213405094,0.15493933287995917
0420,cdot_cos,R,Q-R,172,34,34447,0.06814602940585425,0.07021042048243362,0.07339917925302937,0.9918399084481672,959.0,4.575178633029063,0.5863396179220709,7.689772728852835,-0.12340480863913181,0.028,0.9999999999999766,-84.47877226396425,0.8543553330826825,172,2026-10-07 23:16:50.531244,65.4,0.441157637689544,1.6370072300335714,2.7765398631324687
0420,cdot_cos,S,R-S,173,34,34476,-0.0022270605946396282,-0.0032914351873105244,-0.07037309000049388,0.009928182178652467,959.0,4.589107921743234,0.5863515789248576,7.712251642844144,-0.022333748079193617,0.029,0.9999999999999754,8450.049077208081,0.8593224589265372,173,2026-10-07 23:16:50.560243,65.4,0.010829451838660506,0.468509119265563,0.48032030048865076
0420,cdot_cos,T,S-T,174,34,34727,-0.22080394234774756,0.15351106898830572,-0.21857688175310794,6.191435494120846e-07,959.0,4.602352161946466,0.5863515796707691,7.734509277858783,-0.02129833075372861,0.251,0.9999999999999745,1388123.4562980644,0.8642897743449284,174,2026-10-07 23:16:50.811244,65.4,0.9525478358141597,0.18358490656582066,0.05276589722403101
0420,cdot_cos,P,T-P,175,35,35286,0.043334234607468144,-0.0021687176164426323,0.2641381769552157,0.9999999685427642,1000.0,4.681267544839276,0.5875558080569651,7.7726334993296975,-0.12806718221453484,0.559,0.9999999999999742,-88.6616298741143,0.8692573583607204,175,2026-10-07 23:16:51.370244,65.4,0.4344414575847232,0.0844477871649383,0.14117242020180712
0420,cdot_cos,Q,P-Q,176,35,35377,-0.008558079113599903,-0.006026567664669981,-0.05189231372106805,0.03249113460385586,1000.0,4.696764787996867,0.5875949173162109,7.795328278173144,-0.025404622935357765,0.091,0.9999999999999738,2625.019273152847,0.8742245365350019,176,2026-10-07 23:16:51.461244,65.4,0.01757816905969047,0.5174526595799445,0.1702993753581409
0420,cdot_cos,R,Q-R,177,35,35422,0.06019565466878538,0.06391982012995955,0.06875373378238528,0.9889748970432278,1000.0,4.775443928882826,0.5887848054484255,7.833273164309505,-0.13016107980053077,0.045,0.9999999999999736,-88.03891225489146,0.879191674987397,177,2026-10-07 23:16:51.506243,65.4,0.44716766543159486,1.0360997852241502,1.7484253530213125
0420,cdot_cos,S,R-S,178,35,35437,-0.0022312277836371037,-0.0031538438859220435,-0.062426882452422484,0.016581973526714568,1000.0,4.79001376866704,0.5888047472928309,7.855635945603415,-0.024340218262268253,0.015,0.9999999999999725,5306.473131908552,0.884158787200301,178,2026-10-07 23:16:51.521244,65.4,0.012938183002375632,0.9335367755509102,0.971322652280963
0420,cdot_cos,T,S-T,179,35,35705,-0.22781585423581077,0.15989081040045156,-0.22558462645217367,3.915177588527742e-07,1000.0,4.803450032149353,0.5888047477636754,7.877671436564322,-0.022512197537360543,0.268,0.9999999999999722,3882430.024838496,0.8891261278249158,179,2026-10-07 23:16:51.789243,65.4,0.9220080308028885,0.17439611707430336,0.05013531150116739
0420,cdot_cos,P,T-P,180,36,36286,0.0422823667827225,-0.0017015150192847036,0.27009822101853326,0.9999999786971223,976.0,4.883490087418867,0.5900068281195853,7.9157730793299095,-0.1352920206682487,0.581,0.9999999999999719,-93.82053585388259,0.8940937569191468,180,2026-10-07 23:16:52.370244,65.4,0.4344810635427058,0.08181949433598876,0.1377625736136209
0420,cdot_cos,Q,P-Q,181,36,36393,-0.015553588604007776,-0.010146295058865745,-0.057835955386730274,0.022259585561704653,976.0,4.898524284567772,0.5900335737567196,7.93809076093377,-0.02566126698497692,0.107,0.9999999999999706,4099.014472252438,0.8990609517599184,181,2026-10-07 23:16:52.477243,65.4,0.013950682534037502,0.4440386912344624,0.1405065154103289
0420,cdot_cos,R,Q-R,182,36,36425,0.05822431338246298,0.06648365926742147,0.07377790198647076,0.9920379494605318,976.0,4.978514367343042,0.5912249977098692,7.976062176847111,-0.13773507272779978,0.032,0.9999999999999707,-94.06710805716585,0.904028077531992,182,2026-10-07 23:16:52.509243,65.4,0.4432190679591161,1.4839584481679684,2.49969008672718
0420,cdot_cos,S,R-S,183,36,36475,-0.001507205207736418,-0.004098548546068989,-0.059731518590199394,0.019715430258388764,976.0,4.993497625250522,0.5912486648635978,7.99826458037719,-0.02604731402467854,0.05,0.9999999999999698,4719.103952419937,0.908995221143093,183,2026-10-07 23:16:52.559244,65.4,0.013734009586726267,0.28608315779797167,0.2996651581496046
0420,cdot_cos,T,S-T,184,36,36704,-0.1954961288319692,0.10819759460042505,-0.19398892362423278,3.091424109225438e-06,976.0,5.007122683122839,0.5912486685746279,8.020088040153233,-0.02375413354771911,0.229,0.9999999999999687,617936.3823439399,0.9139625352431232,184,2026-10-07 23:16:52.788243,65.4,0.9079752435626438,0.20692886451960238,0.05949806931142767
0420,cdot_cos,P,T-P,185,37,37262,0.03433439571331962,0.00052407230043085,0.22983052454528882,0.9999997034104384,944.0,5.0882710452005,0.5924485492868223,8.058172387003573,-0.14268575846463294,0.558,0.9999999999999686,-99.11954055782788,0.9189301687126442,185,2026-10-07 23:16:53.346244,65.4,0.4345165078445687,0.08589040492674073,0.1454271721821881
0420,cdot_cos,Q,P-Q,186,37,37373,-0.030346404748730224,-0.019594265371881813,-0.06468080046204985,0.014341898116768283,944.0,5.102976375021082,0.5924657498786857,8.080156517534647,-0.026102014074539683,0.111,0.9999999999999676,6777.891442111054,0.9238973702898439,186,2026-10-07 23:16:53.457243,65.4,0.011487848396606342,0.43244233461665454,0.1324804488340694
0420,cdot_cos,R,Q-R,187,37,37401,0.05116886715726108,0.06812926080605645,0.08151527190599131,0.9951845504031835,944.0,5.184273243485397,0.5936587436530834,8.118162202086449,-0.14552761299279604,0.028,0.9999999999999672,-100.10580229436387,0.9288644911478143,187,2026-10-07 23:16:53.485244,65.4,0.44015041709957375,1.730200164171501,2.9034595880112715
0420,cdot_cos,S,R-S,188,37,37430,-0.00440836111322208,-0.008882663587996827,-0.055577228270483156,0.02571196016750038,944.0,5.199867584214686,0.5936895517103953,8.140261992874104,-0.028177309692574,0.029,0.9999999999999668,3809.0783236369134,0.9338316137252312,188,2026-10-07 23:16:53.514244,65.4,0.015534230279007208,0.506991598787459,0.537735887216843
0420,cdot_cos,T,S-T,189,37,37682,-0.2119927563260124,0.08074365054813586,-0.20758439521279032,1.2706007758233962e-06,944.0,5.21367875621507,0.5936895532328104,8.1618829316527,-0.025025981944374307,0.252,0.9999999999999655,2069953.05263304,0.9387989601449042,189,2026-10-07 23:16:53.766243,65.4,0.8816834022845553,0.190581721591478,0.0548062380967626
0420,cdot_cos,P,T-P,190,38,38206,0.045255974443163295,-0.0008161274879233908,0.2572487307691757,0.9999999506371164,976.0,5.295920771896791,0.5948871785167796,8.1999548755309,-0.15025711055720362,0.524,0.9999999999999657,-104.56620304288964,0.9437665852143855,190,2026-10-07 23:16:54.290244,65.4,0.43454941760550564,0.09408169803918826,0.15695041160633727
0420,cdot_cos,Q,P-Q,191,38,38311,-0.0052340829484321715,-0.0041676456920266315,-0.05049005739159547,0.03550093758030689,976.0,5.312276375760139,0.594929674676635,8.222092746467041,-0.03016121034759463,0.105,0.999999999999965,2826.041238037207,0.9487337839428374,191,2026-10-07 23:16:54.395243,65.4,0.018652039862659103,0.4679409447740543,0.15576765584141483
0420,cdot_cos,R,Q-R,192,38,38341,0.0626426984521553,0.0706063230553855,0.06787678140058746,0.9883316872739432,976.0,5.394188370299342,0.5961121772571663,8.25997369222512,-0.15230945578464014,0.03,0.9999999999999643,-103.29638805707604,0.9537009059356483,192,2026-10-07 23:16:54.425244,65.4,0.44844279900268047,1.617256823525685,2.730399817973428
0420,cdot_cos,S,R-S,193,38,38392,-0.00047791722136325256,-0.001218534351047352,-0.06312061567351855,0.01585812213220984,976.0,5.40931178517168,0.5961311418602536,8.28171956739456,-0.028375339501349926,0.051,0.9999999999999633,6535.022943129268,0.9586680508098498,193,2026-10-07 23:16:54.476243,65.4,0.012680753576145043,0.2854811006790591,0.2965375465164365
0420,cdot_cos,T,S-T,194,38,38622,-0.37855040226956493,0.1346617018153521,-0.3780724850482017,1.8266715776155084e-11,976.0,5.423307442568606,0.5961311418602755,8.30314707992206,-0.026330160123932918,0.23,0.9999999999999625,,0.963635384698202,194,2026-10-07 23:16:54.706244,65.4,0.9252656444220381,0.21156029169776594,0.060850684334459844
0420,cdot_cos,P,T-P,195,39,39182,0.04541618526911711,-0.001770141917583257,0.42396658753868205,0.9999999999990918,995.0,5.506629519352653,0.5973264516977491,8.341211051277513,-0.15801092392518287,0.56,0.9999999999999623,-110.16454451639673,0.9686030734014907,195,2026-10-07 23:16:55.266243,65.4,0.43458447344482165,0.08879897947555408,0.14878942282865457
0420,cdot_cos,Q,P-Q,196,39,39288,-0.008157537419041083,-0.0058306523419047775,-0.05357372268815819,0.02920652912680666,995.0,5.522762299581227,0.5973613452512708,8.363059992084503,-0.030871512335234826,0.106,0.9999999999999609,3643.636109198487,0.9735702760763302,196,2026-10-07 23:16:55.372243,65.4,0.016271488246470907,0.4683198809214627,0.15219603989220762
0420,cdot_cos,R,Q-R,197,39,39319,0.0635000649551655,0.06902579823310898,0.07165760237420658,0.9908644757743156,995.0,5.605913334108003,0.5985445623581339,8.400974435134815,-0.16039450818511683,0.031,0.9999999999999605,-109.46680461142903,0.978537398066123,197,2026-10-07 23:16:55.403244,65.4,0.445959284067896,1.5870030170601337,2.6822914363476156
0420,cdot_cos,S,R-S,198,39,39369,-0.0007148449469746407,-0.001768868358379719,-0.06421490990214014,0.014779052704383894,995.0,5.621156486638955,0.5985622017588007,8.422517921260027,-0.02966287971082655,0.05,0.9999999999999594,7411.341855872213,0.9835045418692345,198,2026-10-07 23:16:55.453243,65.4,0.012188691397023173,0.2942012191759247,0.3048630506190442
0420,cdot_cos,T,S-T,199,39,39599,-0.24980098380556917,0.16636398333212507,-0.24908613885859454,8.418630599714354e-08,995.0,5.635333456025595,0.5985622018592798,8.443760120519151,-0.02766040169756005,0.23,0.9999999999999588,19929304.909455713,0.988471885369801,199,2026-10-07 23:16:55.683244,65.4,0.9301632999927252,0.21427052095840537,0.061638997333218516
0420,cdot_cos,P,T-P,200,40,40177,0.036238299337996716,0.0006801074404779941,0.28603928314356586,0.9999999924895401,1000.0,5.719720926279821,0.5997551474125589,8.481819831956903,-0.16592485377357674,0.578,0.9999999999999583,-115.90172887267529,0.9934396216725196,200,2026-10-07 23:16:56.261244,65.4,0.4346146037373877,0.0868149645171415,0.14599908348482046
0420,cdot_cos,Q,P-Q,201,40,40289,-0.020430777486710842,-0.013950894886359444,-0.05666907682470756,0.023982464761079965,1000.0,5.735691555007411,0.5997837427303663,8.503403417115575,-0.031678652606788704,0.112,0.9999999999999574,4694.691699911537,0.9984068340210758,201,2026-10-07 23:16:56.373244,65.4,0.01444004948625794,0.44744844713783183,0.14259489935347647
0420,cdot_cos,R,Q-R,202,40,40319,0.052632971952624404,0.06308149690731885,0.07306374943933525,0.9916604310701801,1000.0,5.819949378438696,0.6009655445422782,8.541326484276967,-0.1684258551951842,0.03,0.9999999999999571,-115.71077418400688,1.0033739536565234,202,2026-10-07 23:16:56.403244,65.4,0.44400770483021357,1.6748102319115314,2.8085941143761657
0420,cdot_cos,S,R-S,203,40,40348,-0.002746141061741382,-0.004994965045892029,-0.05537911301436579,0.026038539866893952,1000.0,5.836180168922103,0.6009965599475524,8.56288417943373,-0.03272556874346399,0.029,0.9999999999999554,4375.254337389879,1.008341072912253,203,2026-10-07 23:16:56.432243,65.4,0.015817892548865946,0.5273869022847444,0.5596824304623076
0420,cdot_cos,T,S-T,204,40,40599,-0.18439805757652916,0.10525231731798841,-0.1816519165147878,6.927287279351978e-06,1000.0,5.850537818771211,0.600996568198776,8.583949232426605,-0.029024790139046568,0.251,0.9999999999999548,448512.70391412644,1.0133084506846795,204,2026-10-07 23:16:56.683244,65.4,0.8802898412120571,0.19880162072874208,0.05720179222752293
0420,cdot_cos,P,T-P,205,41,41177,0.04897423012138014,-0.0026357026451593072,0.2333722876979093,0.9999997647337183,958.0,5.935978582527931,0.6021870872451517,8.6220082680435,-0.1740225052243985,0.578,0.9999999999999541,-121.79369622583611,1.0182762159508931,205,2026-10-07 23:16:57.261244,65.4,0.43465075447553664,0.08779308388211213,0.14782139058256102
0420,cdot_cos,Q,P-Q,206,41,41268,-0.008857445007515417,-0.006341868318686649,-0.05783167512889556,0.02226567877528026,958.0,5.9520266237389325,0.602213581266375,8.643392304874508,-0.03296674389204741,0.091,0.999999999999953,5324.060101833991,1.0232434065610256,206,2026-10-07 23:16:57.352243,65.4,0.013860268050039103,0.5559965814224188,0.17635210121979494
0420,cdot_cos,R,Q-R,207,41,41302,0.06064633074433593,0.06693118208168485,0.06950377575185135,0.9894971156866867,958.0,6.037169960346811,0.6033903810113397,8.681277218199616,-0.17621662752295247,0.034,0.9999999999999528,-121.7283435383545,1.028210529866057,207,2026-10-07 23:16:57.386244,65.4,0.4435613207327769,1.4816242731283287,2.5042157825846725
0420,cdot_cos,S,R-S,208,41,41328,-0.0038134213398096,-0.00584397263204612,-0.06445975208414553,0.014547700455469733,958.0,6.052777074311659,0.6034076735703147,8.702470617430349,-0.032572168777270996,0.026,0.9999999999999513,8306.72076663262,1.0331776442511194,208,2026-10-07 23:16:57.412243,65.4,0.012154732601545483,0.5796099696189387,0.6002736140325956
0420,cdot_cos,T,S-T,209,41,41597,-0.2074425283824555,0.11843088783271298,-0.2036291070426459,1.6456991542017915e-06,958.0,6.067309678766996,0.6034076755265095,8.723364959965881,-0.030405269690597907,0.269,0.9999999999999504,1107711.2596774183,1.0381450550749685,209,2026-10-07 23:16:57.681243,65.4,0.93121301883321,0.18775320358160316,0.05402455187857742
0420,cdot_cos,P,T-P,210,42,42135,0.0469916665279378,-0.0019798245479423853,0.2544341949103933,0.9999999406608417,980.0,6.153788297838561,0.6045957337846065,8.761425979924821,-0.18225099717574694,0.538,0.99999999999995,-127.81000127752492,1.043112800363067,210,2026-10-07 23:16:58.219244,65.4,0.43466999963906305,0.09642874974817918,0.16074092764231446
0420,cdot_cos,Q,P-Q,211,42,42206,-0.0029955887169525563,-0.001464272973273728,-0.04998725524489035,0.03664424091054876,980.0,6.171067013496037,0.6046392459227035,8.782893862181389,-0.03672211734205377,0.071,0.9999999999999486,3344.558235898482,1.0480799684101647,211,2026-10-07 23:16:58.290244,65.4,0.01900646154960714,0.7287894204828915,0.2433621923588117
0420,cdot_cos,R,Q-R,212,42,42261,0.06734812292835601,0.0734745135677013,0.07034371164530857,0.9900529139544404,980.0,6.257276395547132,0.6058142260742908,8.82078977660643,-0.18456642549260108,0.055,0.9999999999999485,-125.82706861117289,1.0530471175027798,212,2026-10-07 23:16:58.345243,65.4,0.4488638050809747,0.9247341890185723,1.5674433100199083
0420,cdot_cos,S,R-S,213,42,42287,-0.0019615547882011713,-0.002888115111499198,-0.06930967771655719,0.010635630825980314,980.0,6.27278777428808,0.6058268416703569,8.841753170594425,-0.03347987261932273,0.026,0.9999999999999473,11976.172356917601,1.0580142306178737,213,2026-10-07 23:16:58.371244,65.4,0.010968171532621071,0.5811341758147947,0.5965914900364612
0420,cdot_cos,T,S-T,214,42,42555,-0.4396984056724596,0.11858971173614287,-0.43773685088425845,3.6899620044105803e-13,980.0,6.287495372689501,0.6058268416703573,8.862484152903638,-0.03182154738361407,0.268,0.9999999999999458,,1.0629816527320768,214,2026-10-07 23:16:58.639244,65.4,0.9492213321580757,0.1906970455860822,0.05487909851276615
0420,cdot_cos,P,T-P,215,43,43115,0.03960945498448024,-0.000795692697317978,0.47930786065693987,0.9999999999999756,998.0,6.37500139072222,0.6070123728231975,8.900550088216216,-0.19066817028944727,0.56,0.9999999999999462,-133.98772569179098,1.06794945442446,215,2026-10-07 23:16:59.199244,65.4,0.4346974145721809,0.09464616813516274,0.15626074648699773
0420,cdot_cos,Q,P-Q,216,43,43224,-0.005241897881098419,-0.004266104725756431,-0.04485135286557866,0.050532794115585006,998.0,6.393499081000884,0.6070722476955117,8.922105083004551,-0.04064012344760261,0.109,0.9999999999999439,2505.6929734163677,1.0729166731780404,216,2026-10-07 23:16:59.308243,65.4,0.02493148547858654,0.4842630521018871,0.16970358053819767
0420,cdot_cos,R,Q-R,217,43,43254,0.0621382295593116,0.07162781606251956,0.06738012744041003,0.9879511059693553,998.0,6.480570736080431,0.6082421943644216,8.959968653458716,-0.1926776626883548,0.03,0.9999999999999438,-129.95253824895528,1.077883789308007,217,2026-10-07 23:16:59.338243,65.4,0.454263823282869,1.7198055300174562,2.9023885026515948
0420,cdot_cos,S,R-S,218,43,43305,-0.0004744054976993233,-0.0012063223810299549,-0.06261263505701092,0.016385031353906114,998.0,6.496687412801931,0.6082615873282745,8.980876343364363,-0.03594922471204198,0.051,0.9999999999999425,8081.716604289424,1.0828509342657289,218,2026-10-07 23:16:59.389244,65.4,0.012782007338374155,0.3039244282785347,0.3160132690490103
0420,cdot_cos,T,S-T,219,43,43534,-0.2690254292093096,0.16361364880912516,-0.26855102371161027,2.3571276248412385e-08,998.0,6.511571027764842,0.6082615873561728,9.001451116769443,-0.03327811180088824,0.229,0.999999999999941,95744856.32916036,1.0878183168985462,219,2026-10-07 23:16:59.618243,65.4,0.9228704976043886,0.22578170419395652,0.06499395180310488
0420,cdot_cos,P,T-P,220,44,44113,0.02735804835827842,0.0005495846703148651,0.29638347756758804,0.999999996181772,1004.0,6.600095433322763,0.6094445164447301,9.039524669359524,-0.199288542812041,0.579,0.9999999999999404,-140.33844684098113,1.0927861742268403,220,2026-10-07 23:17:00.197243,65.4,0.4347363910678126,0.09044730799164824,0.1528918921553041
0420,cdot_cos,Q,P-Q,221,44,44224,-0.03499832621022566,-0.021335749429709377,-0.06235637456850408,0.01665733653501598,1004.0,6.616309010419171,0.6094642100430415,9.060338602307025,-0.03679135208994286,0.111,0.9999999999999388,8251.269684305325,1.0977533989776567,221,2026-10-07 23:17:00.308243,65.4,0.012073739797664481,0.47209623930376743,0.14606826212979804
0420,cdot_cos,R,Q-R,222,44,44253,0.04597719003614365,0.057687196791714905,0.08097551624636931,0.995012392036114,1004.0,6.704900798448199,0.610639941919677,9.098331988581574,-0.20240360571793373,0.029,0.9999999999999387,-140.85886154751404,1.1027205123625523,222,2026-10-07 23:17:00.337244,65.4,0.4412128869143269,1.8314505828913814,3.0548892423803027
0420,cdot_cos,S,R-S,223,44,44283,-0.005033298079106167,-0.08777217833294693,-0.051010488115249816,0.03435376527854648,1004.0,6.722533144226871,0.610680512319196,9.1194065448531,-0.04060391026458571,0.03,0.9999999999999374,3988.1218171787937,1.1076876279875634,223,2026-10-07 23:17:00.367244,65.4,0.018595598110448242,0.5449564174374071,0.5877448592890449
0420,cdot_cos,T,S-T,224,44,44553,-0.14299550460520485,0.07705631545857226,-0.1379622065260987,0.00012062199191911366,1004.0,6.737598183494444,0.610680654766163,9.13983290230603,-0.034776370602913866,0.27,0.9999999999999357,40910.24038218563,1.1126550783600477,224,2026-10-07 23:17:00.637243,65.4,0.8457158770884854,0.19369215316527266,0.05579644173175213
0420,cdot_cos,P,T-P,225,45,45117,0.02719644864046309,-0.0006877293543163463,0.17019195324566794,0.9999853426464514,934.0,6.827126906936118,0.6118609230366273,9.177915656011786,-0.20804533260454583,0.564,0.9999999999999357,-146.80472765184317,1.1176229458811064,225,2026-10-07 23:17:01.201244,65.4,0.4348116449523828,0.09412042202537027,0.15873887135048614
0420,cdot_cos,Q,P-Q,226,45,45222,-0.03240873783869573,-0.018741375736386172,-0.05960518647915882,0.0198757452842638,934.0,6.8437660195390615,0.6118843688469321,9.19864096786612,-0.03896745784240282,0.105,0.9999999999999338,7211.43234395626,1.1225901655479649,226,2026-10-07 23:17:01.306243,65.4,0.013050215857753598,0.506459627458742,0.15846773907565223
0420,cdot_cos,R,Q-R,227,45,45252,0.05506026126076391,0.06704516031213588,0.08746899909945964,0.9967325497592403,934.0,6.933483428702454,0.6130594673689405,9.236674132940777,-0.21150983848105837,0.03,0.9999999999999336,-146.83226759894356,1.1275572789566863,227,2026-10-07 23:17:01.336244,65.4,0.44230071804550086,1.7738662706453745,2.990580305446411
0420,cdot_cos,S,R-S,228,45,45275,-0.0048764490634370635,-0.008913588401502703,-0.059936710324200976,0.019457739153136602,934.0,6.950197995777784,0.6130823940397082,9.25734305476029,-0.03970833228119791,0.023,0.9999999999999319,7493.5217563948045,1.1325243830623362,228,2026-10-07 23:17:01.359244,65.4,0.013212581093270817,0.6943610133041992,0.7267203076230497
0420,cdot_cos,T,S-T,229,45,45532,-0.17549739064280376,0.0730186609086081,-0.1706209415793667,1.425185005519021e-05,934.0,6.965424035314447,0.6130824108321987,9.277622284074537,-0.03625529558299766,0.257,0.9999999999999305,205629.81389221997,1.137491827679358,229,2026-10-07 23:17:01.616243,65.4,0.9091526461854696,0.20573612988907228,0.059245290025926135
0420,cdot_cos,P,T-P,230,46,46051,0.04580067863350994,0.0015797489821323088,0.2212980692763137,0.9999994817946521,959.0,7.055946366540767,0.6142600137518506,9.315716302482034,-0.21693898115433716,0.519,0.9999999999999304,-153.43345584159786,1.1424596601585355,230,2026-10-07 23:17:02.135243,65.4,0.4347961790473439,0.10425408736414048,0.17441682317210047
0420,cdot_cos,Q,P-Q,231,46,46161,-0.006630053277122839,-0.005861084784750247,-0.052430731910632786,0.03140224980754879,959.0,7.073639777998425,0.6142969715818691,9.33650768863139,-0.04272843412906573,0.11,0.9999999999999282,4713.765579250548,1.1474268908175873,231,2026-10-07 23:17:02.245243,65.4,0.016955596924554325,0.4882660370642404,0.1608491950696153
0420,cdot_cos,R,Q-R,232,46,46189,0.05614766902976959,0.07306118652280219,0.06277772230689242,0.9837880689154445,959.0,7.1633648946949,0.6154541388712477,9.374320211688932,-0.21808258848201612,0.028,0.9999999999999278,-151.53742761526337,1.1523940002109418,232,2026-10-07 23:17:02.273243,65.4,0.44750291152787836,1.9039038330347209,3.2044684534455428
0420,cdot_cos,S,R-S,233,46,46217,-0.0038256630495234387,-0.0072529202868101385,-0.05997333207929303,0.019412095979537657,959.0,7.180258392648369,0.615476958993545,9.394850094323537,-0.041367298495623206,0.028,0.9999999999999267,7743.836237316435,1.1573611104630817,233,2026-10-07 23:17:02.301243,65.4,0.013955807200671187,0.5765226061204157,0.603339212623899
0420,cdot_cos,T,S-T,234,46,46471,-0.2943228958109029,0.12726395636253768,-0.29049723276137945,5.611100168310449e-09,959.0,7.195650160637643,0.6154769590001412,9.414989128086905,-0.03777483018984378,0.254,0.9999999999999238,544629590.2663906,1.16232856340056,234,2026-10-07 23:17:02.555244,65.4,0.9092800289826279,0.2104246031066761,0.0605975117687957
0420,cdot_cos,P,T-P,235,47,47010,0.04662547195182634,-0.0020225500000110126,0.3409483677627292,0.9999999997929423,979.0,7.287154091026561,0.616651831596232,9.453095671075346,-0.2259801655614419,0.539,0.9999999999999241,-160.192122956834,1.167296455530979,235,2026-10-07 23:17:03.094244,65.4,0.43481263569759504,0.10114680586007925,0.16976610461765743
0420,cdot_cos,Q,P-Q,236,47,47116,-0.008310207200860769,-0.006060916601809426,-0.054935679152687114,0.026784206982484873,979.0,7.304686417354809,0.6166832809702056,9.473670515457492,-0.04362285567487288,0.106,0.999999999999922,5798.440059242507,1.1722636837460618,236,2026-10-07 23:17:03.200243,65.4,0.015293678088816603,0.5131096370666312,0.16539930498347247
0420,cdot_cos,R,Q-R,237,47,47147,0.06374121090472719,0.07115039069130669,0.07205141810558796,0.9910946934635855,979.0,7.3959333340846865,0.6178463121265264,9.511625279673389,-0.22846351167403345,0.031,0.9999999999999218,-158.93009829925867,1.1772307965437898,237,2026-10-07 23:17:03.231244,65.4,0.44527649324635366,1.7411105774318774,2.943448926770249
0420,cdot_cos,S,R-S,238,47,47199,-0.0007135002278977364,-0.001912522409383413,-0.06445471113262492,0.01455242750044022,979.0,7.412635273155585,0.6178633791109861,9.531934170039982,-0.04212458449486732,0.052,0.9999999999999202,10918.093212029895,1.1821979433389345,238,2026-10-07 23:17:03.283243,65.4,0.011991950474672587,0.31017675435373293,0.3211911359788207
0420,cdot_cos,T,S-T,239,47,47429,-0.348380145477227,0.11919316978020897,-0.3476666452493293,1.3343607396986866e-10,979.0,7.428191716537475,0.6178633791111425,9.55193825207565,-0.039320956384849524,0.23,0.9999999999999185,,1.187165371046404,239,2026-10-07 23:17:03.513243,65.4,0.9311814553822564,0.23485032473677173,0.06763671035604152
0420,cdot_cos,P,T-P,240,48,47989,0.04907215442926811,-0.0022868548703415255,0.3974522999064951,0.999999999994857,977.0,7.5206664225345,0.6190354734699118,9.59005856815265,-0.23516654845108878,0.56,0.9999999999999182,-167.0902949075504,1.1921333272385495,240,2026-10-07 23:17:04.073244,65.4,0.43483210751276546,0.09821711446487055,0.16513340356611686
0420,cdot_cos,Q,P-Q,241,48,48095,-0.0073701269488901985,-0.005399543020313631,-0.05644228137815831,0.024332114094948225,977.0,7.53819488473813,0.6190639757894946,9.610459663709502,-0.04490224585336441,0.106,0.9999999999999158,6675.397139009532,1.1971005588583532,241,2026-10-07 23:17:04.179244,65.4,0.014446539678060293,0.5174406460301424,0.16536285097763756
0420,cdot_cos,R,Q-R,242,48,48126,0.06387771448347292,0.07157841929496409,0.07124784143236311,0.9906186765661765,977.0,7.63036383949289,0.6202236750677769,9.648418431749509,-0.23754707894126503,0.031,0.9999999999999158,-166.11619641019212,1.2020676703744335,242,2026-10-07 23:17:04.210243,65.4,0.4444243712151473,1.7584082198886501,2.9731920888632457
0420,cdot_cos,S,R-S,243,48,48178,-0.0009023877712022524,-0.002429478401294017,-0.06478010225467518,0.014250381780957666,977.0,7.647216194371226,0.6202403477535777,9.668592527152457,-0.04374501178083242,0.052,0.9999999999999137,11623.926071376194,1.2070348172268828,243,2026-10-07 23:17:04.262244,65.4,0.011911312998553294,0.31318491717499036,0.32408374766030185
0420,cdot_cos,T,S-T,244,48,48408,-0.23728354551651784,0.1380938748285626,-0.2363811577453156,1.9324096378218493e-07,977.0,7.662935070879089,0.6202403479796642,9.688466329590865,-0.04088974124160443,0.23,0.999999999999912,12629107.689241856,1.212002256219533,244,2026-10-07 23:17:04.492243,65.4,0.9325537108116106,0.23729082097582707,0.06834294133853608
0420,cdot_cos,P,T-P,245,49,48966,0.054781388021245235,0.003116089836463739,0.2920649335377631,0.9999999949356835,958.0,7.7563699720201065,0.6214096189569907,9.726601464419796,-0.24449273760207374,0.558,0.9999999999999115,-174.12815361757376,1.2169702413427175,245,2026-10-07 23:17:05.050244,65.4,0.4348488294146569,0.09924348206482587,0.16744605939250384
0420,cdot_cos,Q,P-Q,246,49,49076,-0.005245203228024784,-0.004758388561031558,-0.06002659124927002,0.01934590416573799,958.0,7.773690796863435,0.6214322257025677,9.746786134945983,-0.04564820183479801,0.11,0.9999999999999092,8795.805441755841,1.2219374831022352,246,2026-10-07 23:17:05.160243,65.4,0.012829331344844219,0.497794567211515,0.15746204403025937
0420,cdot_cos,R,Q-R,247,49,49107,0.05335288552026253,0.07414182767054918,0.058598088748287314,0.9787997687181585,958.0,7.86588477680664,0.6225753162291807,9.784541671507538,-0.24439606370472017,0.031,0.9999999999999092,-173.86887323685377,1.2269045932880358,247,2026-10-07 23:17:05.191243,65.4,0.44342775474488655,1.7750342165128379,2.973999353006606
0420,cdot_cos,S,R-S,248,49,49136,-0.002698337417384246,-0.005481026867990916,-0.05605122293764678,0.024946714767993476,958.0,7.883742918287231,0.6226044324830173,9.804786948566717,-0.047671639684291715,0.029,0.9999999999999066,6756.515626094892,1.2318717009963704,248,2026-10-07 23:17:05.220243,65.4,0.016136761471110917,0.5816688808081244,0.6157979820893508
0420,cdot_cos,T,S-T,249,49,49405,-0.23613329420126405,0.09347953378475427,-0.23343495678387982,2.3430400268954494e-07,958.0,7.899621571893511,0.6226044327564783,9.824534777419512,-0.042478268632511224,0.269,0.9999999999999047,18991273.198630307,1.2368392179760008,249,2026-10-07 23:17:05.489243,65.4,0.8849187196359269,0.20494992049872215,0.05902845206795556
0420,cdot_cos,P,T-P,250,50,49924,0.039230337806812905,-0.003461067200933054,0.27536363200807695,0.9999999849031775,940.0,7.9940059755155435,0.6237708400774907,9.862685554702246,-0.2539482765044449,0.519,0.999999999999904,-181.30030913075177,1.2418071683946363,250,2026-10-07 23:17:06.008243,65.4,0.4348610781457212,0.10872947630397323,0.1818581958035308
0420,cdot_cos,Q,P-Q,251,50,50015,-0.012990127398276256,-0.008152579630142263,-0.05222046520508916,0.031823221791619574,940.0,8.012482768297035,0.6238079354472249,9.882979041806097,-0.050064250611971964,0.091,0.9999999999999024,5496.212259198524,1.246774381081981,251,2026-10-07 23:17:06.099244,65.4,0.017035644867679202,0.6193714284320778,0.20304167891749147
0420,cdot_cos,R,Q-R,252,50,50043,0.0628988907927964,0.06579577663935851,0.07588901819107266,0.9930576045319232,940.0,8.106731575490182,0.624964781256805,9.921011044999078,-0.2568572377701601,0.028,0.999999999999902,-178.75587692473042,1.2517414849682713,252,2026-10-07 23:17:06.127244,65.4,0.4470480496829027,1.9873195756625923,3.3660288283266584
0420,cdot_cos,S,R-S,253,50,50068,-0.0041546313134323415,-0.0062167509691678354,-0.06705352210622874,0.012305825450900669,940.0,8.12377266453414,0.6249791078050062,9.940903974171768,-0.04676219185665918,0.025,0.9999999999998997,14664.73591284707,1.2567085844658274,253,2026-10-07 23:17:06.152243,65.4,0.011188822424332804,0.6616024440508639,0.6816435617583494
0420,cdot_cos,T,S-T,254,50,50326,-0.276984051079247,0.14016302909337527,-0.27282941976581465,1.781822422571454e-08,940.0,8.139811697692725,0.6249791078257502,9.960530649873537,-0.04410216987125369,0.258,0.9999999999998979,128231143.6995317,1.261676096547028,254,2026-10-07 23:17:06.410244,65.4,0.9414679328081487,0.21582487539717132,0.062166795188311856
0420,cdot_cos,P,T-P,255,51,50864,0.052154818159003455,-0.0022575254278712543,0.3291388692382505,0.9999999995517554,937.0,8.23513830023908,0.6261425828981955,9.998697983826794,-0.26358325394457355,0.538,0.9999999999998972,-188.64270431856562,1.2666441119769096,255,2026-10-07 23:17:06.948243,65.4,0.4348812815488535,0.10517195037609581,0.17718699358058723
0420,cdot_cos,Q,P-Q,256,51,50971,-0.006244770661185141,-0.004820022234398295,-0.05839958882018859,0.021471296817194462,937.0,8.252976716297404,0.626167548279804,10.018683646831194,-0.04966373612632001,0.107,0.9999999999998949,8568.646022412677,1.271611356319583,256,2026-10-07 23:17:07.055244,65.4,0.013469080715325696,0.5271548655283288,0.16671416876937523
0420,cdot_cos,R,Q-R,257,51,51000,0.06473626808240864,0.07712446422879501,0.07098103874359378,0.9904551224980622,937.0,8.347949441462143,0.6273184507689695,10.056682696543668,-0.2658897793046052,0.029,0.9999999999998949,-187.87520681710228,1.2765784606187778,257,2026-10-07 23:17:07.084243,65.4,0.4434293331405819,1.9351697838653164,3.2749215574048
0420,cdot_cos,S,R-S,258,51,51016,-0.0013993049050020218,-0.0022757509342773733,-0.06613557298741066,0.013057276099080214,937.0,8.365216563761592,0.6273336136416809,10.076472778603392,-0.0486678331702377,0.016,0.9999999999998926,14325.90975790629,1.2815455420110906,258,2026-10-07 23:17:07.100243,65.4,0.011523605868716749,1.0457210685245188,1.0791951437155722
0420,cdot_cos,T,S-T,259,51,51283,-0.26651962305734433,0.12850239132319288,-0.2651203181523423,2.950019874031823e-08,937.0,8.381412515654928,0.627333613675938,10.095981933780426,-0.04574010984555734,0.267,0.9999999999998902,85463402.08759642,1.2865130844156325,259,2026-10-07 23:17:07.367244,65.4,0.9379976929286583,0.21058739077798852,0.06065899585518894
0420,cdot_cos,P,T-P,260,52,51801,0.043348317518827825,0.0021601303137191922,0.3098679405761722,0.9999999984192451,980.0,8.477670230437038,0.6284941261813017,10.134166218986147,-0.2733259509831052,0.518,0.99999999999989,-196.10804716508667,1.2914810951299411,260,2026-10-07 23:17:07.885243,65.4,0.4348937133304301,0.11011100788145464,0.1858257042125684
0420,cdot_cos,Q,P-Q,261,52,51912,-0.016912913392618554,-0.011760364387875588,-0.060261230911446376,0.019056913338339875,980.0,8.495487519820115,0.6285162276288455,10.153993466502355,-0.05093369216477302,0.111,0.9999999999998875,10062.339056201596,1.2964483508685296,261,2026-10-07 23:17:07.996243,65.4,0.012698017515141586,0.5117401294374775,0.1605161205682575
0420,cdot_cos,R,Q-R,262,52,51943,0.05211968777633626,0.0692938901440267,0.06903260116895481,0.9891719920596502,980.0,8.591276539172158,0.62966268963774,10.191984084146668,-0.27531219251098465,0.031,0.9999999999998872,-195.71385584994835,1.301415457672194,262,2026-10-07 23:17:08.027244,65.4,0.44264083312348235,1.845272938385817,3.0899683661949493
0420,cdot_cos,S,R-S,263,52,51972,-0.0022408108594799813,-0.004333670808912473,-0.05436049863581624,0.027782408380100664,980.0,8.609894442000035,0.6296948687517246,10.21193776441145,-0.053867049555132454,0.029,0.9999999999998851,6881.642019768034,1.306382561647506,263,2026-10-07 23:17:08.056243,65.4,0.016392074162105186,0.6029481726668633,0.6419966492371458
0420,cdot_cos,T,S-T,264,52,52222,-0.23451869866830813,0.11067473293953849,-0.23227788780882816,2.527224172866419e-07,980.0,8.626247533186836,0.6296948690444364,10.231333675214579,-0.04741047960781083,0.25,0.9999999999998821,22057775.561015036,1.3113500863648662,264,2026-10-07 23:17:08.306243,65.4,0.87268165413147,0.22706930919926904,0.06541236474720336
0420,cdot_cos,P,T-P,265,53,52781,0.034100483551112094,-2.4891777231323646e-05,0.2686191822194202,0.9999999765335604,896.0,8.72342909659967,0.6308523552616843,10.269535441575828,-0.283235419301449,0.559,0.9999999999998831,-203.7388749685104,1.3163182075153972,265,2026-10-07 23:17:08.865243,65.4,0.43491222519871436,0.10260213471372996,0.17384895064907635
0420,cdot_cos,Q,P-Q,266,53,52890,-0.03166604364276506,-0.021252175379006352,-0.06576652719387716,0.013371989731156953,896.0,8.740956719796786,0.630867822993196,10.289146073799873,-0.05142107642631371,0.109,0.9999999999998791,14986.96448792886,1.321285463344714,266,2026-10-07 23:17:08.974244,65.4,0.01101873676348709,0.5262076757739803,0.16080388254235253
0420,cdot_cos,R,Q-R,267,53,52920,0.04975942294507097,0.0696132234026098,0.08142546658783603,0.9951563221541564,896.0,8.838142369918398,0.6320181899228323,10.327265591839796,-0.28661515384924824,0.03,0.9999999999998797,-204.4513549231532,1.3262525667806584,267,2026-10-07 23:17:09.004243,65.4,0.4401710343763082,1.9602503240903661,3.2395216707203764
0420,cdot_cos,S,R-S,268,53,52971,0.004043504486950185,-0.04750349096688248,-0.045715918458120786,0.04788784756146284,896.0,8.858571739242208,0.6320735088999284,10.347492571932912,-0.06064859809481366,0.051,0.9999999999998768,4084.792735084341,1.3312197125692964,268,2026-10-07 23:17:09.055244,65.4,0.024093019570899408,0.36216911046756367,0.400575869094327
0420,cdot_cos,T,S-T,269,53,53200,-0.20765732506953208,0.052787391949804696,-0.21170082955648226,9.707127672361457e-07,896.0,8.87508361918609,0.632073510021239,10.366779639633824,-0.04912108786795716,0.229,0.9999999999998741,10280389.95404307,1.3361872094457827,269,2026-10-07 23:17:09.284243,65.4,0.7908275221235858,0.2502438145040691,0.07210427923092058
0420,cdot_cos,P,T-P,270,54,53677,0.035421363321488514,0.0009801325859745715,0.2430786883910206,0.9999998752989228,921.0,8.973183406285072,0.6332278916834608,10.404999339899337,-0.29333569665965675,0.477,0.9999999999998741,-211.5544769843837,1.3411552026278586,270,2026-10-07 23:17:09.761244,65.4,0.4349417803743264,0.12195369626441643,0.20565993102512123
0420,cdot_cos,Q,P-Q,271,54,53790,-0.02402440386745686,-0.01642005524382507,-0.05944576718894537,0.020079871445985296,921.0,8.991427445422342,0.63325105592203,10.424631489517887,-0.05490705340403965,0.113,0.9999999999998715,10292.962686578494,1.3461224710630464,271,2026-10-07 23:17:09.874244,65.4,0.013005217757462625,0.5140670680948317,0.16145167378115452
0420,cdot_cos,R,Q-R,272,54,53816,0.052123940668343485,0.07376381066185807,0.07614834453580034,0.993173557343737,921.0,9.089362563674504,0.634396015630542,10.462730587616608,-0.2962590845354697,0.026,0.999999999999871,-210.79521780298055,1.3510895654961368,272,2026-10-07 23:17:09.900243,65.4,0.44278745100416833,2.245044675632904,3.766735317390827
0420,cdot_cos,S,R-S,273,54,53842,-0.003423751212551268,-0.0072867730859850375,-0.055547691880894756,0.025760394759971682,921.0,9.108169768555253,0.6344256928321086,10.482436245099077,-0.05725820313945181,0.026,0.9999999999998685,8053.349668434603,1.3560566608849267,273,2026-10-07 23:17:09.926244,65.4,0.015389192604500229,0.6821838823558921,0.7233540338749807
0420,cdot_cos,T,S-T,274,54,54099,-0.2883604117972181,0.08990582078939541,-0.2849366605846668,8.072056048819456e-09,921.0,9.12483612555701,0.6344256928414079,10.501617291632583,-0.05083934238749304,0.257,0.9999999999998659,690249134.8160748,1.3610242279030549,274,2026-10-07 23:17:10.183244,65.4,0.8813876438156607,0.2250453611630031,0.06484963813913187
0420,cdot_cos,P,T-P,275,55,54598,0.04770982532238747,-0.0020477348366491387,0.3360702371196056,0.9999999997151314,939.0,9.223843084193037,0.6355769495761249,10.539854857569653,-0.3035211496129913,0.499,0.9999999999998657,-219.48345630101744,1.3659922964380453,275,2026-10-07 23:17:10.682244,65.4,0.4349598795061114,0.11832309685093777,0.19841073874955253
0420,cdot_cos,Q,P-Q,276,55,54705,-0.006439689943067259,-0.004950499974366925,-0.05414951526545473,0.028157546711326958,939.0,9.242922576214246,0.6356093437634684,10.559539132408686,-0.05886534322918589,0.107,0.9999999999998629,7552.460069115473,1.3709595570840194,276,2026-10-07 23:17:10.789243,65.4,0.015667068136222297,0.5499144159937802,0.178313009544011
0420,cdot_cos,R,Q-R,277,55,54736,0.06438951420235249,0.07754471930979254,0.07082920414541975,0.9903607880438239,939.0,9.341524769215706,0.6367479327560827,10.597601344321813,-0.30574285203539375,0.031,0.9999999999998632,-216.82759135004036,1.375926660626061,277,2026-10-07 23:17:10.820243,65.4,0.4459859622140018,1.880738183661262,3.180715903272896
0420,cdot_cos,S,R-S,278,55,54750,-0.0007008021854679999,-0.0011412406734247439,-0.0650903163878205,0.013968180668153292,939.0,9.359528343601244,0.6367639806444946,10.61698092197796,-0.05617417899718674,0.014,0.9999999999998599,15551.49603687764,1.3808937293194725,278,2026-10-07 23:17:10.834244,65.4,0.011763368493544885,1.243646684233887,1.2859695989670326
0420,cdot_cos,T,S-T,279,55,55018,-0.4110232632812184,0.10595416349834887,-0.41032246109575043,2.216506173096925e-12,939.0,9.376346876374255,0.636763980644497,10.636059060887037,-0.05257436442242103,0.268,0.9999999999998572,,1.3858613343522213,279,2026-10-07 23:17:11.102243,65.4,0.9338206245487672,0.21776759335840856,0.06275571930227751
0420,cdot_cos,P,T-P,280,56,55537,0.041480825727889095,-0.001723357883911693,0.4525040890091075,0.9999999999998594,958.0,9.476251773641351,0.6379120764006496,10.67431442162911,-0.3138176103384862,0.519,0.9999999999998571,-227.54482325718283,1.3908294771753649,280,2026-10-07 23:17:11.621243,65.4,0.4349742668976941,0.11427104010983419,0.19249498510037882
0420,cdot_cos,Q,P-Q,281,56,55643,-0.016803044921975104,-0.011304449275094252,-0.0582838706498642,0.02163087911682789,958.0,9.494960216008263,0.6379368933922446,10.693774847112975,-0.05913426889154813,0.106,0.9999999999998541,10262.45830291143,1.395796739760758,281,2026-10-07 23:17:11.727243,65.4,0.01347572337027639,0.5579926409427075,0.1764947393104837
0420,cdot_cos,R,Q-R,282,56,55675,0.05602137829619624,0.06553542445552527,0.07282442321817134,0.9915299880949905,958.0,9.594546213521205,0.6390736789994617,10.731875904650273,-0.31630561816390873,0.032,0.9999999999998539,-226.22678158455128,1.4007638442375674,282,2026-10-07 23:17:11.759244,65.4,0.4435046251666645,1.851935212533129,3.11206242227946
0420,cdot_cos,S,R-S,283,56,55726,-0.001145148359108589,-0.04207920315447486,-0.057166526655304827,0.023232628137877086,958.0,9.613484069610383,0.6391002965073233,10.751334985281984,-0.06052206238961079,0.051,0.9999999999998512,9609.598205224049,1.405730991151753,283,2026-10-07 23:17:11.810244,65.4,0.014606536009699503,0.3520498610093556,0.3713305115525006
0420,cdot_cos,T,S-T,284,56,55956,-0.17105727315093838,0.0867359971629066,-0.1699121247918298,1.4928060074902884e-05,958.0,9.63045529934416,0.6391003136100536,10.77031381517917,-0.0543384656257026,0.23,0.9999999999998483,361556.1164723175,1.4106985286300842,284,2026-10-07 23:17:12.040244,65.4,0.8924384064144394,0.25601386416270017,0.07378795536424669
0420,cdot_cos,P,T-P,285,57,56495,0.02637501798044443,-0.0008222787363303168,0.1974322911313828,0.9999975319305399,917.0,9.731250447125225,0.6402451940686045,10.808586826288831,-0.3242504693723878,0.539,0.9999999999998481,-235.75562123605783,1.4156667488869383,285,2026-10-07 23:17:12.579243,65.4,0.43499609017841107,0.1097753350620777,0.1870039847515127
0420,cdot_cos,Q,P-Q,286,57,56602,-0.05236226482453963,-0.029957201806721522,-0.07873728280498406,0.0057693012667065285,917.0,9.74879311054108,0.6402517946309668,10.827644421059128,-0.05677791427665636,0.107,0.999999999999845,40522.69191812312,1.4206340175881942,286,2026-10-07 23:17:12.686244,65.4,0.008997076442191963,0.5541721087987802,0.16395012538181702
0420,cdot_cos,R,Q-R,287,57,56632,0.04693321138693838,0.05883652763283728,0.09929547621147801,0.9984896828288312,917.0,9.849843278408164,0.641393349203226,10.865896523349804,-0.32858680721830463,0.03,0.999999999999845,-238.1041603676727,1.4256011162503586,287,2026-10-07 23:17:12.716243,65.4,0.4372694254024857,2.052763733516727,3.3683389289028183
0420,cdot_cos,S,R-S,288,57,56685,0.0045783439678387895,-0.12770044928718388,-0.04235486741909959,0.058966551279468905,917.0,9.871958934552083,0.6414607146301975,10.885953418948114,-0.07235986606904739,0.053,0.999999999999842,3803.537699800516,1.4305682677423655,288,2026-10-07 23:17:12.769243,65.4,0.028984065732870757,0.37025843520400664,0.4172765310173412
0420,cdot_cos,T,S-T,289,57,56913,-0.13753219402544684,0.04893877687488654,-0.14211053799328563,9.196328356361791e-05,917.0,9.889090672539789,0.6414608196878732,10.904838053965001,-0.05616460792167274,0.228,0.9999999999998388,154155.87717969323,1.4355358137969172,289,2026-10-07 23:17:12.997243,65.4,0.7494966400314971,0.26055467205460353,0.07513920170046325
0420,cdot_cos,P,T-P,290,58,57412,0.039513868236965406,0.0020760179302420955,0.17704606226241223,0.9999906377211879,919.0,9.990771865008982,0.6426023916219014,10.943128580796042,-0.33488247491926304,0.499,0.9999999999998386,-244.1526974249405,1.4405039788409562,290,2026-10-07 23:17:13.496243,65.4,0.43505378310495685,0.1233991602463003,0.20376992478796313
0420,cdot_cos,Q,P-Q,291,58,57524,-0.005419901579519652,-0.005225485803182135,-0.04493376981648506,0.05027480840654512,919.0,10.012243034465596,0.6426597418924173,10.962958263169195,-0.0711473479471716,0.112,0.9999999999998357,4598.672762999035,1.4454712635419227,291,2026-10-07 23:17:13.608243,65.4,0.024553858548783263,0.5454309757376866,0.1917068701483401
0420,cdot_cos,R,Q-R,292,58,57552,0.05752092341325582,0.08425834663582653,0.06294082499277548,0.9839573216286593,919.0,10.112948403574224,0.643781352921355,11.00094491711759,-0.33526801062768036,0.028,0.9999999999998355,-235.4832966743032,1.4504383564370482,292,2026-10-07 23:17:13.636243,65.4,0.454849068838047,2.13755368020114,3.596620325308132
0420,cdot_cos,S,R-S,293,58,57581,-0.0020302450833270696,-0.004530208398012772,-0.05955116849658289,0.01994468309363128,919.0,10.13194604055686,0.6438040715719001,11.020154925697693,-0.06362126530799493,0.029,0.9999999999998327,11956.99299039888,1.45540545266865,293,2026-10-07 23:17:13.665244,65.4,0.013985312499265882,0.6253948982102681,0.6550909304357284
0420,cdot_cos,T,S-T,294,58,57834,-0.24736837593286556,0.08413938690811071,-0.24533813084953848,1.0757109435514735e-07,919.0,10.14922130767042,0.6438040716944308,11.038944628698795,-0.057956871309336154,0.253,0.9999999999998292,46228383.61456057,1.4603730703503834,294,2026-10-07 23:17:13.918243,65.4,0.9068895233157828,0.2368279314455365,0.06828168819588705
0420,cdot_cos,P,T-P,295,59,58331,0.04235651151040418,0.00248198569529351,0.28972488744326974,0.9999999940981952,938.0,10.251780973868302,0.6449423231276387,11.077252575663005,-0.34561478579274724,0.497,0.9999999999998291,-252.71913225069716,1.4653412639238141,295,2026-10-07 23:17:14.415244,65.4,0.43504409119691634,0.12459624414452146,0.20635747725932
0420,cdot_cos,Q,P-Q,296,59,58444,-0.004020507602341306,-0.0037548060108465614,-0.046377019112745485,0.0459546112603984,938.0,10.273069974350074,0.6449945917490675,11.09691109977055,-0.07217234933130406,0.113,0.9999999999998258,5231.483612664703,1.4703085557914886,296,2026-10-07 23:17:14.528243,65.4,0.022624037070861625,0.5445867719554153,0.18839823435196718
0420,cdot_cos,R,Q-R,297,59,58471,0.06163131022570208,0.08684901629245595,0.06565181782804339,0.9865286729510941,938.0,10.374857584330226,0.6461158301450713,11.13496316382224,-0.34664690214549476,0.027,0.9999999999998256,-244.7958915717015,1.4752756449388749,297,2026-10-07 23:17:14.555244,65.4,0.4530292162329194,2.2343643450779136,3.7699114807463547
0420,cdot_cos,S,R-S,298,59,58500,-0.0008520951065908253,-0.0018363674073729795,-0.0624834053322929,0.01652180068443082,938.0,10.393725648984281,0.6461345943524011,11.154017054011618,-0.06463084898902657,0.029,0.9999999999998224,15029.467975974214,1.4802427398964082,298,2026-10-07 23:17:14.584243,65.4,0.01273387079689048,0.6257339734932763,0.6506229191053714
0420,cdot_cos,T,S-T,299,59,58752,-0.43063656405362005,0.06151453828979757,-0.4297844689470292,6.207150536191323e-13,938.0,10.411150154792836,0.6461345943524017,11.17271616784565,-0.059790370131215305,0.252,0.9999999999998187,,1.4852103704216475,299,2026-10-07 23:17:14.836244,65.4,0.9222328860042801,0.23978895398858568,0.06914486431965976
0420,cdot_cos,P,T-P,300,60,59269,0.041573686234101515,0.0019888564426355916,0.47221025028772157,0.9999999999999614,959.0,10.514579281794528,0.6472694787264603,11.211040878649762,-0.356447893039046,0.517,0.9999999999998191,-261.39889638881175,1.4901786457308768,300,2026-10-07 23:17:15.353244,65.4,0.4350646842421632,0.11963225219732403,0.20005633849457047
0420,cdot_cos,Q,P-Q,301,60,59382,-0.010544547891786368,-0.008555909416808944,-0.05211823412588788,0.03202986419021652,959.0,10.534849903564869,0.647305801551977,11.230340733086962,-0.07026834597174372,0.113,0.9999999999998156,7878.779885552146,1.495145942317598,301,2026-10-07 23:17:15.466244,65.4,0.01703191026878476,0.5442714840432478,0.17938603336584172
0420,cdot_cos,R,Q-R,302,60,59410,0.056391615396397955,0.0771196435056053,0.06693616328818433,0.987600536302675,959.0,10.637584637188302,0.648424932954016,11.268428760525476,-0.3576928712705072,0.028,0.9999999999998151,-256.8282194343654,1.5001130322901461,302,2026-10-07 23:17:15.494244,65.4,0.44773615031868363,2.1824728779394102,3.669097629408353
0420,cdot_cos,S,R-S,303,60,59440,-0.0017576478399773455,-0.003615169192061537,-0.0581492632363753,0.0218179704191137,959.0,10.657068384729476,0.6484496383415772,11.287499718434182,-0.06822623269224078,0.03,0.999999999999812,11716.741454131352,1.505080128244155,303,2026-10-07 23:17:15.524243,65.4,0.014368069656343756,0.6175860400762605,0.6494582513724367
0420,cdot_cos,T,S-T,304,60,59690,-0.2585063624176501,0.11174277448460213,-0.2567487145776728,5.100378535223577e-08,959.0,10.674639799592878,0.6484496383993301,11.30611060801769,-0.06163688911368169,0.25,0.9999999999998087,114095431.24467456,1.510047768903195,304,2026-10-07 23:17:15.774244,65.4,0.8986102796306626,0.24372335019426572,0.0702856594536101
0420,cdot_cos,P,T-P,305,61,60228,0.043068879244596674,-0.0025030838842159463,0.3015752416622468,0.999999997281052,938.0,10.778930059826608,0.6495811247639817,11.344451539287618,-0.3673741701474774,0.538,0.9999999999998086,-270.2085421311736,1.515016131470472,305,2026-10-07 23:17:16.312243,65.4,0.43508096967985777,0.11438671267374652,0.19384806734894114
0420,cdot_cos,Q,P-Q,306,61,60319,-0.023085136488897377,-0.013602031044040263,-0.06615401573349405,0.013041741758553271,938.0,10.79771990242983,0.6495958702404654,11.363291889731638,-0.06656779364960934,0.091,0.9999999999998047,20399.90886899424,1.5199833773738414,306,2026-10-07 23:17:16.403244,65.4,0.010902126091135436,0.6761942192745984,0.20648178684858154
0420,cdot_cos,R,Q-R,307,61,60365,0.05981953388518448,0.07179456773392882,0.08290467037408186,0.9956009829627792,938.0,10.901997407734585,0.6507206882675306,11.401552626592457,-0.3709852047908159,0.046,0.9999999999998046,-270.63703089420534,1.5249505113138846,307,2026-10-07 23:17:16.449243,65.4,0.4401829561651829,1.343392842523002,2.2669022892338258
0420,cdot_cos,S,R-S,308,61,60419,-0.0012883469782971875,-0.004287388832642514,-0.06110788086348167,0.01804892412502078,938.0,10.921312043941946,0.6507410642924119,11.420464430535915,-0.06910467243352555,0.054,0.999999999999801,14815.477214844093,1.529917666838182,308,2026-10-07 23:17:16.503244,65.4,0.012670823745370702,0.3428678837269988,0.3576784482844478
0420,cdot_cos,T,S-T,309,61,60647,-0.22119922162927574,0.10249433783861174,-0.21991087465097856,5.67416764069716e-07,938.0,10.939027139177101,0.6507410649329787,11.438989135067313,-0.0634893191800082,0.228,0.9999999999997973,8766225.57139131,1.534885266064891,309,2026-10-07 23:17:16.731244,65.4,0.9153528710583534,0.26942393925442726,0.07769778611910388
0420,cdot_cos,P,T-P,310,62,61166,0.04257041205696732,-0.0024335562269626404,0.26376963368624307,0.9999999677753476,898.0,11.044169360241964,0.6518691356098008,11.477345664434349,-0.37836881699412905,0.519,0.9999999999997976,-279.1310015265861,1.5398536162148126,310,2026-10-07 23:17:17.250243,65.4,0.4350899188852886,0.11901715695221209,0.20258616775503496
0420,cdot_cos,Q,P-Q,311,62,61258,-0.03357658564692904,-0.019643795549155612,-0.07614699770389635,0.006827039869746545,898.0,11.062566948093497,0.6518768311601559,11.495978485300244,-0.06657766012095276,0.092,0.9999999999997935,40515.77112523218,1.5448208677827981,311,2026-10-07 23:17:17.342243,65.4,0.00925011053484282,0.6721119124024332,0.19997378099492397
0420,cdot_cos,R,Q-R,312,62,61293,0.0567798235820951,0.07299622846902312,0.09035640922902413,0.9972932849780309,898.0,11.167837952124012,0.6530001431553752,11.534287585674312,-0.3825102745759877,0.035,0.9999999999997928,-281.250993312284,1.5497879727809023,312,2026-10-07 23:17:17.377243,65.4,0.4378208663294413,1.781233061403066,3.0077429723004196
0420,cdot_cos,S,R-S,313,62,61319,-0.004863463310610931,-0.008911538756852657,-0.06164328689270603,0.017438698225774225,898.0,11.187253262391712,0.6530197703131305,11.553104468327115,-0.0709408472036968,0.026,0.9999999999997895,15874.403785670285,1.5547550552955536,313,2026-10-07 23:17:17.403244,65.4,0.012376436414133022,0.7167721127987129,0.7467427026038438
0420,cdot_cos,T,S-T,314,62,61588,-0.21221057494783546,0.06721034133647155,-0.20734711163722452,1.2904721593633783e-06,898.0,11.205110101989545,0.6530197717655306,11.571545207458033,-0.0653551977151023,0.269,0.9999999999997861,3845806.352235948,1.5597227757747343,314,2026-10-07 23:17:17.672243,65.4,0.9180843270393354,0.23019247831055348,0.06638230333766962
0420,cdot_cos,P,T-P,315,63,62064,0.048128380036137376,0.0012266147822230153,0.26033895498397286,0.999999959669898,960.0,11.31109681572279,0.6541443941277214,11.609916726017287,-0.3894569809331523,0.476,0.999999999999786,-288.18721209374706,1.5646910475785942,315,2026-10-07 23:17:18.148243,65.4,0.4350958544565582,0.13301084532198532,0.2226611633051358
0420,cdot_cos,Q,P-Q,316,63,62176,-0.004727536878575174,-0.0042444959996517035,-0.05285591691471255,0.030567397157898916,960.0,11.331736426736075,0.654178743853372,11.628941330505453,-0.0762649355388535,0.112,0.9999999999997815,9117.74517734658,1.569658355911995,316,2026-10-07 23:17:18.260243,65.4,0.016463124621743427,0.5618087826187208,0.184282241190048
0420,cdot_cos,R,Q-R,317,63,62203,0.06150176582127491,0.08146312910433702,0.06622930269985008,0.9870214835568321,960.0,11.436941983029383,0.6552870308287927,11.66705952318991,-0.39031036314446305,0.027,0.9999999999997818,-283.361110046804,1.5746254385243899,317,2026-10-07 23:17:18.287244,65.4,0.447264838637719,2.3092099472946863,3.896502084937336
0420,cdot_cos,S,R-S,318,63,62233,-0.00094735727109121,-0.001877187224978867,-0.06244912309236612,0.016558271031550977,960.0,11.456433763889988,0.6553056090945276,11.685778625238585,-0.07270829945346413,0.03,0.9999999999997777,17095.35584335717,1.5795925302877738,318,2026-10-07 23:17:18.317244,65.4,0.012674439461943954,0.6248478902508718,0.649726028686833
0420,cdot_cos,T,S-T,319,63,62485,-0.3590116528371192,0.0983393101526731,-0.35806429556602803,6.760055451113469e-11,960.0,11.474432856444436,0.6553056090946036,11.704138062270214,-0.06725022215880398,0.252,0.9999999999997744,,1.584560221827537,319,2026-10-07 23:17:18.569243,65.4,0.9220454768113753,0.24766922774320674,0.07142497045415601
0420,cdot_cos,P,T-P,320,64,63024,0.044554754753619204,-0.0004098115461190425,0.4035664075907384,0.9999999999965521,979.0,11.581259054672564,0.6564267206983239,11.742523873205014,-0.40068764130778145,0.539,0.9999999999997741,-297.41679422681614,1.5895286979631171,320,2026-10-07 23:17:19.108243,65.4,0.4351071424304939,0.11688011373321938,0.19819331767741907
0420,cdot_cos,Q,P-Q,321,64,63135,-0.022597886478288393,-0.014072853889215581,-0.06715264123190759,0.012227284507341687,979.0,11.600429619048846,0.6564404180957688,11.761102846948091,-0.07229726671418706,0.111,0.9999999999997699,23974.65474105708,1.5944960080842454,321,2026-10-07 23:17:19.219244,65.4,0.010649696070978177,0.5665242815993741,0.17270778717370827
0420,cdot_cos,R,Q-R,322,64,63163,0.05403505221022834,0.06920468176132658,0.07663293868851673,0.9933851030684357,979.0,11.707027445187626,0.6575523688766873,11.799361334081825,-0.40356373273658985,0.028,0.9999999999997695,-297.9146844510157,1.5994630915148254,322,2026-10-07 23:17:19.247243,65.4,0.440056164312261,2.2654121109074246,3.807065219242123
0420,cdot_cos,S,R-S,323,64,63193,-0.002930626338177537,-0.005557958599073679,-0.05696567854840588,0.02353258378350135,979.0,11.727292697259662,0.6575786892874529,11.818142148302163,-0.07713605197726783,0.03,0.999999999999766,12402.073951919061,1.6044301815778097,323,2026-10-07 23:17:19.277244,65.4,0.014525591585661255,0.640088698331424,0.6755084024012111
0420,cdot_cos,T,S-T,324,64,63444,-0.19032015419838239,0.09466046628309775,-0.18738952786020485,4.759919117496753e-06,979.0,11.745432767087511,0.6575786946111658,11.836422437131652,-0.06916008675387783,0.251,0.9999999999997616,1498195.9678912715,1.609397885687926,324,2026-10-07 23:17:19.528243,65.4,0.8910754891933761,0.2505946597079662,0.07227119453326336
0420,cdot_cos,P,T-P,325,65,64003,0.04588713619357808,0.0025871826846187132,0.23620729039196048,0.9999998045491678,978.0,11.85309121643306,0.658696263424034,11.874821775377914,-0.4120060335770282,0.559,0.9999999999997621,-306.7783772018981,1.61436645526621,325,2026-10-07 23:17:20.087244,65.4,0.4351179348535421,0.11541395302524111,0.1925911437308585
0420,cdot_cos,Q,P-Q,326,65,64113,-0.004762573430101494,-0.00416822929527445,-0.050649709623679574,0.03514515127087697,978.0,11.87446556656973,0.6587355085892581,11.893785485773098,-0.08224180425512938,0.11,0.9999999999997571,8402.671448535912,1.6193337669689847,326,2026-10-07 23:17:20.197243,65.4,0.01813899778303468,0.5804703777940532,0.1943122739697242
0420,cdot_cos,R,Q-R,327,65,64145,0.055689213906999865,0.07558149503711148,0.06045178733710136,0.9811746644316818,978.0,11.980794699547753,0.6598302670980435,11.93181020709099,-0.4106848670561604,0.032,0.9999999999997571,-300.0141676591629,1.6243008597232762,327,2026-10-07 23:17:20.229243,65.4,0.44944367383890255,1.9800844528836403,3.322785405563189
0420,cdot_cos,S,R-S,328,65,64172,-0.0014694589325568107,-0.0028310887773473964,-0.057158672839556675,0.02324428694984724,978.0,12.001190971554283,0.6598561815870883,11.950509962829239,-0.07919400888897547,0.027,0.9999999999997533,12791.718856372778,1.6292679393329779,328,2026-10-07 23:17:20.256243,65.4,0.015209922466730565,0.7162372906622599,0.755417481723368
0420,cdot_cos,T,S-T,329,65,64442,-0.2650942672693865,0.12742822366844136,-0.2636248083368297,3.253132070255809e-08,978.0,12.019471513243515,0.659856181623356,11.968713332033259,-0.07109359194535904,0.27,0.9999999999997491,223350311.03964922,1.6342357130014464,329,2026-10-07 23:17:20.526243,65.4,0.8923113288289894,0.2347525129142006,0.06770570996011518
0420,cdot_cos,P,T-P,330,66,64981,0.041994898115813355,-0.0010245368374655508,0.30708916538519987,0.9999999981042123,938.0,12.127957328527952,0.6609701498624094,12.007125381425743,-0.4234557151884079,0.539,0.9999999999997488,-316.3125400617055,1.6392042643512257,330,2026-10-07 23:17:21.065243,65.4,0.4351297935360085,0.11872030889617961,0.20127238457223975
0420,cdot_cos,Q,P-Q,331,66,65090,-0.02478338809758111,-0.015572415615259214,-0.06677828621339446,0.012526541343393836,938.0,12.147452006233596,0.6609840927634584,12.025558098088542,-0.07649591364840638,0.109,0.9999999999997435,24884.333634872382,1.644171577462975,331,2026-10-07 23:17:21.174243,65.4,0.01071978133882656,0.5865063894220175,0.1788502541802238
0420,cdot_cos,R,Q-R,332,66,65120,0.05531861240620063,0.07044608883077336,0.08010200050378175,0.99472071235073,938.0,12.255815721421952,0.6620903919492119,12.06386763831528,-0.4267701660148776,0.03,0.9999999999997434,-316.6180151600507,1.6491386626477444,332,2026-10-07 23:17:21.204243,65.4,0.44009873358029605,2.1428183359883652,3.612123839611847
0420,cdot_cos,S,R-S,333,66,65139,-0.004635276086754024,-0.008762657709793831,-0.05995388849295465,0.019436316223414237,938.0,12.276021106392898,0.6621119908435895,12.082416588143884,-0.07999188910408986,0.019,0.999999999999739,16055.371670815342,1.6541057167091917,333,2026-10-07 23:17:21.223244,65.4,0.013099673305615933,1.0164216228819636,1.0634413142603412
0420,cdot_cos,T,S-T,334,66,65400,-0.22717614497226782,0.09300035059279226,-0.2225408688855138,4.777523653274472e-07,938.0,12.294439743091466,0.6621119913744906,12.100544753027586,-0.07303307050001209,0.261,0.9999999999997352,13107561.074588053,1.6590734809240608,334,2026-10-07 23:17:21.484244,65.4,0.9091155119389003,0.2446814841974798,0.07056948926654458
0420,cdot_cos,P,T-P,335,67,65919,0.04150248733830977,-0.003094398978320959,0.2686786323105776,0.9999999766246216,939.0,12.403744841143983,0.6632223423982591,12.138968639148462,-0.43496290623041595,0.519,0.9999999999997345,-325.9598343072116,1.664042011317911,335,2026-10-07 23:17:22.003244,65.4,0.43513734329349174,0.12698728494041653,0.21060712534203527
0420,cdot_cos,Q,P-Q,336,67,66012,-0.005564744868392482,-0.003974669713965598,-0.047067232206702246,0.044015620705517046,939.0,12.426252544859619,0.6632711739230818,12.157968290244927,-0.09003757380926525,0.093,0.9999999999997304,7063.578982500275,1.6690092815682864,336,2026-10-07 23:17:22.096244,65.4,0.02168999159411425,0.7061270025257147,0.24201831952296818
0420,cdot_cos,R,Q-R,337,67,66040,0.0661401602824837,0.07167406310584921,0.07170490515087619,0.9908924367792522,939.0,12.535084463613765,0.6643695592699619,12.196210745280508,-0.43695784684614664,0.028,0.9999999999997304,-315.8456856897113,1.673976359365925,337,2026-10-07 23:17:22.124243,65.4,0.4520581369661112,2.292855783874107,3.8868542412195315
0420,cdot_cos,S,R-S,338,67,66068,-0.0029714205405906866,-0.00456901184469019,-0.06911158082307439,0.010772823525843907,939.0,12.554652468756569,0.664381490997532,12.21451196294852,-0.07896790591275464,0.028,0.9999999999997257,30003.19432628331,1.6789434382685426,338,2026-10-07 23:17:22.152243,65.4,0.010744514470183167,0.6808254063119483,0.6988573265286822
