record_id,input,event,transition,event_index,k,peak,value_cos,value_sin,value_return,x_input,rr,knowledge,decision,decision_norm,entropy,delta_t,cosine_similarity,delta_h_over_delta_d,frobenius_norm,matrix_size,timestamp,scale,P,zdot,zdot_back
0237,cdot_cos,Q,P-Q,1,0,840,-0.0027226027269356937,-0.0035987533484537434,-0.05997086337104195,0.1825341895596515,878.0,0.0009066731536271409,0.500226668272879,0.500226668272879,,,1.0,,0.004967141530112327,1,2026-10-08 00:46:16.924243,25.0,,,
0237,cdot_cos,R,Q-R,2,0,887,0.04877849023166164,0.14348723063891416,0.05150109295859734,0.7837283690535489,878.0,0.006787606923845938,0.5011998884176048,0.7088036796600586,-8.160115958278722e-06,,1.0,,0.009934283060224654,2,2026-10-08 00:46:16.971244,25.0,,,
0237,cdot_cos,S,R-S,3,0,941,0.020438892989152104,-0.05784540921120891,-0.028339597242509538,0.32993259604309594,878.0,0.011151609564260943,0.50160959063579,0.868813296545014,-1.4117848817083551e-05,0.054,1.0,-0.014541617287780605,0.014901424597277137,3,2026-10-08 00:46:17.025243,25.0,0.6557340088314143,0.05670368241891939,0.08081486371138899
0237,cdot_cos,T,S-T,4,0,1187,-0.2055455113299241,-0.14699136299826907,-0.2259844043190762,0.003506549337918587,878.0,0.012911604625089232,0.5016139449722538,1.003227889945446,-7.637392540969161e-06,0.246,1.0,1.488276418254363,0.019868566173517614,4,2026-10-08 00:46:17.271244,25.0,0.42804932189429123,0.029222384634940587,0.007154451466781662
0237,cdot_cos,P,T-P,5,1,1588,0.06304126729949397,0.0002442531097569049,0.26858677862941804,0.9987884826752238,858.0,0.025529022804651712,0.5028542005129083,1.1244161751267294,-8.746440873870326e-05,0.401,0.9999999999999999,-0.06436336188879704,0.024835707851068735,5,2026-10-08 00:46:17.672243,25.0,0.40144690506553476,0.02118875564880725,0.03146488324080419
0237,cdot_cos,Q,P-Q,6,1,1698,-0.003468428794876477,-0.0035934185184444555,-0.06650969609437045,0.1593942054635459,858.0,0.02990498665543265,0.5030521269998796,1.2322210251947632,-4.374398926591066e-05,0.11,1.0,0.22089221175911597,0.02980284943364662,6,2026-10-08 00:46:17.782243,25.0,0.3680777124965678,0.07960841263193776,0.03978148955255399
0237,cdot_cos,R,Q-R,7,1,1753,0.056478097531328465,0.1391546550711177,0.059946526326204945,0.8173750063209021,858.0,0.04304287358367802,0.5040670795426055,1.3336361365980172,-0.00017281995720587083,0.055,1.0,-0.12717438747755064,0.0347699909918183,7,2026-10-08 00:46:17.837244,25.0,0.4738420941711668,0.1900981932647967,0.23887067142264304
0237,cdot_cos,S,R-S,8,1,1798,0.030254178002990552,-0.05835092718908618,-0.026223919528337913,0.34172915457298414,858.0,0.05081578791456029,0.5044914027031226,1.426917167647195,-0.0001315551168456458,0.045,1.0,0.09724861662026033,0.03973713256614605,8,2026-10-08 00:46:17.882244,25.0,0.7307604344052466,0.12377586555641132,0.1727314295751616
0237,cdot_cos,T,S-T,9,1,2047,-0.127325502796725,-0.025292201806165017,-0.15757968079971554,0.019086705598779168,858.0,0.054182701483755036,0.5045151023725261,1.5135453071707126,-6.374764640533739e-05,0.249,0.9999999999999998,2.8611146124491,0.04470427455539274,9,2026-10-08 00:46:18.131244,25.0,0.3451811713281888,0.04388148570967124,0.013521741241745967
0237,cdot_cos,P,T-P,10,2,2446,0.057727579238834495,0.0027335452524470494,0.18505308203555948,0.9903042737826067,879.0,0.07266876779797657,0.5057447176761276,1.599305222605937,-0.00042283139574624744,0.399,1.0000000000000002,-0.29202934307108225,0.04967141704649123,10,2026-10-08 00:46:18.530244,25.0,0.4277414943531613,0.03142969663149944,0.04633099326872565
0237,cdot_cos,Q,P-Q,11,2,2576,-0.0015819228723821122,-0.002094579379629085,-0.059309502111216605,0.1850142841534915,879.0,0.0792635993956916,0.5059744341524499,1.678127351915986,-0.000180666052515612,0.13,1.0,1.0541923117907446,0.05463855887127965,11,2026-10-08 00:46:18.660243,25.0,0.26174013062780194,0.09246554486226295,0.05072947382857712
0237,cdot_cos,R,Q-R,12,2,2621,0.056181263426042856,0.151569296784329,0.057763186298424966,0.809085614891816,879.0,0.09670980946216494,0.5069789759228137,1.7562266897334098,-0.0005535388115784728,0.045,1.0,-0.3711869133404216,0.05960570042471366,12,2026-10-08 00:46:18.705244,25.0,0.5098614345324918,0.2766734169450846,0.387693557032741
0237,cdot_cos,S,R-S,13,2,2654,-0.0003458154891622822,-0.004176977992047596,-0.056527078915205135,0.19573344787868396,879.0,0.10416420692074921,0.5072219858354302,1.8288148783944234,-0.00026997916175918504,0.033,0.9999999999999999,1.1668645396650217,0.06457284196886977,13,2026-10-08 00:46:18.738244,25.0,0.34983208870651744,0.17363550947826834,0.22589083207831118
0237,cdot_cos,T,S-T,14,2,2906,-0.2215300184977552,-0.12523628895797873,-0.2211842030085929,0.003951876376292415,879.0,0.10816975308773065,0.5072268921932332,1.8978692483916848,-0.00015334690472453,0.252,1.0,23.771657452801414,0.0695399847249011,14,2026-10-08 00:46:18.990243,25.0,0.46739627032311243,0.05361472687482251,0.015895024472148578
0237,cdot_cos,P,T-P,15,3,3325,0.05749150419080279,0.0010387627000351144,0.27902152268855795,0.9990664089786782,877.0,0.13118602926565975,0.5084672120469721,1.9692850451104655,-0.0009932051736822583,0.419,0.9999999999999996,-0.6771303921533153,0.07450712874042174,15,2026-10-08 00:46:19.409244,25.0,0.4292979833557983,0.036485287194976165,0.054931446725367795
0237,cdot_cos,Q,P-Q,16,3,3435,-0.007693817978670684,-0.006599235381220119,-0.06518532216947347,0.16388063531494912,877.0,0.13874442375712068,0.5086706568509473,2.0346826287114674,-0.00036782002487918816,0.11,0.9999999999999998,3.0739794606866626,0.07947427076526638,16,2026-10-08 00:46:19.519244,25.0,0.1826382801948363,0.13088199300135045,0.06871267719509931
0237,cdot_cos,R,Q-R,17,3,3494,0.05527822502058046,0.13336294190639975,0.06297204299925115,0.8283958963486172,877.0,0.15998006772595685,0.5096989992773667,2.1015428127635296,-0.0011435558234048795,0.059,0.9999999999999997,-0.7543555323557771,0.0844414124555833,17,2026-10-08 00:46:19.578244,25.0,0.5074515122534259,0.2546742002295956,0.359926168963325
0237,cdot_cos,S,R-S,18,3,3533,-0.0006128831813306465,-0.006065159144475741,-0.05589110820191111,0.19824845392935045,877.0,0.16879597938421295,0.5099450863053793,2.163513772910499,-0.0005224925495460882,0.039,0.9999999999999997,2.5237546199596377,0.08940855403102584,18,2026-10-08 00:46:19.617243,25.0,0.3046307797094196,0.17667560972659585,0.2260490168783615
0237,cdot_cos,T,S-T,19,3,3782,-0.16620863418093723,-0.02467730848477159,-0.16559575099960658,0.01567492695116098,877.0,0.17376076528463133,0.5099645434847818,2.222883911456522,-0.00030658088767460893,0.249,0.9999999999999996,11.096760604632909,0.09437569787338197,19,2026-10-08 00:46:19.866244,25.0,0.49447595324693405,0.06339290695878783,0.01993889919846738
0237,cdot_cos,P,T-P,20,4,4202,0.04146263963191545,0.0022483818174409476,0.2076712738128527,0.9944686784916854,900.0,0.2003656470496893,0.5111989064159791,2.2861510118210018,-0.0017940986969350525,0.42,0.9999999999999999,-1.2050895013653888,0.09934284403115304,20,2026-10-08 00:46:20.286243,25.0,0.43643446843318057,0.04172353655288823,0.06334495658347133
0237,cdot_cos,Q,P-Q,21,4,4333,-0.02682257502161748,-0.0236880137223463,-0.06828521465353293,0.15353629099405824,900.0,0.20880853598905744,0.5113894682546164,2.343480951344138,-0.0006226707241980754,0.131,0.9999999999999997,6.147232736175222,0.10430998673351,21,2026-10-08 00:46:20.417243,25.0,0.15239246973208914,0.12635742540551453,0.06444953388830647
0237,cdot_cos,R,Q-R,22,4,4376,0.041834581850960326,0.1000384740127892,0.06865715687257781,0.8476682868642199,900.0,0.2334712925059341,0.512441492153733,2.4035636546499406,-0.0019658678376222273,0.043,0.9999999999999996,-1.276774334263717,0.1092771282632564,22,2026-10-08 00:46:20.460243,25.0,0.5049685584228678,0.6132430719315751,0.5735524771366666
0237,cdot_cos,S,R-S,23,4,4433,0.16725175369089207,-0.21315619580863238,0.12541717183993173,0.9583307409672929,900.0,0.2615474401751729,0.5136307237540846,2.463286420275736,-0.002504498766139426,0.057,0.9999999999999997,-0.4529234914023219,0.11424427021472873,23,2026-10-08 00:46:20.517244,25.0,0.8064887264294741,0.2987517173257484,0.4925639941971719
0237,cdot_cos,T,S-T,24,4,4661,-0.001120618272076635,-7.909536620705703e-05,-0.1683723719629687,0.014639138077137431,900.0,0.2675289882810694,0.5136488888936083,2.516355373697144,-0.0005702861464316871,0.228,0.9999999999999997,106.4793703998692,0.11921141576211718,24,2026-10-08 00:46:20.745243,25.0,0.03365300836735735,0.06454129591429204,0.026234860113581213
0237,cdot_cos,P,T-P,25,5,5102,0.03706560743877086,-0.0005744112228091966,0.038186225710847496,0.7220505008507805,859.0,0.29097827111209007,0.5145448076916379,2.572724044186006,-0.00235980045814188,0.441,0.9999999999999996,-1.9974068137043304,0.12417856614080891,25,2026-10-08 00:46:21.186244,25.0,0.46844672655338976,0.037000628224689885,0.053172976941089925
0237,cdot_cos,Q,P-Q,26,5,5211,-0.03718479844050066,-0.029267467077917636,-0.07425040587927152,0.13513955808986083,859.0,0.3001635423752459,0.5147124783707142,2.6245289798804716,-0.0009783450023524971,0.109,0.999999999999999,8.239099784171017,0.1291457091631106,26,2026-10-08 00:46:21.295244,25.0,0.24364743730535704,0.1736777544620693,0.0842685436986773
0237,cdot_cos,R,Q-R,27,5,5264,0.046249565114587755,0.10989997319136786,0.08343436355508842,0.8895211406221742,859.0,0.3288400215848212,0.5158160427989473,2.680258789951891,-0.0032495911218034202,0.053,0.999999999999999,-2.058100153778376,0.1341128509647092,27,2026-10-08 00:46:21.348243,25.0,0.4971154969507056,0.49531581894029697,0.5410656454636845
0237,cdot_cos,S,R-S,28,5,5311,0.0758413180514673,-0.14260256731404639,0.029591752936879538,0.6769507694524322,859.0,0.3526670191829174,0.5166557837965953,2.7338854444745686,-0.0029251088570587626,0.047,0.999999999999999,0.38640755382136954,0.139079992803615,28,2026-10-08 00:46:21.395243,25.0,0.8950014154276801,0.32655947610774594,0.5069573957041744
0237,cdot_cos,T,S-T,29,5,5561,-0.07332800056238196,-0.013367753390263127,-0.14916931861384924,0.02344822512581768,859.0,0.3595366123389493,0.5166848690926253,2.782433183548925,-0.0008813245735054473,0.25,0.9999999999999982,70.26864300917153,0.1440471409851435,29,2026-10-08 00:46:21.645243,25.0,0.09837273459020954,0.07872887572144116,0.027478372624127667
0237,cdot_cos,P,T-P,30,6,5961,0.063668861082272,0.005433448013914575,0.13699686164465397,0.9684743818467454,897.0,0.39203145704363795,0.517886068510489,2.8365788323836916,-0.004398567280379607,0.4,0.9999999999999978,-2.9281089006266368,0.1490142945269593,30,2026-10-08 00:46:22.045243,25.0,0.44949357551806646,0.054380332978289855,0.08123711176172166
0237,cdot_cos,Q,P-Q,31,6,6090,-0.0015497875617601214,-0.0019281607395237495,-0.06521864864403212,0.16376650430115303,897.0,0.4030408787215812,0.5180891681630752,2.884598424981605,-0.0015764742901091997,0.129,0.9999999999999977,13.89511480859641,0.15398143912043324,31,2026-10-08 00:46:22.174243,25.0,0.16693856480907257,0.15548094502338322,0.0853443540925831
0237,cdot_cos,R,Q-R,32,6,6138,0.055494722845623234,0.15206352136102752,0.057044510407383356,0.8062949161094475,897.0,0.43214554085967083,0.5190890291288549,2.9364109995380936,-0.00437720678785782,0.048,0.9999999999999973,-2.801121949554693,0.15894858087792527,32,2026-10-08 00:46:22.222244,25.0,0.527374326899358,0.43189050627245235,0.6063471278768677
0237,cdot_cos,S,R-S,33,6,6169,-0.00039935664878253823,-0.0033826025420555426,-0.05589407949440577,0.19823664731724722,897.0,0.4445023673237366,0.519334833054959,2.9833515026808586,-0.0019505936003981433,0.031,0.999999999999997,9.872149830642941,0.1639157221081614,33,2026-10-08 00:46:22.253243,25.0,0.2882179480653918,0.3076631389275309,0.3986073052924443
0237,cdot_cos,T,S-T,34,6,6437,-0.27064305472203687,-0.1763133283762778,-0.2702436980732543,0.0011624149982536653,897.0,0.45122065547317775,0.5193362743662685,3.02822485296879,-0.0010835948035515367,0.268,0.9999999999999968,601.5347212758352,0.16888287328050763,34,2026-10-08 00:46:22.521244,25.0,0.4492779822728838,0.07963890125653295,0.02506823936358635
0237,cdot_cos,P,T-P,35,7,6858,0.07364731112255389,-0.0029337057703715326,0.3442903658445908,0.9998172592184563,877.0,0.48718881839723827,0.5205758544086596,3.0797683120205543,-0.00607657842006093,0.421,0.9999999999999968,-4.027963863372707,0.17385003174812377,35,2026-10-08 00:46:22.942244,25.0,0.43969374990937987,0.05562855301323289,0.08543506632793472
0237,cdot_cos,Q,P-Q,36,7,6968,-0.0013816380685694803,-0.0013691606770161256,-0.07502894919112336,0.13288082735154041,877.0,0.49805989711031984,0.5207405821971071,3.124443524343325,-0.0019282135966893726,0.11,0.9999999999999954,25.183151321763425,0.1788171763476587,36,2026-10-08 00:46:23.052243,25.0,0.1163208265820523,0.19961631401260826,0.09882798830074156
0237,cdot_cos,R,Q-R,37,7,7018,0.07336425352520909,0.1509089271165094,0.07474589159377856,0.8663016800292073,877.0,0.5311044074800121,0.5218143944205762,3.1740730790097773,-0.006121264316881054,0.05,0.9999999999999951,-3.9048267737587232,0.1837843182107962,37,2026-10-08 00:46:23.102243,25.0,0.5040914925781091,0.44348016753981145,0.660890207393845
0237,cdot_cos,S,R-S,38,7,7048,-0.00048123962094260344,-0.0022004697880273227,-0.07384549314615169,0.13632705707676732,877.0,0.542407913864301,0.5219833586283077,3.2177215586810974,-0.002184059341667365,0.03,0.9999999999999946,23.302005957797025,0.1887514592032924,38,2026-10-08 00:46:23.132244,25.0,0.16485309262051256,0.30800435972238216,0.3767835461429633
0237,cdot_cos,T,S-T,39,7,7315,-0.23581904298690354,-0.11213072044481086,-0.23533780336596094,0.0027774379239575995,877.0,0.549584669063355,0.5219868009419475,3.259806560743008,-0.0014105606833901187,0.267,0.9999999999999939,224.70313260646697,0.1937186131039399,39,2026-10-08 00:46:23.399244,25.0,0.5778953086910427,0.08533539102531008,0.02687923295525854
0237,cdot_cos,P,T-P,40,8,7735,0.051230690621739766,0.0034373927673314766,0.2870497336086433,0.9992360495161853,880.0,0.5879770126718166,0.5232251006082633,3.309166133078311,-0.007858978029775178,0.42,0.9999999999999933,-5.207477254330747,0.19868577634181728,40,2026-10-08 00:46:23.819244,25.0,0.44020444315316404,0.06223059210433213,0.09141034192490846
0237,cdot_cos,Q,P-Q,41,8,7866,-0.0025448755041213482,-0.0033944311195155696,-0.05377556612586112,0.20678919052593928,880.0,0.601858366430994,0.5234813282165229,3.3519160290149013,-0.00297196959261459,0.131,0.9999999999999926,19.072919075172894,0.20365292307754276,41,2026-10-08 00:46:23.950243,25.0,0.19313479700500488,0.1790413872885687,0.1059645325128048
0237,cdot_cos,R,Q-R,42,8,7909,0.052746770386988336,0.13626655114716468,0.055291645891109686,0.7993587164831598,880.0,0.6348858561414216,0.5244716773105134,3.3989649955504038,-0.007348495423020726,0.043,0.9999999999999916,-4.4191748717330945,0.20862006451686588,42,2026-10-08 00:46:23.993243,25.0,0.551249584208293,0.6050060289336291,0.7680811560564552
0237,cdot_cos,S,R-S,43,8,7966,0.028465962579234297,-0.0659969501404559,-0.02428080780775404,0.35273923095883986,880.0,0.6538888849192861,0.5249086356128836,3.4420561607129927,-0.0044056017776542295,0.057,0.9999999999999913,6.734953036486839,0.21358720715429438,43,2026-10-08 00:46:24.050244,25.0,0.5127386452267952,0.23747837681275014,0.33338646978709696
0237,cdot_cos,T,S-T,44,8,8196,-0.13765384284364302,-0.022956276983226657,-0.1661198054228773,0.015474060563203934,880.0,0.6619583910980751,0.5249278033502174,3.48197718441363,-0.0019101003229714227,0.23,0.99999999999999,130.19280321018203,0.21855436198022238,44,2026-10-08 00:46:24.280244,25.0,0.2707724059515191,0.10563316378864318,0.035084809472995596
0237,cdot_cos,P,T-P,45,9,8615,0.05333790660297458,-0.0018783489348321804,0.1909917494466176,0.9916308097602845,859.0,0.702480140262062,0.5261559819844863,3.5295616869597746,-0.009943439059502407,0.419,0.99999999999999,-6.540855305883696,0.22352153126034607,45,2026-10-08 00:46:24.699244,25.0,0.4457917110823367,0.06426296570255137,0.09671061852980162
0237,cdot_cos,Q,P-Q,46,9,8723,-0.01143998587347209,-0.010658668546856532,-0.06477789247644666,0.1652811067371594,859.0,0.7158107563568131,0.5263606595824061,3.569951755541576,-0.0034000967086597186,0.108,0.9999999999999878,31.969020632184765,0.22848867764285347,46,2026-10-08 00:46:24.807244,25.0,0.1459548841955646,0.23195284611589523,0.12343163050695527
0237,cdot_cos,R,Q-R,47,9,8776,0.058755138021854426,0.13102225148788563,0.07019512389532652,0.8525670168726281,859.0,0.7525819550230953,0.5274163027087212,3.6157840770604808,-0.009707934455240992,0.053,0.9999999999999879,-5.975350560562757,0.23345581993005507,47,2026-10-08 00:46:24.860243,25.0,0.5221705311901855,0.5328053963946047,0.6937962012506076
0237,cdot_cos,S,R-S,48,9,8805,0.03243853613062872,-0.08058641574560452,-0.026316601891225706,0.3412081226555235,859.0,0.7722881283746412,0.527838716314435,3.6569739756268955,-0.00540220798448393,0.029,0.9999999999999865,10.193152901599742,0.23842296045486847,48,2026-10-08 00:46:24.889244,25.0,0.450665067693204,0.48620139960124314,0.679523219018824
0237,cdot_cos,T,S-T,49,9,9073,-0.13745227751206046,-0.024629040037813476,-0.16989081364268918,0.014101526308776723,859.0,0.7807816361999674,0.5278561730657266,3.694993288029742,-0.0023714420695951292,0.268,0.9999999999999853,173.61568966988798,0.24339012201272262,49,2026-10-08 00:46:25.157243,25.0,0.27858653631990754,0.09541382239392186,0.031692193378082864
0237,cdot_cos,P,T-P,50,10,9474,0.04092868513803876,0.0022496966154693762,0.17838096265009923,0.9885644177839661,878.0,0.8234299371777833,0.5290797778239364,3.7411590736562337,-0.012296355898190399,0.401,0.9999999999999849,-8.111208919386529,0.2483572964633241,50,2026-10-08 00:46:25.558244,25.0,0.4461309794376851,0.07016682370234081,0.10635486528133643
0237,cdot_cos,Q,P-Q,51,10,9603,-0.027481754184131544,-0.02401617042809567,-0.06841043932217031,0.1531298681285567,878.0,0.8370554288092448,0.5292692848512268,3.779738819789368,-0.0040661276138914924,0.129,0.9999999999999825,43.429673305403284,0.2533244460760542,51,2026-10-08 00:46:25.687244,25.0,0.1321133610538914,0.20308421422761777,0.1056239661353599
0237,cdot_cos,R,Q-R,52,10,9647,0.04330193376469076,0.1130738804368136,0.07078368794882231,0.8544069496630415,878.0,0.8758256644485087,0.5303265062369452,3.824238929330786,-0.011931899416237976,0.044,0.9999999999999817,-7.440042273645048,0.2582915876331067,52,2026-10-08 00:46:25.731244,25.0,0.5172535490378318,0.8041273331713092,0.881141719074181
0237,cdot_cos,S,R-S,53,10,9702,0.06858382339211447,-0.11483542623468951,0.025281889627423705,0.6529535227688842,878.0,0.90781863412832,0.5311342713537079,3.866715969813166,-0.010250856668098359,0.055,0.9999999999999813,2.0811034213469357,0.2632587307296263,53,2026-10-08 00:46:25.786243,25.0,0.8487501149646038,0.37652457201032524,0.5816903578147499
0237,cdot_cos,T,S-T,54,10,9933,-0.07850610264271965,-0.01267676544361317,-0.14708992603483412,0.024668551397951117,878.0,0.9172433673696445,0.5311647855080951,3.903248191797159,-0.0030898737315705753,0.231,0.9999999999999795,234.67741709870563,0.26822589334674735,54,2026-10-08 00:46:26.017244,25.0,0.09851318223411139,0.11596561267863507,0.040799711001404906
0237,cdot_cos,P,T-P,55,11,10352,0.05925558203759535,-0.000267485651438931,0.137761684680315,0.9690529662605344,874.0,0.9613947471858494,0.532363284208793,3.948111904950026,-0.01489527923317695,0.419,0.9999999999999789,-9.850161284890953,0.2731930781287325,55,2026-10-08 00:46:26.436243,25.0,0.4526843475495534,0.07082535832538982,0.10537322151838872
0237,cdot_cos,Q,P-Q,56,11,10461,-0.0028075839829174525,-0.0027405648966779984,-0.0620631660205128,0.17485830678228423,874.0,0.9765950176463212,0.5325795049072835,3.9854602215264534,-0.005289803475056138,0.109,0.9999999999999758,44.42440444037263,0.27816022741400115,56,2026-10-08 00:46:26.545243,25.0,0.1626999819504786,0.25203857411724284,0.13945202257313566
0237,cdot_cos,R,Q-R,57,11,10516,0.06014460224001164,0.14040962832406254,0.0629521862229291,0.828325315779357,874.0,1.0163391563434083,0.5336036013231669,4.028618993656624,-0.014219506557305178,0.055,0.9999999999999748,-8.71959216315198,0.2831273704681152,57,2026-10-08 00:46:26.600243,25.0,0.533663568782475,0.5042351074640017,0.7226207035834027
0237,cdot_cos,S,R-S,58,11,10561,-0.0002513923190781585,-0.0036480062623537313,-0.0603959945590898,0.180953633779474,874.0,1.0320608794673614,0.5338272851774089,4.065507633354165,-0.005781054705429507,0.045,0.9999999999999734,37.72490366133807,0.28809451256242175,58,2026-10-08 00:46:26.645243,25.0,0.23231213249408453,0.27642308096170376,0.34937162497673413
0237,cdot_cos,T,S-T,59,11,10809,-0.19412376226884084,-0.023877624684441382,-0.19387236994976267,0.007792200611160517,874.0,1.0412172336299617,0.5338369171160958,4.100479319370633,-0.003407777019096161,0.248,0.9999999999999702,246.39667708262536,0.2930616810971505,59,2026-10-08 00:46:26.893243,25.0,0.49836134928133236,0.11358382195058285,0.036920782913710884
0237,cdot_cos,P,T-P,60,12,11226,0.0523510724335545,0.0029727331536505146,0.24647483470239534,0.9978961303794022,901.0,1.0883984551548505,0.5350702054738891,4.144636158439432,-0.01803072153882457,0.417,0.9999999999999692,-11.85687388300146,0.2980288732012892,60,2026-10-08 00:46:27.310244,25.0,0.44441270706317426,0.07510500564597973,0.11314441612683164
0237,cdot_cos,Q,P-Q,61,12,11360,-0.012339246492717927,-0.012221520928814615,-0.06469031892627243,0.1655833764408577,901.0,1.1038548083387087,0.5352748069980029,4.180630083514315,-0.006080164372763992,0.134,0.9999999999999661,58.408935211116194,0.30299602727033725,61,2026-10-08 00:46:27.444243,25.0,0.14008596232231807,0.21306345603939122,0.11534591928252459
0237,cdot_cos,R,Q-R,62,12,11403,0.05233840930307509,0.13597826288947834,0.06467765579579302,0.8343728787274992,901.0,1.1454994613734073,0.5363056098824616,4.222874798801062,-0.0168037353048708,0.043,0.9999999999999646,-10.403124684442774,0.307963168692356,62,2026-10-08 00:46:27.487243,25.0,0.5282604163709931,0.7764203254815719,0.9684803031325245
0237,cdot_cos,S,R-S,63,12,11460,0.03677973607645374,-0.07198914172216049,-0.015558673226621349,0.40396603990857133,901.0,1.170626956330124,0.5368045676530289,4.260754371236722,-0.010438460844588328,0.057,0.9999999999999625,12.75714065550149,0.3129303126111545,63,2026-10-08 00:46:27.544243,25.0,0.5434647024566147,0.30817939389712157,0.44083324485467756
0237,cdot_cos,T,S-T,64,12,11689,-0.12121126725614897,-0.010905553875236871,-0.15799100333260271,0.01889513101502203,901.0,1.1806319122776792,0.5368279041364316,4.294623441377862,-0.004219273129361276,0.229,0.9999999999999594,266.50063798857195,0.31789748316651095,64,2026-10-08 00:46:27.773243,25.0,0.22900875335876703,0.1279093176988093,0.04368976396312331
0237,cdot_cos,P,T-P,65,13,12127,0.04253992817267729,0.0010956371136346041,0.16375119542882627,0.9835974496522798,900.0,1.2292094238361786,0.5380424737151757,4.337837328213675,-0.020988763862089168,0.438,0.9999999999999581,-13.806941179992284,0.3228646878154851,65,2026-10-08 00:46:28.211244,25.0,0.44978990973392974,0.07361175244010952,0.11090756063584345
0237,cdot_cos,Q,P-Q,66,13,12238,-0.023565683074074577,-0.01768354048064221,-0.06610561124675186,0.16075242724789165,900.0,1.245115807415215,0.5382409321064516,4.372690263958022,-0.007056103314950034,0.111,0.9999999999999535,70.20444163414041,0.3278318402782176,66,2026-10-08 00:46:28.322243,25.0,0.13882314429489886,0.27690471851977744,0.14330075296429287
0237,cdot_cos,R,Q-R,67,13,12291,0.05990101160342267,0.12414552886210144,0.08346669467749725,0.8896005477541442,900.0,1.2906822713475692,0.5393389758566551,4.414680049417405,-0.02070846034379698,0.053,0.999999999999952,-12.43334523448334,0.3327989834119091,67,2026-10-08 00:46:28.375243,25.0,0.5172315117164837,0.6651467035704923,0.8597446024972469
0237,cdot_cos,S,R-S,68,13,12338,0.039396151361301174,-0.10191764618662301,-0.020504860242121496,0.37457918466892426,900.0,1.3156213579936873,0.5398012094848471,4.451315078332416,-0.011647411509100255,0.047,0.9999999999999494,19.602746927217176,0.33776612593501676,68,2026-10-08 00:46:28.422244,25.0,0.45934887457033197,0.3793567325233573,0.5306188648110235
0237,cdot_cos,T,S-T,69,13,12587,-0.10518197229147637,-0.002183198876496905,-0.14457812365277756,0.0262253581672704,900.0,1.3263418042047648,0.5398335692258331,4.484194682050408,-0.005075268042439317,0.249,0.9999999999999456,203.09629392576917,0.34273330503918387,69,2026-10-08 00:46:28.671244,25.0,0.27391560112499647,0.12242785968495568,0.04305400084770074
0237,cdot_cos,P,T-P,70,14,13027,0.047874582626088916,-0.002762553745071273,0.15305655491756529,0.9786769690248986,896.0,1.3765904321167952,0.5410409264366088,4.526673455619032,-0.024328088261874936,0.44,0.9999999999999439,-15.94625024607771,0.3477005206213252,70,2026-10-08 00:46:29.111244,25.0,0.45321784592621667,0.0761562209799454,0.11420142707279646
0237,cdot_cos,Q,P-Q,71,14,13136,-0.016536548996168045,-0.012038400239368583,-0.06441113162225696,0.16654998017680234,896.0,1.3933592786671167,0.5412463453504252,4.560623109756717,-0.00831944068665556,0.109,0.999999999999938,77.93171172901053,0.3526676744824382,71,2026-10-08 00:46:29.220243,25.0,0.14598583933652512,0.29291280956072774,0.15384262890203224
0237,cdot_cos,R,Q-R,72,14,13185,0.06515888754076223,0.12017267905102602,0.08169543653693027,0.8851759938406428,896.0,1.4404454246010339,0.542337864158402,4.60188972618182,-0.023890349816417557,0.049,0.9999999999999364,-14.265360354736112,0.3576348170500671,72,2026-10-08 00:46:29.269243,25.0,0.5211248452898433,0.7233486283537977,0.9609417537534108
0237,cdot_cos,S,R-S,73,14,13236,0.03609791626456,-0.10238381123170825,-0.029060971276202226,0.32595791275227215,896.0,1.464247444245789,0.5427397041057823,4.637170416488871,-0.012376950501436931,0.051,0.9999999999999326,28.6517042171628,0.36260196048680926,73,2026-10-08 00:46:29.320243,25.0,0.3944633351858722,0.3447560455133039,0.4667062675442164
0237,cdot_cos,T,S-T,74,14,13486,-0.10025818585908572,0.0005717798184525909,-0.1363561021236457,0.032018393435318315,896.0,1.4756105412433909,0.5427791732949981,4.669163352371364,-0.0059802148609405465,0.25,0.9999999999999282,162.0690915518433,0.36756914550283615,74,2026-10-08 00:46:29.570244,25.0,0.3431286594328214,0.1267812583972283,0.04545238799040785
0237,cdot_cos,P,T-P,75,15,13923,0.05240303836547367,-0.0013667781145726128,0.15266122422455938,0.978469742772741,901.0,1.527638073444403,0.5439850751776125,4.71104932686366,-0.02795986635638641,0.437,0.9999999999999262,-18.226732881280743,0.37253637162644165,75,2026-10-08 00:46:30.007244,25.0,0.45561171883048557,0.08108538489409416,0.11905613775975331
0237,cdot_cos,Q,P-Q,76,15,14033,-0.002876551722011982,-0.00277977612895437,-0.055279590087485654,0.20068962693664247,901.0,1.5464791676408292,0.5442323491602563,4.744508057166432,-0.010363320673172373,0.11,0.9999999999999197,71.16213964395342,0.3775035275465098,76,2026-10-08 00:46:30.117243,25.0,0.18305584201594804,0.2997654877186537,0.17128267451296456
0237,cdot_cos,R,Q-R,77,15,14083,0.06591891905097032,0.12547801977008996,0.0687954707729823,0.8481142509425594,901.0,1.5935864807425069,0.5452770866632293,4.784787461439397,-0.02645670078338604,0.05,0.9999999999999168,-15.404233182419045,0.38247067045709976,77,2026-10-08 00:46:30.167244,25.0,0.5442801028753723,0.6430255609482294,0.9421462620335541
0237,cdot_cos,S,R-S,78,15,14114,-0.0013562074041998198,-0.005551029400172773,-0.06727512645517014,0.15684692950185836,901.0,1.610781723735652,0.5454702529367662,4.817463282062988,-0.0098543652188729,0.031,0.9999999999999116,85.9484177052181,0.3874378093451004,78,2026-10-08 00:46:30.198244,25.0,0.1854871516720473,0.4560653739722547,0.5546852578433946
0237,cdot_cos,T,S-T,79,15,14382,-0.16165972862569014,0.0001823453347878255,-0.16030352122149033,0.01785267386171337,901.0,1.6218625339287867,0.5454922386944525,4.848441520513634,-0.006406249554475508,0.268,0.999999999999906,156.83406110426097,0.39240500422859836,79,2026-10-08 00:46:30.466244,25.0,0.5837733431071278,0.12232784394274779,0.0413463066908006
0237,cdot_cos,P,T-P,80,16,14824,0.06003564738435011,0.0036958738657323965,0.22169537601004025,0.996098108813143,898.0,1.676349448088965,0.54671866060828,4.890000842996203,-0.03212528961979284,0.442,0.9999999999999042,-20.970792983510712,0.39737224243918207,80,2026-10-08 00:46:30.908243,25.0,0.44906597281608673,0.08232542721184759,0.1232735614483671
0237,cdot_cos,Q,P-Q,81,16,14951,-0.0018604473866710642,-0.0023047679246023596,-0.061896094771021176,0.17546176344998526,898.0,1.69463821158406,0.5469346353941054,4.9224122619915605,-0.011020018790789916,0.127,0.9999999999998954,97.72099436676477,0.4023394043187404,81,2026-10-08 00:46:31.035244,25.0,0.1473159652500799,0.2555228542558272,0.14400601177240163
0237,cdot_cos,R,Q-R,82,16,14998,0.05472281184171475,0.13474201750156692,0.056583259228385814,0.8044875578816283,898.0,1.741252253069945,0.5479246466525596,4.961669260829135,-0.028617538146694498,0.047,0.9999999999998923,-17.77506993544802,0.4073065464220435,82,2026-10-08 00:46:31.082243,25.0,0.5406837175642734,0.7052821987742262,0.9917881167209597
0237,cdot_cos,S,R-S,83,16,15032,-0.0004714452633477766,-0.003874512816373009,-0.055194257105062525,0.2010320590926297,898.0,1.7609347382688372,0.5481719800159678,4.9940849762967705,-0.012315549532008816,0.034,0.9999999999998861,65.91099716612126,0.4122736855552761,83,2026-10-08 00:46:31.116243,25.0,0.26615098166934703,0.4508747583832971,0.578896623496828
0237,cdot_cos,T,S-T,84,16,15301,-0.18942719101784516,-0.1146520745243724,-0.1889557457544974,0.008802363822799824,898.0,1.7719117366400092,0.5481828091798876,5.024178999916279,-0.006928529504560102,0.269,0.9999999999998789,497.45484206708386,0.41724088702928575,84,2026-10-08 00:46:31.385243,25.0,0.4595476008503449,0.1248942422735609,0.04080668539469164
0237,cdot_cos,P,T-P,85,17,15722,0.057732491291877304,0.004637162009230713,0.24715968230972246,0.9979317706595002,878.0,1.828127840612013,0.5494102228201246,5.0653125784691655,-0.03614020597692063,0.421,0.999999999999877,-23.799374159406533,0.4222081310233789,85,2026-10-08 00:46:31.806243,25.0,0.44562054162421316,0.08950889474144373,0.1335299381757808
0237,cdot_cos,Q,P-Q,86,17,15851,-0.0021235433249573387,-0.002765306913988833,-0.05985603461683464,0.18296293563734292,878.0,1.8472782260123048,0.5496351946774992,5.09710777531105,-0.012568005512145593,0.129,0.999999999999867,104.77844091195499,0.42717529579747543,86,2026-10-08 00:46:31.935244,25.0,0.15326725788260603,0.2570847383908545,0.14845260000226282
0237,cdot_cos,R,Q-R,87,17,15896,0.05018706100703407,0.14321284612186705,0.05231060433199141,0.7871389373236174,878.0,1.8944557031168534,0.5506028308228189,5.135681996664853,-0.031508006039228945,0.045,0.9999999999998631,-19.57347358166929,0.4321424372871116,87,2026-10-08 00:46:31.980243,25.0,0.5481989129274188,0.7591822606303323,1.0483883801010792
0237,cdot_cos,S,R-S,88,17,15931,-0.00023350410829617093,-0.0026468923999386816,-0.050420565115330246,0.2208854006646867,878.0,1.9156046294690348,0.550874298523431,5.167659672637769,-0.014380869112346477,0.035,0.9999999999998558,63.090882960545386,0.43710957631092306,88,2026-10-08 00:46:32.015244,25.0,0.30392730074277186,0.45824603866531083,0.6042550386337529
0237,cdot_cos,T,S-T,89,17,16199,-0.25770326045868974,-0.20605796791174508,-0.2574697563503936,0.0015990521352644163,878.0,1.9265329258234252,0.5508762636449066,5.196956969438793,-0.007493590976701524,0.268,0.9999999999998476,3504.759487373411,0.44207678429317104,89,2026-10-08 00:46:32.283243,25.0,0.39888219888007886,0.12841475644845735,0.04077722520294929
0237,cdot_cos,P,T-P,90,18,16600,0.0683574531760785,0.006374969393750004,0.32606071363476824,0.9997117856537266,897.0,1.984434938925408,0.5521045250843826,5.237724154037695,-0.04039433137808286,0.401,0.9999999999998448,-26.786431083775124,0.4470440338187214,90,2026-10-08 00:46:32.684243,25.0,0.44286555377807946,0.09479436575322046,0.14439404763586716
0237,cdot_cos,Q,P-Q,91,18,16729,-0.0008870988855629387,-0.0011193596764619326,-0.06924455206164144,0.15044516775890632,897.0,2.002558007157508,0.5522893097077578,5.2685050367615425,-0.01288800902151968,0.129,0.9999999999998337,148.85612154376798,0.45201120117019195,91,2026-10-08 00:46:32.813244,25.0,0.1183324889791181,0.2646635535528543,0.14048890102403164
0237,cdot_cos,R,Q-R,92,18,16774,0.06045130833161066,0.1536614173140076,0.061338407217173596,0.8225120159455975,897.0,2.0527181357420443,0.5532993053849516,5.30706132735997,-0.03626605846044279,0.045,0.9999999999998298,-23.14668267083712,0.45697834263214404,92,2026-10-08 00:46:32.858243,25.0,0.5248587267919343,0.7773514107531663,1.1146695241008076
0237,cdot_cos,S,R-S,93,18,16829,9.837545606604655e-05,-0.003307478027745891,-0.060352932875544614,0.1811132422587516,897.0,2.072519634125293,0.5535216428449983,5.337970242679596,-0.014562186684144862,0.055,0.9999999999998213,97.61680182793387,0.4619454878370257,93,2026-10-08 00:46:32.913243,25.0,0.22527651059558962,0.2826755338665004,0.36002724333179326
0237,cdot_cos,T,S-T,94,18,17059,-0.22331995503367194,-0.09105795502284236,-0.223418330489738,0.0037380048558534507,897.0,2.0838124444673594,0.553526231453256,5.366636762689471,-0.008367408490610429,0.23,0.9999999999998116,1350.0342251154766,0.46691269039377264,94,2026-10-08 00:46:33.143244,25.0,0.4769488177941756,0.15372773198406237,0.04909917540028877
0237,cdot_cos,P,T-P,95,19,17497,0.05439249318100916,0.0007608389162065686,0.2777124482146811,0.9990353799752824,898.0,2.1432343908379616,0.5547522733943558,5.4070572004505415,-0.0447537326651566,0.438,0.9999999999998084,-29.677878834963995,0.4718799637446428,95,2026-10-08 00:46:33.581243,25.0,0.4435102349760526,0.0907043669133146,0.13566654422511934
0237,cdot_cos,Q,P-Q,96,19,17608,-0.006128535306016034,-0.006705083477010842,-0.060521028487025195,0.18049081558389762,898.0,2.163269469883423,0.55497370575843,5.43761056392005,-0.015371580188460594,0.111,0.9999999999997963,132.69131908314986,0.47684712755963427,96,2026-10-08 00:46:33.692243,25.0,0.14786442576394662,0.3255386274707581,0.18049620761676857
0237,cdot_cos,R,Q-R,97,19,17666,0.05961483466213352,0.1330116614396699,0.06574336996814956,0.8380220569602572,898.0,2.21550396613647,0.5560015328650093,5.475981018032645,-0.04072976206000631,0.058,0.9999999999997919,-24.671641474740895,0.481814273575226,97,2026-10-08 00:46:33.750243,25.0,0.536549811691404,0.7143545712808649,0.9005947629835688
0237,cdot_cos,S,R-S,98,19,17725,0.04193636597817464,-0.08948394646357645,-0.01767846868395888,0.39127363073817173,898.0,2.2461346001520033,0.5564812631898213,5.508884438030641,-0.024330857791266876,0.059,0.9999999999997843,34.18358903028923,0.4867814206244947,98,2026-10-08 00:46:33.809243,25.0,0.5096677982817028,0.3708151326538915,0.5191632883988703
0237,cdot_cos,T,S-T,99,19,17956,-0.09158261915531475,-0.006281056729035161,-0.1335189851334894,0.03429116521790741,898.0,2.259260151789629,0.5565233016806045,5.537337935664406,-0.010528078463182374,0.231,0.9999999999997734,328.336699794085,0.49174863060511087,99,2026-10-08 00:46:34.040244,25.0,0.2695383774067698,0.1555503416929231,0.05682056985985218
0237,cdot_cos,P,T-P,100,20,18395,0.029155912941164517,0.0005628329540559638,0.12073853209647926,0.9534013017703348,897.0,2.3179988580141337,0.5576917765801596,5.576918813806034,-0.04784027256970249,0.439,0.9999999999997704,-31.932388210245453,0.4967159192800406,100,2026-10-08 00:46:34.479244,25.0,0.45843685202396117,0.08800300132408069,0.13380115313099
0237,cdot_cos,Q,P-Q,101,20,18504,-0.04360426204870003,-0.0341692434898283,-0.07276017498986455,0.13955338298767098,897.0,2.336526786952172,0.5578627579425494,5.6064524775474585,-0.015343742651202604,0.109,0.9999999999997555,190.058901533461,0.5016830848291746,101,2026-10-08 00:46:34.588243,25.0,0.12028382371599852,0.34619493937387275,0.16998099943154338
0237,cdot_cos,R,Q-R,102,20,18563,0.04659609436586786,0.10250399219382306,0.09020035641456789,0.9050817185635378,897.0,2.393469354797638,0.5589713330041366,5.645334905135864,-0.047895941391350026,0.059,0.9999999999997515,-29.364000569830452,0.5066502317795195,102,2026-10-08 00:46:34.647244,25.0,0.5067972790802071,0.942498877516896,0.9651282685672209
0237,cdot_cos,S,R-S,103,20,18622,0.11425671434533899,-0.2036072350900196,0.06766061997947112,0.8444233588466166,897.0,2.4477416544991657,0.5600050819586827,5.683432028222288,-0.04669994717820539,0.059,0.9999999999997483,1.156948413717881,0.511617379697652,103,2026-10-08 00:46:34.706244,25.0,0.974714975614967,0.5733510303975693,0.9198694864665711
0237,cdot_cos,T,S-T,104,20,18854,-0.024519160370198453,-0.002057567052597865,-0.13877587471553743,0.030195638519630866,897.0,2.461124776384551,0.5600420380874339,5.711331747129532,-0.011676562220726862,0.232,0.9999999999997355,947.701670628392,0.5165845992517936,104,2026-10-08 00:46:34.938244,25.0,0.04981394512096701,0.1486769274876986,0.057685870195627084
0237,cdot_cos,P,T-P,105,21,19292,0.048265067389550054,0.00016990873731198718,0.07278422775974851,0.8605188067181406,919.0,2.516727748853458,0.5610949368283268,5.749513436745587,-0.04916901388154697,0.438,0.9999999999997309,-35.60879142948356,0.5215519062216969,105,2026-10-08 00:46:35.376243,25.0,0.46648848813500055,0.08606785725660074,0.12694742572809742
0237,cdot_cos,Q,P-Q,106,21,19404,-0.020115444888442212,-0.016832894971108327,-0.06838051227799227,0.1532269176192173,919.0,2.5365202193413334,0.5612823621761887,5.778756966263777,-0.01776567192820848,0.112,0.9999999999997143,167.551200046231,0.5265190762953856,106,2026-10-08 00:46:35.488243,25.0,0.17073516467631042,0.33980819832696296,0.1767184864988891
0237,cdot_cos,R,Q-R,107,21,19460,0.05380876792568541,0.11130309581825723,0.07392421281412762,0.8639044923874569,919.0,2.5928447852786976,0.5623387512455027,5.816878659253364,-0.05129110852675943,0.056,0.9999999999997091,-31.735879868882325,0.5314862228555493,107,2026-10-08 00:46:35.544243,25.0,0.5201538884417544,0.7815674947434792,1.0057958203100736
0237,cdot_cos,S,R-S,108,21,19503,0.03259866437177572,-0.09030832395890487,-0.02121010355390969,0.3704579776210783,919.0,2.624055778752603,0.5627915775590934,5.848703034033137,-0.028900195853150894,0.043,0.9999999999996986,49.44702196314645,0.5364533643395893,108,2026-10-08 00:46:35.587244,25.0,0.4608112230620418,0.5201857060210606,0.7258370575326871
0237,cdot_cos,T,S-T,109,21,19755,-0.11065475297295647,0.0016269381573423734,-0.14325341734473218,0.027084505044874783,919.0,2.6375807559965088,0.5628246799892446,5.876063572258158,-0.012630795316279027,0.252,0.9999999999996847,491.486590638794,0.5414206002168269,109,2026-10-08 00:46:35.839243,25.0,0.2758014329517849,0.15241439663816517,0.05367054461867328
0237,cdot_cos,P,T-P,110,22,20211,0.0521054363697088,0.001866533190062003,0.16276018934266528,0.9831929134318279,938.0,2.7008726346582383,0.5640259481150833,5.915555523367397,-0.05993323025844833,0.456,0.9999999999996804,-39.377083204585425,0.5463879313342953,110,2026-10-08 00:46:36.295244,25.0,0.4541842989545585,0.09460805031973514,0.1387979795213368
0237,cdot_cos,Q,P-Q,111,22,20343,-0.0020462468641273724,-0.0024398989605692923,-0.05415168323383618,0.20525110444101352,938.0,2.723863297888107,0.5642766302462198,5.945024806725356,-0.022119614154244294,0.132,0.9999999999996626,150.84288590008623,0.5513551135597095,111,2026-10-08 00:46:36.427244,25.0,0.1809551379320547,0.29609630094894074,0.1741716911353702
0237,cdot_cos,R,Q-R,112,22,20384,0.05774405682916457,0.11926999738193704,0.05979030369329195,0.8167912875880226,938.0,2.7790420581087587,0.5652738863748263,5.982298148465286,-0.053824889747242075,0.041,0.9999999999996547,-31.792510152129488,0.5563222532602989,112,2026-10-08 00:46:36.468243,25.0,0.5548569880665774,0.949892477133147,1.34582342001589
0237,cdot_cos,S,R-S,113,22,20443,0.0012100073826014223,-0.02332000018286651,-0.05653404944656315,0.19570601648202846,938.0,2.8017544810130253,0.5655127542646836,6.011484687421525,-0.02246588953897606,0.059,0.9999999999996402,131.28177348158104,0.5612894023230828,113,2026-10-08 00:46:36.527244,25.0,0.2476225968018166,0.30889129227582357,0.3849563204112977
0237,cdot_cos,T,S-T,114,22,20673,-0.14408177427980373,0.007110648548380011,-0.14529178166240517,0.025773561491705635,938.0,2.815491230597306,0.565544209777035,6.0383614463144495,-0.013676157457693872,0.23,0.999999999999623,279.43375975218515,0.5662566354081568,114,2026-10-08 00:46:36.757244,25.0,0.5258681291289841,0.17163412131367428,0.059724998192524414
0237,cdot_cos,P,T-P,115,23,21149,0.054025426618307025,0.0012751946682319486,0.19810720089811076,0.9929851057246865,901.0,2.8807061768173154,0.5667557006907209,6.077779518471936,-0.06579690092939465,0.476,0.999999999999619,-43.02198463307218,0.5712239929174087,115,2026-10-08 00:46:37.233243,25.0,0.4528719465520428,0.09268681945060084,0.13700618953783522
0237,cdot_cos,Q,P-Q,116,23,21261,-0.002249006719754157,-0.002211881918442507,-0.05627443333806118,0.19672965752261096,901.0,2.903729082714278,0.5669956263853438,6.106731678186643,-0.023585094421137487,0.112,0.9999999999995977,175.93699822186693,0.5761911681825607,116,2026-10-08 00:46:37.345243,25.0,0.166999197555454,0.3531295601179576,0.2055616597943074
0237,cdot_cos,R,Q-R,117,23,21317,0.0560872410298299,0.12409632450139449,0.058336247749584055,0.8112887852293575,901.0,2.959807198283738,0.5679847172198369,6.143695988185664,-0.05820138221820051,0.056,0.9999999999995897,-34.99808772851999,0.5811583153135802,117,2026-10-08 00:46:37.401243,25.0,0.5516908456277239,0.7070766221360618,1.0013949208832156
0237,cdot_cos,S,R-S,118,23,21361,-0.000763547738132577,-0.00584275537942829,-0.05685078876796248,0.19446260884700184,901.0,2.982921664393517,0.5682217180412132,6.1724697288627475,-0.024310446155127403,0.044,0.999999999999572,142.99923462820553,0.5861254567714437,118,2026-10-08 00:46:37.445244,25.0,0.24805880806587183,0.41424708056912607,0.5253287752222466
0237,cdot_cos,T,S-T,119,23,21611,-0.17270371454198544,-0.014115645108992146,-0.17194016680385285,0.013406688699978964,901.0,2.996260941373821,0.5682380562600805,6.198747312214135,-0.014115404392851479,0.25,0.9999999999995522,623.9995831310749,0.591092707938612,119,2026-10-08 00:46:37.695244,25.0,0.4856517250808879,0.16032093385018964,0.05335710792121695
0237,cdot_cos,P,T-P,120,24,22050,0.06176554258649847,0.0018879282659447739,0.2344692571284839,0.9971617672634584,898.0,3.0630821313186116,0.5694528405905798,6.238045354058423,-0.07160819813754762,0.439,0.999999999999548,-47.32757272319048,0.5960600630720976,120,2026-10-08 00:46:38.134243,25.0,0.4480367356953044,0.10125694223473426,0.15221227777856625
0237,cdot_cos,Q,P-Q,121,24,22179,-0.001365190272261381,-0.0016939914838915598,-0.06313073285875985,0.17104086975837537,898.0,3.0851645366559177,0.5696611262029747,6.266274576933415,-0.024008738758223295,0.129,0.9999999999995237,228.52975216102854,0.6010272503686357,121,2026-10-08 00:46:38.263244,25.0,0.13771224978500743,0.30972270230997523,0.17118143672330308
0237,cdot_cos,R,Q-R,122,24,22224,0.05986016240204915,0.15029974501777166,0.061225352674310535,0.8220990302579629,898.0,3.1429905885145852,0.5706618948905086,6.303168877215074,-0.0636510797877843,0.045,0.9999999999995144,-39.61189186209446,0.6059943915633993,122,2026-10-08 00:46:38.308243,25.0,0.5364365197596805,0.8969420727155589,1.2850233746370558
0237,cdot_cos,S,R-S,123,24,22258,-0.00016706349850907707,-0.0014068869176358202,-0.06002722590055823,0.18232402958707036,898.0,3.165889323200318,0.5708837660913347,6.331409486844223,-0.02552882963060091,0.034,0.9999999999994952,171.82153436421206,0.6109615271194723,123,2026-10-08 00:46:38.342243,25.0,0.22462972157270109,0.5274333808327006,0.6734921966391993
0237,cdot_cos,T,S-T,124,24,22528,-0.24431129785820893,-0.11690904573499297,-0.24414423435969984,0.002229811646854863,898.0,3.178856058411209,0.5708864793863144,6.357125033374465,-0.014538223448443913,0.27,0.9999999999994731,4050.64921595551,0.6159287982931868,124,2026-10-08 00:46:38.612243,25.0,0.4695502293203788,0.15047181950093805,0.048024945225521726
0237,cdot_cos,P,T-P,125,25,22948,0.04621441393314788,0.0018096894380534541,0.29052571179135683,0.9992995891391593,916.0,3.2471441057308246,0.5721020229434919,6.396297411492779,-0.07748963995241338,0.42,0.9999999999994679,-51.78869661416768,0.6208961588540508,125,2026-10-08 00:46:39.032243,25.0,0.44379837058055854,0.10932721327209238,0.16259058885622782
0237,cdot_cos,Q,P-Q,126,25,23057,-0.011833442159669125,-0.010600636225173342,-0.058047856092817006,0.1898175068229321,916.0,3.2706909175597665,0.5723328182438224,6.424422461437221,-0.027097833411653127,0.109,0.9999999999994413,218.3398295744728,0.6258633377264984,126,2026-10-08 00:46:39.141243,25.0,0.1557310295706823,0.38825435409236525,0.2160257965957974
0237,cdot_cos,R,Q-R,127,25,23116,0.06077317199208656,0.12877745241043417,0.07260661415175568,0.8599849959404673,916.0,3.33178355492296,0.5733780609716289,6.461645131160407,-0.07117448910747697,0.059,0.9999999999994328,-42.16882310994102,0.6308304873974213,127,2026-10-08 00:46:39.200243,25.0,0.5383340293688299,0.7735431700115406,1.035468429884639
0237,cdot_cos,S,R-S,128,25,23175,0.027674164628698174,-0.07004894922735169,-0.03309900736338839,0.3041791937381803,916.0,3.3619690116211283,0.5737476100019848,6.49121577260376,-0.03564508313044472,0.059,0.9999999999994139,96.14260371029583,0.6357976379097589,128,2026-10-08 00:46:39.259244,25.0,0.36907524066866737,0.3786510323263056,0.511617910138442
0237,cdot_cos,T,S-T,129,25,23406,-0.11951909825530092,0.001325016050809994,-0.1471932628839991,0.024606470515781773,916.0,3.3764643767374642,0.5737775009480027,6.5168622553660285,-0.017231080920493556,0.231,0.9999999999993892,616.0394588688968,0.6407648955268982,129,2026-10-08 00:46:39.490243,25.0,0.34347174044520723,0.18031577084393333,0.06275049833911679
0237,cdot_cos,P,T-P,130,26,23864,0.0461670212782082,0.001251328216053648,0.16568611953350912,0.9843598928423675,941.0,3.4452748977510255,0.5749728172161421,6.555701434663048,-0.08274818470148375,0.458,0.9999999999993838,-54.81152187694428,0.6457322981890469,130,2026-10-08 00:46:39.948243,25.0,0.45304453513552434,0.09986495651248394,0.15024131225668388
0237,cdot_cos,Q,P-Q,131,26,23976,-0.018392774601098935,-0.01473328484364712,-0.06455979587930713,0.1660347131737326,941.0,3.4679406769028995,0.5751743485473754,6.583174189189591,-0.027618844771628927,0.112,0.9999999999993539,273.5522044760945,0.6506994819665886,131,2026-10-08 00:46:40.060243,25.0,0.1358672506715216,0.38237416117375567,0.20237302814173272
0237,cdot_cos,R,Q-R,132,26,24036,0.05842835686499579,0.12000085802591065,0.07682113146609473,0.8721973329223706,941.0,3.5309267098539467,0.5762326013645354,6.620411467391733,-0.07765007465433546,0.06,0.9999999999993446,-47.27719980653993,0.6556666328725977,132,2026-10-08 00:46:40.120243,25.0,0.5250212339651005,0.8022131881916621,1.049767215850787
0237,cdot_cos,S,R-S,133,26,24095,0.033300046675275335,-0.08334480393202609,-0.025128310189720456,0.3479170349641369,941.0,3.564206259485899,0.5766545409552026,6.650307518560632,-0.04158082511906672,0.059,0.9999999999993247,85.48439239424566,0.6606337840275056,133,2026-10-08 00:46:40.179244,25.0,0.4200216148863733,0.41974588094468784,0.5640601632534277
0237,cdot_cos,T,S-T,134,26,24326,-0.08445828167833046,0.004783298833696555,-0.11775832835360579,0.050022841531747866,941.0,3.58045672380542,0.5767151974403676,6.675964012786773,-0.020444953407907102,0.231,0.999999999999298,348.4519693760751,0.6656010509496264,134,2026-10-08 00:46:40.410244,25.0,0.35565501544637135,0.18260669974933255,0.07034833038753649
0237,cdot_cos,P,T-P,135,27,24805,0.032610604052450566,0.0014094021046925135,0.11706888573078103,0.949151709422448,939.0,3.6485705547700906,0.5778656756299096,6.714195465265361,-0.08664374607738198,0.479,0.9999999999992912,-57.54024132854263,0.670568488692786,135,2026-10-08 00:46:40.889244,25.0,0.4657835275280661,0.0965317819956485,0.14220006464440652
0237,cdot_cos,Q,P-Q,136,27,24934,-0.02598291999817047,-0.02062577070466657,-0.058593524050621036,0.18772846531095114,939.0,3.672934170957251,0.5780931239148892,6.741669674922221,-0.031383473670486065,0.129,0.999999999999258,242.95752510010013,0.6755356874716958,136,2026-10-08 00:46:41.018244,25.0,0.1719059027884453,0.34398295238311744,0.18886524176093442
0237,cdot_cos,R,Q-R,137,27,24977,0.05206505246113092,0.10459671187755924,0.0780479724593014,0.8755773556465837,939.0,3.737318156484935,0.5791535180124069,6.778821465975024,-0.08388276412732057,0.043,0.9999999999992475,-49.509225466015145,0.6805028269212209,137,2026-10-08 00:46:41.061243,25.0,0.5347986002461441,1.2737645787911704,1.4973019890159016
0237,cdot_cos,S,R-S,138,27,25034,0.058576318573135666,-0.14097829822621347,0.006511266112004747,0.5406057888757397,939.0,3.782477924733292,0.5798078709655621,6.811203611745342,-0.05968075032016292,0.057,0.9999999999992305,36.986176482369665,0.6854699773662145,138,2026-10-08 00:46:41.118243,25.0,0.6666269908817365,0.5415528208116854,0.7922766359360855
0237,cdot_cos,T,S-T,139,27,25264,-0.059645727165199065,0.002826998280576723,-0.11822204573833472,0.04947480383015561,939.0,3.799055178057467,0.5798677416351714,6.836543212016432,-0.022086612754141303,0.23,0.999999999999201,627.9224503639624,0.6904372540853696,139,2026-10-08 00:46:41.348243,25.0,0.18229604876481625,0.18515291270541415,0.07207501445293589
0237,cdot_cos,P,T-P,140,28,25744,0.04699671858445998,0.0007805602222487831,0.10664244574965905,0.9349940367667677,916.0,3.8676482645777823,0.5809987570192497,6.874473479345939,-0.09234725692348073,0.48,0.9999999999991924,-62.12174048065198,0.6954047170976506,140,2026-10-08 00:46:41.828243,25.0,0.467278016655379,0.09952186332757759,0.14290226358399014
0237,cdot_cos,Q,P-Q,141,28,25872,-0.00291228103529455,-0.003466985888393309,-0.04990899961975453,0.22309420229011934,916.0,3.8945961668519415,0.5812684976130658,6.902184721713983,-0.036725625287488496,0.128,0.9999999999991572,206.20415655320596,0.700371919931008,141,2026-10-08 00:46:41.956243,25.0,0.2199140916019013,0.3463382430123167,0.2105304865168689
0237,cdot_cos,R,Q-R,142,28,25916,0.055018368258419936,0.11926688601882614,0.057930649293714484,0.8097314620376205,916.0,3.9563108547889354,0.5822471251963635,6.938279049471081,-0.08501188420242839,0.044,0.9999999999991431,-49.34079085756901,0.7053390600432876,142,2026-10-08 00:46:42.000243,25.0,0.5666608962951234,1.053793051279405,1.4026065440225879
0237,cdot_cos,S,R-S,143,28,25973,0.018833831142068432,-0.056106858946488466,-0.0361845371163515,0.28810335995616365,916.0,3.987329955364529,0.582595166246607,6.966828712838904,-0.04322327218517871,0.057,0.9999999999991166,120.06805515615694,0.7103062110158674,143,2026-10-08 00:46:42.057244,25.0,0.38029494563554594,0.4046805823567528,0.5441947469402414
0237,cdot_cos,T,S-T,144,28,26203,-0.13667106557581557,-0.003696437008396329,-0.155504896717884,0.02008244445426491,916.0,4.002444441177605,0.5826194236260495,6.991436912034347,-0.02118310521461009,0.23,0.9999999999990826,908.5963726155522,0.71527349694162,144,2026-10-08 00:46:42.287244,25.0,0.35329224162109196,0.1921021804248343,0.06571515570902635
0237,cdot_cos,P,T-P,145,29,26660,0.060112580728237275,-0.00010234771778795478,0.19678364630405284,0.9927508187090938,901.0,4.075696958359953,0.5838180565530279,7.030104297712083,-0.10371443933645873,0.457,0.999999999999075,-68.85455276946085,0.7202409640903679,145,2026-10-08 00:46:42.744244,25.0,0.4512402002766667,0.10708440605962774,0.1602899719526208
0237,cdot_cos,Q,P-Q,146,29,26771,-0.0015044930999116195,-0.0014575675211813803,-0.06161707382814889,0.17647323254229252,901.0,4.100319588316105,0.5840310244768964,7.056877938552146,-0.03527910481656372,0.111,0.9999999999990351,321.3410417718799,0.7252081574630572,146,2026-10-08 00:46:42.855244,25.0,0.14372891675920846,0.4009092865018891,0.22182549510046895
0237,cdot_cos,R,Q-R,147,29,26824,0.0637142414352516,0.13448173677238046,0.06521873453516322,0.836233789762031,901.0,4.164698819963372,0.5850397637324364,7.093234439161885,-0.09318069404685939,0.053,0.9999999999990212,-57.399956343821344,0.7301753048000693,147,2026-10-08 00:46:42.908243,25.0,0.5371969965963994,0.8366931051419345,1.2147024839107043
0237,cdot_cos,S,R-S,148,29,26852,-0.00020146251999882687,-0.0008578964816658903,-0.06391570395525042,0.16827635935998977,901.0,4.18900905746115,0.5852426677355343,7.119788632257572,-0.035558467697169194,0.028,0.9999999999989878,283.9876270054066,0.7351424323022681,148,2026-10-08 00:46:42.936243,25.0,0.19780127947137485,0.6872238849390414,0.8682227677777757
0237,cdot_cos,T,S-T,149,29,27121,-0.2874318398409335,-0.14303558945095998,-0.2872303773209347,0.000760510809137367,901.0,4.203183357519959,0.585243584677479,7.1438126604091075,-0.020828182381181688,0.269,0.9999999999989504,16064.577918821267,0.7401097597797981,149,2026-10-08 00:46:43.205244,25.0,0.4930086524974416,0.16557348540956016,0.0526925652743814
0237,cdot_cos,P,T-P,150,30,27561,0.052998568038422095,0.0015219103009515695,0.34043040787935563,0.9997987497636938,916.0,4.278087592611493,0.5864485212713448,7.1825026418759785,-0.11114021601108283,0.44,0.9999999999989418,-74.95168964878567,0.7450772331615614,150,2026-10-08 00:46:43.645243,25.0,0.4437049572709426,0.1156112681729912,0.17023689793530628
0237,cdot_cos,Q,P-Q,151,30,27688,-0.0008803279390690482,-0.0010366138643956827,-0.05387889597749114,0.20636578823400273,916.0,4.304921273512191,0.5866971007014739,7.20945940219656,-0.040285308436935625,0.127,0.9999999999988999,285.03930328174374,0.750044443400653,151,2026-10-08 00:46:43.772243,25.0,0.17224670794181182,0.3687946264811901,0.211288825989744
0237,cdot_cos,R,Q-R,152,30,27725,0.07142384323405258,0.14276415245044363,0.07230417117312163,0.8590720804035621,916.0,4.371761427737716,0.587731426216109,7.24604446361826,-0.10136656975113367,0.037,0.9999999999988854,-59.05419565691178,0.755011577057769,152,2026-10-08 00:46:43.809243,25.0,0.54739864104261,1.2159372727227216,1.8064906547439137
0237,cdot_cos,S,R-S,153,30,27769,-0.0002207781721761429,-0.0015274193942468681,-0.07164462140622872,0.1429360100620999,916.0,4.394900631693672,0.5879034467396225,7.271968831015765,-0.03545129995778073,0.044,0.9999999999988484,383.18259035049357,0.7599787176109633,153,2026-10-08 00:46:43.853244,25.0,0.15577870498962293,0.42896270551369536,0.5258909989990134
0237,cdot_cos,T,S-T,154,30,28018,-0.21719896948708067,-0.00448722390207644,-0.21697819131490453,0.0043881279980993075,916.0,4.409510145822921,0.5879087274211706,7.295760261527798,-0.022479359602860925,0.249,0.9999999999988068,2456.4897990241598,0.7649460389814341,154,2026-10-08 00:46:44.102243,25.0,0.5615468623640985,0.18203526726458025,0.0586727475070225
0237,cdot_cos,P,T-P,155,31,28477,0.04387074657884054,-0.00205113391292872,0.2610697160659212,0.9985383737555812,921.0,4.485554194791433,0.5891098419214155,7.334363360815027,-0.11810839916694417,0.459,0.9999999999987983,-79.61692207078438,0.7699135500203933,155,2026-10-08 00:46:44.561243,25.0,0.4450040948042808,0.1079674197913513,0.16567330929959118
0237,cdot_cos,Q,P-Q,156,31,28588,-0.02907912835484559,-0.019530274851078184,-0.07294987493368613,0.13898488498673248,921.0,4.508624237191381,0.5892769392053047,7.360071897167372,-0.03622621146027396,0.111,0.9999999999987496,490.02704173795985,0.7748807497520549,156,2026-10-08 00:46:44.672243,25.0,0.10431894833686332,0.42059783776492154,0.20783821981935263
0237,cdot_cos,R,Q-R,157,31,28638,0.057823843962431586,0.10730131366093555,0.08690297231727717,0.8977594976082269,921.0,4.578926914775246,0.5903557902673502,7.3971421949957445,-0.11145096042752789,0.05,0.9999999999987361,-69.72672281994701,0.779847894748413,157,2026-10-08 00:46:44.722244,25.0,0.5091776611708695,1.1713921124941074,1.4060535516772887
0237,cdot_cos,S,R-S,158,31,28669,0.0605389588016445,-0.14636509868324862,0.002715114839212912,0.5169629553108738,921.0,4.625763448440792,0.5909766387366352,7.428466523786824,-0.07517212090617237,0.031,0.9999999999987099,58.434290033984674,0.7848150230613155,158,2026-10-08 00:46:44.753243,25.0,0.6171702902468292,1.0447943274372828,1.510855924695042
0237,cdot_cos,T,S-T,159,31,28936,-0.054707706800543016,0.0032392805522925626,-0.11524666560218752,0.05309245456024926,921.0,4.643704163076357,0.5910403839154235,7.4527410362417355,-0.028995902278510677,0.267,0.999999999998668,724.3876243729624,0.7897823745273121,159,2026-10-08 00:46:45.020243,25.0,0.20341472095548419,0.16971355727884974,0.06719368777365256
0237,cdot_cos,P,T-P,160,32,29398,0.045674341639513276,0.004408321528031837,0.1003820484400563,0.9248086887670224,956.0,4.716390488027698,0.5921502578840468,7.49017968069333,-0.11852487155298169,0.462,0.9999999999986554,-80.66588802467069,0.7947499146255792,160,2026-10-08 00:46:45.482244,25.0,0.46984135297050417,0.11002853620052877,0.15732970768688426
0237,cdot_cos,Q,P-Q,161,32,29527,-0.003497961091896465,-0.00391990489429959,-0.04917230273140974,0.226302640453037,956.0,4.745370530525646,0.5924217037559152,7.516994616932729,-0.04775924692423994,0.129,0.9999999999986067,260.6988426151725,0.7997171360962015,161,2026-10-08 00:46:45.611244,25.0,0.22724747171725415,0.36956880396017894,0.22465149223215547
0237,cdot_cos,R,Q-R,162,32,29576,0.05635745596188142,0.12365529269818806,0.059855417053777886,0.8170347564024268,956.0,4.811739239449424,0.5934012515191526,7.552770852357549,-0.11039486160088355,0.049,0.999999999998588,-63.9434002377118,0.8046842804278668,162,2026-10-08 00:46:45.660243,25.0,0.5670101977555627,0.9516752968896012,1.354463447424043
0237,cdot_cos,S,R-S,163,32,29607,-0.0015684910558043548,-0.007720567571049048,-0.057925947017685775,0.19028665019285174,956.0,4.838634709620827,0.5936292809904765,7.578957297380278,-0.04516536011516389,0.031,0.9999999999985456,286.0573289364577,0.8096514077113904,163,2026-10-08 00:46:45.691243,25.0,0.23592592914046856,0.7202354936822501,0.8675958119807359
0237,cdot_cos,T,S-T,164,32,29877,-0.12265845438126764,0.006189176301151904,-0.12108996332546329,0.046209921256853914,956.0,4.856393840057724,0.5936846504328642,7.602879148077983,-0.02995948586341042,0.27,0.9999999999984984,274.6257429373859,0.8146187740807551,164,2026-10-08 00:46:45.961244,25.0,0.6019698584809956,0.17659166949732383,0.06577455717369146
0237,cdot_cos,P,T-P,165,33,30354,0.04343006304230868,0.00025326159559104297,0.16608851742357633,0.9845140184045635,960.0,4.933994211149382,0.5948637424583625,7.641169322840917,-0.13207685666141047,0.477,0.9999999999984873,-86.60678606052578,0.8195863524860352,165,2026-10-08 00:46:46.438244,25.0,0.4615493617621111,0.11267671426863854,0.16268421612506956
0237,cdot_cos,Q,P-Q,166,33,30466,-0.004048046207007459,-0.0035779129041195435,-0.04747810924931614,0.23380438029935438,960.0,4.963887425470005,0.5951435954133795,7.667895414629744,-0.051425924237674815,0.112,0.9999999999984339,288.1903906243992,0.8245535608725639,166,2026-10-08 00:46:46.550244,25.0,0.2084005562600983,0.4388870393870798,0.26690369929127655
0237,cdot_cos,R,Q-R,167,33,30523,0.06031549860942112,0.1120789488928817,0.06436354481642859,0.8332848149037674,960.0,5.032304907972088,0.5961404944304947,7.703839631546199,-0.11877499745162516,0.057,0.9999999999984145,-67.55857118692296,0.8295207134486643,167,2026-10-08 00:46:46.607244,25.0,0.5672071333012293,0.830627695282355,1.200306710562858
0237,cdot_cos,S,R-S,168,33,30565,-0.001867929488059561,-0.008230694072539214,-0.06218342809748068,0.17442493678342544,960.0,5.058578982732193,0.5963490673120231,7.729574015707049,-0.04603706324400532,0.042,0.9999999999983669,348.7410907621147,0.8344878511629962,168,2026-10-08 00:46:46.649244,25.0,0.2059778977575579,0.5246140245818154,0.6255732085739422
0237,cdot_cos,T,S-T,169,33,30814,-0.12621472185347102,0.016645235577113785,-0.12434679236541146,0.04275104704716108,960.0,5.07637248603696,0.5964001826113138,7.753209064707154,-0.031312401787591974,0.249,0.9999999999983146,288.06759738750384,0.8394552080483864,169,2026-10-08 00:46:46.898243,25.0,0.6248459471315584,0.19434475749985203,0.07145985262958603
0237,cdot_cos,P,T-P,170,34,31314,0.05054537905423177,-2.03240503975554e-06,0.17676010090770278,0.9880971425558875,917.0,5.1553626719671195,0.5975810159458002,7.791510078392574,-0.14019808164222783,0.5,0.9999999999983032,-92.21087910936866,0.8444228361366941,170,2026-10-08 00:46:47.398243,25.0,0.45994149161973374,0.10770226335503619,0.15798037186031877
0237,cdot_cos,Q,P-Q,171,34,31422,-0.002713853385950314,-0.0025161134397890094,-0.05325923244018209,0.20891452720174716,917.0,5.184074749391996,0.5978305365503369,7.81765599215776,-0.051486475293976784,0.108,0.9999999999982431,355.528179778768,0.8493900436282539,171,2026-10-08 00:46:47.506243,25.0,0.17852833481017547,0.4565892373307919,0.26585256874885926
0237,cdot_cos,R,Q-R,172,34,31477,0.06386456013073438,0.12602549462800602,0.0665784135166847,0.8408358420917769,917.0,5.2539859472305706,0.5988342896326295,7.853645461903843,-0.12645657401938634,0.055,0.9999999999982229,-74.68978182779252,0.8543571942582279,172,2026-10-08 00:46:47.561243,25.0,0.5527483075255205,0.8733619752133815,1.2711126879740773
0237,cdot_cos,S,R-S,173,34,31524,-0.0004303670399117506,-0.00324725135186778,-0.06429492717064614,0.1669536325629353,917.0,5.280144566665468,0.5990334932651409,7.879062860640759,-0.047743821288810155,0.047,0.9999999999981705,395.1371354941949,0.8593243369437624,173,2026-10-08 00:46:47.608243,25.0,0.19230974677590126,0.4478026461778967,0.5565663709552707
0237,cdot_cos,T,S-T,174,34,31773,-0.18177813009579283,0.001787320604277029,-0.18134776305588107,0.010626783416269138,917.0,5.296079395971293,0.599046171689852,7.9019691475053735,-0.029199623423806133,0.249,0.9999999999981113,1462.657884365266,0.8642917053434451,174,2026-10-08 00:46:47.857243,25.0,0.5298912619230483,0.19413450212850028,0.06399529841696615
0237,cdot_cos,P,T-P,175,35,32231,0.058197225502572496,0.0019108740717237896,0.23997535559836533,0.9975258567363121,919.0,5.376823548725461,0.6002356907031817,7.940379467266709,-0.14916394075052947,0.458,0.9999999999980992,-100.8511137547217,0.8692593122626304,175,2026-10-08 00:46:48.315244,25.0,0.4474257139921323,0.11800941949844126,0.17629727675582657
0237,cdot_cos,Q,P-Q,176,35,32363,-0.0018469196384101824,-0.002282618733302407,-0.06004414514098268,0.18226097921450277,919.0,5.404176024231865,0.6004529041111143,7.965915999754612,-0.05103252310336949,0.132,0.9999999999980337,451.7742186413414,0.8742265506776362,176,2026-10-08 00:46:48.447244,25.0,0.14617961359412812,0.368108955198528,0.20721572353336082
0237,cdot_cos,R,Q-R,177,35,32405,0.06008486864281052,0.13783415426970028,0.0619317882812207,0.8246672980704599,919.0,5.474004312897873,0.6014352240568249,8.001583381123353,-0.13134689000486297,0.042,0.9999999999980105,-81.75988612690993,0.8791936864046211,177,2026-10-08 00:46:48.489243,25.0,0.5425540350810691,1.1588963423966683,1.6625783015716133
0237,cdot_cos,S,R-S,178,35,32462,3.704174702999508e-05,-0.005558471450417824,-0.060047826895780525,0.18224726122109747,919.0,5.501523316993185,0.601652201912402,8.027049727730557,-0.05221682913675074,0.057,0.999999999997955,364.6918744664651,0.8841608406095445,178,2026-10-08 00:46:48.546243,25.0,0.21971742628038693,0.3877373576613626,0.48278954553179615
0237,cdot_cos,T,S-T,179,35,32693,-0.15810870569181099,-0.003600716903574136,-0.158145747438841,0.01882354777289476,919.0,5.518206371671268,0.6016746103624682,8.049865856221405,-0.03178269469256631,0.231,0.9999999999978911,911.8941463526035,0.8891281995982475,179,2026-10-08 00:46:48.777244,25.0,0.5257482867733874,0.21284149865796453,0.07222101592243703
0237,cdot_cos,P,T-P,180,36,33150,0.04783659284204107,-0.002028253613140054,0.20594529853385207,0.9942261894363597,898.0,5.599856089373165,0.6028575770494742,8.08819153952098,-0.15677945677940128,0.457,0.9999999999978788,-105.66380563360647,0.8940958297355653,180,2026-10-08 00:46:49.234244,25.0,0.45055384637168155,0.12016786729172091,0.1786645901573231
0237,cdot_cos,Q,P-Q,181,36,33261,-0.010353030411851096,-0.009097591611203371,-0.05818962325389217,0.18927305790322568,898.0,5.628039802375901,0.6030826453395219,8.113656016835256,-0.054640911698548275,0.111,0.9999999999978101,453.81135236411865,0.899063047800552,181,2026-10-08 00:46:49.345243,25.0,0.15423641620286827,0.45570932271884595,0.2539073243489753
0237,cdot_cos,R,Q-R,182,36,33310,0.06141657869184512,0.12078287956637103,0.07176960910369622,0.8574463544234605,898.0,5.701023559016749,0.6041017038668348,8.14978646770246,-0.14264556022517277,0.049,0.9999999999977878,-86.3587774086746,0.9040301917844946,182,2026-10-08 00:46:49.394243,25.0,0.5395896770813161,1.1496345251733733,1.4894644212417867
0237,cdot_cos,S,R-S,183,36,33342,0.03801338604511847,-0.0954499814561594,-0.023403192646726655,0.3577645675467007,898.0,5.740703985842892,0.6045266335847281,8.177893661882827,-0.07829697943953687,0.032,0.9999999999977399,151.4334678794836,0.908997315863029,183,2026-10-08 00:46:49.426244,25.0,0.43961643999411937,0.8994610602464925,1.2400133383169698
0237,cdot_cos,T,S-T,184,36,33611,-0.09713022507573686,-0.0010589685239214845,-0.13514361112085532,0.03297131308276989,898.0,5.758589066872524,0.6045657868532192,8.200738278135502,-0.03546699341213244,0.269,0.9999999999976733,1093.9057626115275,0.9139647347539682,184,2026-10-08 00:46:49.695244,25.0,0.2989134349685234,0.1841702587497158,0.06648729007298322
0237,cdot_cos,P,T-P,185,37,34048,0.04266824012341225,0.0017363347334976192,0.13979846519914912,0.9705440719119839,919.0,5.839787585050239,0.605717700420465,8.23866064710606,-0.16224345659853018,0.437,0.9999999999976579,-110.0572706071257,0.9189323674099722,185,2026-10-08 00:46:50.132244,25.0,0.4577663108779506,0.1241796211964011,0.1858089660817268
0237,cdot_cos,Q,P-Q,186,37,34159,-0.020529245223935347,-0.01663951021766807,-0.06319748534734759,0.1708043856100453,919.0,5.867122055798179,0.6059203026036604,8.263660834516417,-0.055118441488847786,0.111,0.9999999999975848,528.745610832807,0.9238995899633476,186,2026-10-08 00:46:50.243244,25.0,0.14319582711659962,0.46152002845045625,0.24625649322468407
0237,cdot_cos,R,Q-R,187,37,34215,0.05697400771578873,0.11602699256437003,0.07750325293972407,0.8740861858622274,919.0,5.94224503136624,0.6069565417618695,8.300015617740057,-0.152665848907733,0.056,0.9999999999975628,-94.13599809089197,0.9288667433156517,187,2026-10-08 00:46:50.299244,25.0,0.5278409668756847,1.0999687050190181,1.3414817065725242
0237,cdot_cos,S,R-S,188,37,34242,0.05263132973165141,-0.12301580952180279,-0.004342677984137316,0.472884890693349,919.0,5.990318550760309,0.6075167517508147,8.329859800575482,-0.09866506661800956,0.027,0.9999999999975183,96.39382259392903,0.9338338601158023,188,2026-10-08 00:46:50.326244,25.0,0.5785015219228864,1.2488075941256787,1.78050071829884
0237,cdot_cos,T,S-T,189,37,34510,-0.06468904827146003,0.00011513031558759863,-0.11732037800311144,0.050545703400902184,919.0,6.009680641449027,0.6075766147451951,8.352807259840212,-0.03996077386331451,0.268,0.9999999999974487,980.6441084725182,0.9388012939686595,189,2026-10-08 00:46:50.594244,25.0,0.2301444909570003,0.18501363616260108,0.07224660704745511
0237,cdot_cos,P,T-P,190,38,34967,0.04109584775028561,0.0007797474704781638,0.10578489602174565,0.9336787704894867,901.0,6.089485859743463,0.6086818190066244,8.390109918749445,-0.1659019193601153,0.457,0.9999999999974312,-113.95282292335939,0.9437689814471655,190,2026-10-08 00:46:51.051244,25.0,0.46807341331402214,0.11884771673728838,0.17462848642108578
0237,cdot_cos,Q,P-Q,191,38,35078,-0.0177710511896432,-0.01398337071785202,-0.05886689893992881,0.18668853932418106,901.0,6.118307454546908,0.6089026707086096,8.415212886676075,-0.06044109356197677,0.111,0.9999999999973537,477.5187370085361,0.9487362087698251,191,2026-10-08 00:46:51.162244,25.0,0.17467065680872287,0.470659263808572,0.2596540072382466
0237,cdot_cos,R,Q-R,192,38,35131,0.05719670221129917,0.11747272406216641,0.07496775340094236,0.8669427937707636,901.0,6.193972216308966,0.609927674366313,8.451416414283706,-0.15988212777370436,0.053,0.9999999999973299,-97.01529693516545,0.9537033589026193,192,2026-10-08 00:46:51.215244,25.0,0.5368885939389858,1.0544490318821733,1.4276370143784456
0237,cdot_cos,S,R-S,193,38,35159,0.021341779818891272,-0.06723077211192484,-0.035854922392407895,0.2897964045755468,901.0,6.230079051926419,0.6102700904971633,8.478153729753815,-0.07696315407351555,0.028,0.9999999999972703,242.15849146558773,0.9586704758059635,193,2026-10-08 00:46:51.243244,25.0,0.3404846152756596,0.9530215614880211,1.2895298434804556
0237,cdot_cos,T,S-T,194,38,35429,-0.14210901044922594,-0.00662723749667004,-0.1634507902681172,0.016524156150492273,901.0,6.247341423752295,0.6102896117513433,8.500361359538944,-0.03695283480167857,0.27,0.9999999999971939,2049.577291645611,0.9636379271349033,194,2026-10-08 00:46:51.513243,25.0,0.3386662441064807,0.18911878727098713,0.06393471046620897
0237,cdot_cos,P,T-P,195,39,35868,0.04874817828781752,0.0036708493904919854,0.19085718873704346,0.9916028450597288,879.0,6.332203197052752,0.611460419333725,8.538591050625872,-0.1829468444067875,0.439,0.9999999999971786,-124.69513505210664,0.9686056171234783,195,2026-10-08 00:46:51.952243,25.0,0.4502225466527785,0.1320580877147701,0.19330700068441148
0237,cdot_cos,Q,P-Q,196,39,35997,-0.003339023905921243,-0.004328324019080317,-0.05208720219373877,0.21379834592831015,879.0,6.363288424765863,0.6117126878474431,8.563989117451182,-0.06761587105400002,0.129,0.9999999999970985,457.1754582168312,0.973572874396974,196,2026-10-08 00:46:52.081243,25.0,0.181648999166326,0.3899418732529949,0.24097075746598068
0237,cdot_cos,R,Q-R,197,39,36044,0.04378803106183141,0.1288328307575889,0.04712705496775266,0.764619752578482,879.0,6.432808200352024,0.6126144001389969,8.598464462325653,-0.15228629746980948,0.047,0.9999999999970656,-93.89960324252665,0.9785400163237993,197,2026-10-08 00:46:52.128243,25.0,0.5735013190695636,1.0977167547503537,1.4791441614076848
0237,cdot_cos,S,R-S,198,39,36076,-0.0005055789799599354,-0.005918488791735279,-0.044293610041791345,0.24836708043544534,879.0,6.466473799712396,0.6129071325795873,8.6243794596925,-0.07432006816068912,0.032,0.999999999996999,266.33955960563924,0.9835071376481641,198,2026-10-08 00:46:52.160243,25.0,0.3502667575643352,0.8064628955974651,1.0520499800116268
0237,cdot_cos,T,S-T,199,39,36347,-0.14977061868689173,-0.03214547373415592,-0.1492650397069318,0.023393491059764845,879.0,6.484421825670262,0.612934700608665,8.64651964386592,-0.03977951206870341,0.271,0.9999999999969168,1252.9207653793715,0.9884746050017463,199,2026-10-08 00:46:52.431243,25.0,0.41966431181411645,0.19218162870615493,0.0662288780733052
0237,cdot_cos,P,T-P,200,40,36747,0.06764489491367218,0.005822267949312046,0.2174155136005639,0.9956593792390409,897.0,6.570636242471132,0.6141073613577681,8.684801551056845,-0.19240384908300248,0.4,0.9999999999969015,-130.1521664565175,0.9934422639032825,200,2026-10-08 00:46:52.831244,25.0,0.45237223222624995,0.14146545637498398,0.2155360420021757
0237,cdot_cos,Q,P-Q,201,40,36876,-0.0017984989442264888,-0.0022348484662481926,-0.06944339385789866,0.149810914871611,897.0,6.597594190770249,0.6142836904181732,8.708986837884378,-0.06067302391854547,0.129,0.9999999999968134,747.0738224420697,0.9984095266417744,201,2026-10-08 00:46:52.960243,25.0,0.11404528045794941,0.38403387853333115,0.20897634340400703
0237,cdot_cos,R,Q-R,202,40,36926,0.05106086181661116,0.14856261882507543,0.05285936076083765,0.7894285026565723,897.0,6.669716983132732,0.6152123599390951,8.743823077446633,-0.16339767307150127,0.05,0.9999999999967808,-110.61486011836054,1.0033766731019995,202,2026-10-08 00:46:53.010243,25.0,0.5332959389890082,1.0408180740411677,1.4424558472496507
0237,cdot_cos,S,R-S,203,40,36976,0.00010600407600419595,-0.0037768627279902572,-0.050954857740606964,0.2185952451488813,897.0,6.701675998174366,0.6154693634421826,8.76910122177085,-0.07295444988644394,0.05,0.9999999999967074,351.914359526249,1.008343820618564,203,2026-10-08 00:46:53.060243,25.0,0.28946473085314006,0.4886638014529776,0.6391803008326846
0237,cdot_cos,T,S-T,204,40,37223,-0.20473441591382036,-0.03955711585742715,-0.20484041998982455,0.005934557940653219,897.0,6.71858336327803,0.615476339833249,8.790773107799026,-0.03873609205075685,0.247,0.9999999999966186,4904.879544457248,1.0133112661840413,204,2026-10-08 00:46:53.307244,25.0,0.41338684618103333,0.21124145072479925,0.06845087086503454
0237,cdot_cos,P,T-P,205,41,37644,0.05028947532035266,0.0019314769630193681,0.255023891234173,0.9983002913681347,899.0,6.806029274832417,0.616649217351777,8.829086091377613,-0.20167084213396735,0.421,0.9999999999966043,-138.91881079594478,1.018278980205297,205,2026-10-08 00:46:53.728243,25.0,0.4457824698983458,0.13990737213690424,0.20771000369213136
0237,cdot_cos,Q,P-Q,206,41,37754,-0.006882878514824737,-0.007377564133265043,-0.057172353835177395,0.19320639689371316,899.0,6.836385370617303,0.6168760543683414,8.85385048363027,-0.07060228041700875,0.11,0.9999999999965138,577.8094056345602,1.0232462189330431,206,2026-10-08 00:46:53.838243,25.0,0.1562285554938449,0.4849639754279393,0.27596450713532794
0237,cdot_cos,R,Q-R,207,41,37811,0.05834121538941173,0.12785058675184935,0.06522409390423646,0.8362521376517205,899.0,6.912721349426564,0.617857281552013,8.88943187068913,-0.1787564585247645,0.057,0.9999999999964848,-110.22338140190195,1.028213376635995,207,2026-10-08 00:46:53.895243,25.0,0.546054507232334,0.9913595076162255,1.3392276984080802
0237,cdot_cos,S,R-S,208,41,37870,0.02040548454777479,-0.06228438273435083,-0.03793573084163694,0.27920806291900896,899.0,6.949400354485553,0.6181846804385251,8.915599882540164,-0.08656915152140945,0.059,0.9999999999964123,281.5748947269015,1.0331805387147137,208,2026-10-08 00:46:53.954243,25.0,0.3447630558928687,0.4614907821749373,0.6216780518472735
0237,cdot_cos,T,S-T,209,41,38104,-0.1464377150642546,-0.008186202962651141,-0.1668431996120294,0.015200945419321564,899.0,6.967177261723206,0.6182025019628041,8.937263577269931,-0.04212083837104431,0.234,0.9999999999963188,2494.080329749593,1.038147978039887,209,2026-10-08 00:46:54.188244,25.0,0.3481029234873071,0.22603354752308683,0.07596968904980111
0237,cdot_cos,P,T-P,210,42,38543,0.043193868475999715,0.0023258373961004154,0.1896315835402543,0.99134383449009,919.0,7.055184054726357,0.61936406049177,8.97545191420899,-0.20986370753072522,0.439,0.9999999999963044,-144.4118957217149,1.0431157476960642,210,2026-10-08 00:46:54.627244,25.0,0.4496461590086082,0.13693658054764177,0.20047105467688195
0237,cdot_cos,Q,P-Q,211,42,38672,-0.008837113856647568,-0.009222049496301897,-0.05203098233264728,0.21403468892179484,919.0,7.087407579444036,0.619614666421998,9.00043748310519,-0.0774803954111854,0.129,0.9999999999962096,528.2529108511437,1.0480830217162382,211,2026-10-08 00:46:54.756243,25.0,0.1811184608590979,0.4253666956219164,0.24979476525332023
0237,cdot_cos,R,Q-R,212,42,38716,0.057469674317189204,0.12330637391075018,0.06630678817383677,0.8399249405207425,919.0,7.164928662196812,0.6205974890811509,9.036050543794461,-0.18765506684784894,0.044,0.9999999999961792,-112.10025573853848,1.0530501588724186,212,2026-10-08 00:46:54.800243,25.0,0.5559301112340127,1.3087654433864586,1.7618427898358213
0237,cdot_cos,S,R-S,213,42,38772,0.02097866338976843,-0.06922524781707988,-0.03649101092742077,0.28653447171076035,919.0,7.202578938462044,0.6209325463293005,9.06222690216727,-0.09184485213280741,0.056,0.9999999999961037,285.95177464196166,1.058017316959839,213,2026-10-08 00:46:54.856243,25.0,0.3523343922424518,0.500193882101715,0.6723263618791465
0237,cdot_cos,T,S-T,214,42,39022,-0.13384768181815931,-0.001394320757163986,-0.15482634520792773,0.020419009182532172,919.0,7.220950376992204,0.6209564187683932,9.08382406478153,-0.044989325255377466,0.25,0.9999999999960048,1962.7456874180302,1.0629847965654051,214,2026-10-08 00:46:55.106244,25.0,0.35293160755144715,0.2148696355398254,0.07348575412063951
0237,cdot_cos,P,T-P,215,43,39462,0.05631194210912989,0.006077327095975167,0.1901596239272892,0.9914563838178125,938.0,7.310013756231957,0.6221148517588126,9.122009472108328,-0.21946646002446624,0.44,0.999999999995989,-150.61478411964157,1.0679525967422459,215,2026-10-08 00:46:55.546243,25.0,0.4515785619642569,0.13636929708261186,0.20241677099943825
0237,cdot_cos,Q,P-Q,216,43,39590,-0.0013745132555291304,-0.001584091626024707,-0.05768645536465902,0.19121086897467857,938.0,7.340955358424902,0.622338105683848,9.146480584615793,-0.07685693060944353,0.128,0.9999999999958871,638.7772550582065,1.0729198750297824,216,2026-10-08 00:46:55.674243,25.0,0.1563716947009947,0.4172377872166122,0.24173126713238763
0237,cdot_cos,R,Q-R,217,43,39641,0.05532213510007031,0.13176362071748954,0.05669664835559944,0.8049330398887435,938.0,7.416826629759409,0.6232773593414437,9.18146472582066,-0.1896468727538193,0.051,0.999999999995851,-120.08464511396402,1.0778870238116194,217,2026-10-08 00:46:55.725244,25.0,0.5517078495873946,1.053234932747906,1.48767198695112
0237,cdot_cos,S,R-S,218,43,39670,-0.000742464788610378,-0.004219958726195847,-0.056064599888680684,0.19755996083744515,938.0,7.448385321565189,0.6235077452803901,9.205997468525611,-0.07943873387835586,0.029,0.9999999999957618,478.36313005670905,1.082854135844166,218,2026-10-08 00:46:55.754244,25.0,0.24973996613528077,0.8502658004450048,1.0882307519234242
0237,cdot_cos,T,S-T,219,43,39941,-0.1869317384171473,-0.011341833962791356,-0.18618927362853693,0.00942675544164668,938.0,7.46614204618522,0.6235187369625648,9.227250618021854,-0.04484455868411844,0.271,0.999999999995658,3147.304902426286,1.087821665738576,219,2026-10-08 00:46:56.025243,25.0,0.46235414139230746,0.19982828193534108,0.06552296907760506
0237,cdot_cos,P,T-P,220,44,40400,0.06019051056364232,-0.001125024520323872,0.24712224898078963,0.9979298382445366,918.0,7.556692250374144,0.6246816110894076,9.265541957260611,-0.2300615313323371,0.459,0.9999999999956402,-159.27516862988696,1.0927895262611635,220,2026-10-08 00:46:56.484244,25.0,0.4470540361273373,0.1312203046357635,0.19727713330920238
0237,cdot_cos,Q,P-Q,221,44,40509,-0.0024743309103005397,-0.0022763802883201656,-0.06266484147394286,0.1726986232914873,918.0,7.586602285840851,0.6248827089736924,9.289566323830117,-0.07658561524448008,0.109,0.9999999999955302,763.1901083081705,1.097756776352765,221,2026-10-08 00:46:56.593244,25.0,0.13479793954650873,0.5039921328904805,0.27440399510740376
0237,cdot_cos,R,Q-R,222,44,40560,0.06651895378998166,0.12544545243858302,0.0689932847002822,0.8487501971230973,918.0,7.666562535344268,0.6258704038026607,9.325276124862008,-0.20600829371940038,0.051,0.999999999995497,-131.03508763947497,1.102723925164204,222,2026-10-08 00:46:56.644243,25.0,0.5335299153490936,1.066715843258681,1.5678480294787793
0237,cdot_cos,S,R-S,223,44,40590,-0.0009074588195222185,-0.0033406086074136924,-0.06742641260950387,0.15634740380412804,918.0,7.695407301853236,0.626052231993067,9.348970677506147,-0.07483069455600216,0.03,0.9999999999953977,721.4370822821289,1.1076910374744038,223,2026-10-08 00:46:56.674243,25.0,0.17325481142300678,0.7798051833322273,0.9614922169655908
0237,cdot_cos,T,S-T,224,44,40858,-0.18664489144643387,0.004850493857078209,-0.18573743262691164,0.009532823149666709,918.0,7.713350846344202,0.6260633172813597,9.37007493019887,-0.046691381673169885,0.268,0.9999999999952863,2538.4376247148193,1.112658577489452,224,2026-10-08 00:46:56.942244,25.0,0.5473503983209849,0.20425326224426113,0.06695352422002206
0237,cdot_cos,P,T-P,225,45,41318,0.05642896331401744,-0.00038364336299747385,0.24307385476045132,0.9977098527054123,937.0,7.80488705041616,0.6272227752237881,9.40835920317571,-0.2395800149274034,0.46,0.999999999995269,-166.36104354957035,1.1176264687091537,225,2026-10-08 00:46:57.402244,25.0,0.4470380639840367,0.1331277742651718,0.1989917479825175
0237,cdot_cos,Q,P-Q,226,45,41428,-0.0036024580673961913,-0.0032584082118163886,-0.06003142138141363,0.18230839334348972,937.0,7.83582839866816,0.6274344817901351,9.432426823984027,-0.08160394945192258,0.11,0.9999999999951531,746.2029553518315,1.1225937247591888,226,2026-10-08 00:46:57.512243,25.0,0.1442961495339502,0.5091394092050041,0.28128498410909103
0237,cdot_cos,R,Q-R,227,45,41482,0.06637234114402463,0.126301368051196,0.06997479921142082,0.85187332044849,937.0,7.916897720441261,0.6284230754601642,9.468166743441463,-0.21510831828853935,0.054,0.9999999999951188,-135.04473362922053,1.1275608791369158,227,2026-10-08 00:46:57.566243,25.0,0.5376014075053559,1.0664252541245265,1.5012837365389053
0237,cdot_cos,S,R-S,228,45,41528,0.01631877300606701,-0.05042351041012556,-0.05005356813795762,0.22246840239003293,937.0,7.951002326113609,0.62868107210555,9.492894488967536,-0.09112849919967854,0.046,0.9999999999950213,480.54818272325537,1.1325280198336631,228,2026-10-08 00:46:57.612243,25.0,0.2565338976416086,0.587054985936248,0.7414044711379992
0237,cdot_cos,T,S-T,229,45,41777,-0.11867844016719928,0.01019560280520181,-0.1349972131732663,0.03308820731621363,937.0,7.970906779147396,0.6287194382413704,9.514270046993195,-0.05336407161992802,0.249,0.9999999999949053,984.3166837679922,1.137495540532048,229,2026-10-08 00:46:57.861243,25.0,0.49278852438582954,0.22297531557008576,0.07993756238468615
0237,cdot_cos,P,T-P,230,46,42255,0.03506583827330955,-0.00016537841308652025,0.15374427844050884,0.9790328231424702,920.0,8.062044033267512,0.6298539010556067,9.552226245029313,-0.24573468186208697,0.478,0.9999999999948852,-169.56978036487703,1.1424634965132827,230,2026-10-08 00:46:58.339243,25.0,0.45710659547574206,0.12762749398198037,0.19066371154835957
0237,cdot_cos,Q,P-Q,231,46,42367,-0.0263999817092794,-0.01898914997493865,-0.061465819982588946,0.17702344966713843,920.0,8.092918663394169,0.6300588759735671,9.576085532918107,-0.08386210130975921,0.112,0.9999999999947615,789.7189673887697,1.1474307607567773,231,2026-10-08 00:46:58.451244,25.0,0.14511579290207668,0.5186403205583723,0.2756663404165836
0237,cdot_cos,R,Q-R,232,46,42418,0.05981691721520367,0.11406712210983691,0.08621689892448307,0.8961744004350414,920.0,8.178219465072587,0.631095832947805,9.612585156567318,-0.23309016819847658,0.051,0.9999999999947307,-143.9096033838745,1.1523979096009236,232,2026-10-08 00:46:58.502244,25.0,0.5271785145696052,1.3712866195239821,1.6725647387925104
0237,cdot_cos,S,R-S,233,46,42447,0.057819824414329035,-0.13898729784763042,-0.0019970928008746364,0.4875207621752924,920.0,8.232789898585615,0.6316594322708002,9.641882622880695,-0.1503035872281358,0.029,0.9999999999946583,146.88907099883812,1.157365017133232,233,2026-10-08 00:46:58.531244,25.0,0.5764908701706702,1.3116022064289465,1.881739086656143
0237,cdot_cos,T,S-T,234,46,42715,-0.05934704870992844,0.0013345019618377556,-0.11716687312425747,0.050730192070974844,920.0,8.254292393045466,0.6317180583931201,9.66344797955014,-0.059495044648965004,0.268,0.9999999999945387,1548.943354699308,1.1623325926937336,234,2026-10-08 00:46:58.799244,25.0,0.2173337453702983,0.204929726981671,0.08023318828302518
0237,cdot_cos,P,T-P,235,47,43175,0.04335855747699036,0.002821746610633541,0.1027056061869188,0.9287496941318534,919.0,8.34263223224779,0.6327906745822481,9.700517641427483,-0.2457548033291974,0.46,0.9999999999945121,-173.64996031959222,1.1673005502360267,235,2026-10-08 00:46:59.259244,25.0,0.468645375992261,0.1300957949765369,0.1920431287007063
0237,cdot_cos,Q,P-Q,236,47,43305,-0.017728906620798974,-0.01481926397795924,-0.06108746409778934,0.17840569240068593,919.0,8.37398052442388,0.6329965658288873,9.724298855647342,-0.08781685837450594,0.13,0.9999999999943824,767.0940243102428,1.1722678560559612,236,2026-10-08 00:46:59.389244,25.0,0.16554829476521676,0.4408698769048796,0.2411407090468387
0237,cdot_cos,R,Q-R,237,47,43350,0.05398560503161809,0.12309876451498937,0.07171451165241706,0.8572779045777275,919.0,8.45725840024306,0.6339852398152871,9.760099979756994,-0.23462131661320748,0.045,0.9999999999943443,-148.48621513071564,1.1772349932332549,237,2026-10-08 00:46:59.434243,25.0,0.5348825440587007,1.4582066165741696,1.8506194626484371
0237,cdot_cos,S,R-S,238,47,43383,0.03664469929665428,-0.08302796559180228,-0.01734090573496381,0.39328547133012115,919.0,8.505219119915555,0.6344384278013986,9.787660661837439,-0.13610343904493433,0.033,0.999999999994256,217.38854644755767,1.1822021074031794,238,2026-10-08 00:46:59.467244,25.0,0.48488398869976435,1.0298283876233865,1.4533551415907757
0237,cdot_cos,T,S-T,239,47,43655,-0.10507780771181678,-0.004974976145401158,-0.14172250700847105,0.028111490859594232,919.0,8.525227073826203,0.6344708119345571,9.808702040755184,-0.05700420359785248,0.272,0.9999999999941269,2442.5305769295232,1.1871697089175985,239,2026-10-08 00:46:59.739244,25.0,0.24967291618983162,0.20810300218455188,0.07355865408326438
0237,cdot_cos,P,T-P,240,48,44094,0.049806287440670574,0.003046840846831188,0.15488409515248736,0.9796098487968787,917.0,8.618427153103951,0.6355985505655043,9.846672182292588,-0.26694798003047987,0.439,0.9999999999941037,-186.16350515216317,1.1921376570358988,240,2026-10-08 00:47:00.178244,25.0,0.45545447803052946,0.14489727578537473,0.2123008639584244
0237,cdot_cos,Q,P-Q,241,48,44224,-0.003545710623634246,-0.004276826555938106,-0.05335199806430482,0.20853150331826334,917.0,8.652446881965762,0.6358384229044277,9.87088933909418,-0.09813642803997089,0.13,0.9999999999939726,703.7558092281877,1.1971049698667542,241,2026-10-08 00:47:00.308243,25.0,0.17903532145276713,0.4383439050785002,0.2616902220139285
0237,cdot_cos,R,Q-R,242,48,44268,0.05255615929603192,0.11970870986094781,0.05610186991966617,0.8025877080104407,917.0,8.732396568424361,0.6367610033256519,9.905699285748595,-0.2318998322525495,0.044,0.9999999999939253,-144.98834045826362,1.2020721048479006,242,2026-10-08 00:47:00.352243,25.0,0.561684237550904,1.4086082229917647,1.8170383286045306
0237,cdot_cos,S,R-S,243,48,44302,0.02523477565880759,-0.06093548017404497,-0.02732138363722433,0.33558435022497707,917.0,8.776404405589037,0.6371464622155011,9.932153200447031,-0.1284994197663306,0.034,0.9999999999938257,268.2527636777856,1.2070392199865996,243,2026-10-08 00:47:00.386244,25.0,0.44723275992672024,0.9319113408070436,1.2943481519022333
0237,cdot_cos,T,S-T,244,48,44573,-0.1369588183437785,-0.005354229365036671,-0.16219359400258607,0.017042764850276868,917.0,8.79576653959924,0.6371660331778686,9.952874430802469,-0.056739262397703605,0.271,0.9999999999936882,3666.664726096372,1.2120068374728148,244,2026-10-08 00:47:00.657243,25.0,0.2823139684063615,0.21134794665627088,0.07144698896753887
0237,cdot_cos,P,T-P,245,49,45011,0.059562954019868136,0.0008853129853087976,0.19652177236364662,0.9927035511436881,879.0,8.890954992676736,0.638305212640795,9.991080219320457,-0.28037943923687536,0.438,0.9999999999936655,-196.31689660614853,1.2169748151609285,245,2026-10-08 00:47:01.095244,25.0,0.4503933299556168,0.14482736597181914,0.21732523533674838
0237,cdot_cos,Q,P-Q,246,49,45122,-0.0027572956185453012,-0.0027834401907241217,-0.062320249638413434,0.17393292463723947,879.0,8.922635312190554,0.6385046502493605,10.014578267957516,-0.0939619436952408,0.111,0.9999999999935236,934.7158586709512,1.2219420936583216,246,2026-10-08 00:47:01.206244,25.0,0.13752245526360596,0.5100257211618735,0.2854082839082683
0237,cdot_cos,R,Q-R,247,49,45177,0.055896711760209154,0.1309308385575705,0.05865400737875445,0.81250199808299,879.0,9.004180702774672,0.6394356605137431,10.049544538258868,-0.24312303810201868,0.055,0.9999999999934769,-160.21423190827778,1.2269092523538971,247,2026-10-08 00:47:01.261244,25.0,0.5414410837771734,1.0533856349095638,1.4826434651657843
0237,cdot_cos,S,R-S,248,49,45223,0.0019422383016502863,-0.017990246524583843,-0.05395447345855887,0.2060565099029477,879.0,9.038507732030606,0.6396716053545705,10.073582870127739,-0.10297627796630529,0.046,0.9999999999933541,593.981032364552,1.2318763926160365,248,2026-10-08 00:47:01.307244,25.0,0.2564140902957648,0.59767420753824,0.7462397664333456
0237,cdot_cos,T,S-T,249,49,45470,-0.1353304450434431,-0.017741530464521198,-0.13727268334509338,0.03131576389028005,879.0,9.05916672986819,0.6397074575428339,10.094437817189634,-0.062160307632246295,0.247,0.9999999999932104,1138.4512999368994,1.2368439743783806,249,2026-10-08 00:47:01.554244,25.0,0.5185990022975596,0.23608388443232975,0.08363966735864041
0237,cdot_cos,P,T-P,250,50,45890,0.05056883800270659,0.003758089734413003,0.1858992830461497,0.9905053057121814,898.0,9.155133170940177,0.6408406423384354,10.132605080312686,-0.29021039951524596,0.42,0.9999999999931883,-201.24704529056257,1.2418119424063918,250,2026-10-08 00:47:01.974244,25.0,0.4557506176670578,0.15541312414090763,0.22849152636187312
0237,cdot_cos,Q,P-Q,251,50,46020,-0.0031695633609263993,-0.004061150121053607,-0.05373840136363299,0.2069416330472478,898.0,9.189713754146553,0.6410771954868888,10.156598561113997,-0.10529358745252393,0.13,0.9999999999930457,781.7135949013104,1.2467792683881385,251,2026-10-08 00:47:02.104243,25.0,0.17269952741050437,0.4462877913605044,0.2660044862028899
0237,cdot_cos,R,Q-R,252,50,46065,0.052551348526242665,0.13562777277646085,0.055720911887169065,0.8010743770530522,898.0,9.271167996693908,0.6419922489297744,10.191336890794044,-0.2493057115079433,0.045,0.9999999999929946,-157.38110727313006,1.2517464051109868,252,2026-10-08 00:47:02.149244,25.0,0.56121414464605,1.4132405553759102,1.810094278830121
0237,cdot_cos,S,R-S,253,50,46121,0.027138214772963062,-0.05740062921884825,-0.025413133753279603,0.34630333574812483,898.0,9.316905404130384,0.6423875056428529,10.21782470248072,-0.14088336283945896,0.056,0.999999999992887,274.30868365024406,1.256713568137203,253,2026-10-08 00:47:02.205244,25.0,0.4632032008155345,0.5834625713262273,0.8167394185085084
0237,cdot_cos,T,S-T,254,50,46350,-0.13929350792377276,-0.014244315627686778,-0.16643172269673584,0.0153557098456896,898.0,9.336515804682445,0.6424050275544303,10.238277392056224,-0.060616350529216996,0.229,0.9999999999927336,4580.950654582996,1.261681125754541,254,2026-10-08 00:47:02.434243,25.0,0.2660207731375867,0.2546827879009742,0.08563493690856323
0237,cdot_cos,P,T-P,255,51,46788,0.05271789502807663,0.003683630253452071,0.1920114029518494,0.9918397364646454,901.0,9.43355012098903,0.6435359762735788,10.276471857143378,-0.3013862936368454,0.438,0.9999999999927128,-212.89200741913183,1.2666491665811448,255,2026-10-08 00:47:02.872243,25.0,0.449834791741776,0.15000744070997532,0.22153953494654158
0237,cdot_cos,Q,P-Q,256,51,46918,-0.002751234523040404,-0.0035181925343703356,-0.05546912955111703,0.19993058861061858,901.0,9.467922322744384,0.6437637545896836,10.300247404366154,-0.10747605791035748,0.13,0.9999999999925622,851.3112180410537,1.2716164995842487,256,2026-10-08 00:47:03.002244,25.0,0.16460312977158326,0.44880929603008546,0.2644015519642551
0237,cdot_cos,R,Q-R,257,51,46963,0.053141266901184904,0.12945689324926976,0.055892501424225305,0.8017570821904669,901.0,9.550240537956853,0.6446765318585873,10.33497855603466,-0.2586866833557856,0.045,0.9999999999925094,-165.65993763959497,1.2765836362179097,257,2026-10-08 00:47:03.047244,25.0,0.5573666892042686,1.4479490281583118,1.8292936713882015
0237,cdot_cos,S,R-S,258,51,47019,0.031669454381607884,-0.06943451328725816,-0.02147181251957702,0.3689333885422801,901.0,9.598237735278632,0.6450961990318037,10.361806830805929,-0.15178513515850803,0.056,0.9999999999924001,254.72935464064665,1.281550800122399,258,2026-10-08 00:47:03.103244,25.0,0.4944569249445691,0.6088172483427507,0.8570928093174819
0237,cdot_cos,T,S-T,259,51,47267,-0.12379413736010905,-0.011046162122567536,-0.15546359174171692,0.02010277568819327,901.0,9.618428069771241,0.6451190598306581,10.382236363095107,-0.06407499301056972,0.248,0.999999999992241,3836.7050384643267,1.2865184182480434,259,2026-10-08 00:47:03.351244,25.0,0.25439503109565664,0.2373330913753884,0.0814126390831012
0237,cdot_cos,P,T-P,260,52,47689,0.04649360203441035,0.0021078488511622703,0.1702877393945194,0.9860357688029071,896.0,9.715954948600825,0.6462395610016274,10.420327950401894,-0.31095762160680746,0.422,0.9999999999922169,-220.332325384963,1.2914864543029063,260,2026-10-08 00:47:03.773243,25.0,0.45205880627898354,0.15762757586758885,0.23110634793740178
0237,cdot_cos,Q,P-Q,261,52,47799,-0.006537749417901584,-0.0070362744881453596,-0.053031351452311935,0.20985763160568524,896.0,9.751465743803486,0.646477830181046,10.444198034511171,-0.1139680637546936,0.11,0.999999999992062,826.752156249432,1.2964537464454113,261,2026-10-08 00:47:03.883244,25.0,0.17755714227885294,0.551893356939233,0.3228254109332857
0237,cdot_cos,R,Q-R,262,52,47858,0.05871227058831055,0.13061667520653117,0.06525002000621213,0.8363408727546736,896.0,9.837371487127456,0.647426675313109,10.479545462172789,-0.2770860410287105,0.059,0.9999999999920138,-171.91211901920403,1.3014209171195572,262,2026-10-08 00:47:03.942244,25.0,0.555053537141201,1.0847729571366416,1.4560295478638956
0237,cdot_cos,S,R-S,263,52,47898,0.022851298924823175,-0.06181565062742122,-0.035860971663487375,0.2897652798802716,896.0,9.87946895274561,0.6477551490885894,10.50485251424702,-0.1366132362151336,0.04,0.999999999991887,427.653028337295,1.3063880428742347,263,2026-10-08 00:47:03.982244,25.0,0.3576316292144847,0.7875875469660398,1.0524366404538466
0237,cdot_cos,T,S-T,264,52,48148,-0.12117530285853777,-0.009273508651873466,-0.14402660178336094,0.026579781262577738,896.0,9.900378490884739,0.6477852725581799,10.525294201584874,-0.06806916108995044,0.25,0.999999999991723,2275.4375925870427,1.3113556832013433,264,2026-10-08 00:47:04.232243,25.0,0.3653217035980783,0.23878448924847007,0.0836381525565173
0237,cdot_cos,P,T-P,265,53,48585,0.04974485895235711,0.00047413758994315657,0.17092016181089487,0.9862518034504225,880.0,9.998861197369845,0.6489021814610277,10.563392041881505,-0.32206796070048005,0.437,0.9999999999916983,-227.41227951795068,1.3163237884794061,265,2026-10-08 00:47:04.669244,25.0,0.4544580372221283,0.1498133773044491,0.2253608844052762
0237,cdot_cos,Q,P-Q,266,53,48697,-0.014277972549110146,-0.013967098440969605,-0.06402283150146726,0.16790185455325918,880.0,10.031315382648827,0.6490921647662923,10.5864036795401,-0.10680682702064559,0.112,0.99999999999153,1133.0528931481429,1.3212910909305362,266,2026-10-08 00:47:04.781244,25.0,0.13326377378271795,0.5314310464291253,0.2897695114194893
0237,cdot_cos,R,Q-R,267,53,48753,0.05049482207369103,0.11890836395178464,0.06477279462280117,0.8347013095997521,880.0,10.117901751769969,0.6500359388877353,10.621705785328263,-0.2862939779280313,0.056,0.9999999999914793,-190.18019972084042,1.3262582550553372,267,2026-10-08 00:47:04.837244,25.0,0.5342277517780707,1.3055674276610332,1.5461851628775225
0237,cdot_cos,S,R-S,268,53,48797,0.05059242284488623,-0.10074397512256024,9.760077119520122e-05,0.5006100045173217,880.0,10.177538934546863,0.6506014024898161,10.650835068290498,-0.19847031302123191,0.044,0.9999999999913817,155.31267544650683,1.3312253905115496,268,2026-10-08 00:47:04.881243,25.0,0.6424265561610306,0.9211973151734226,1.355390517656692
0237,cdot_cos,T,S-T,269,53,49047,-0.08821730948304002,-0.011110920036918843,-0.13880973232792626,0.03017086133287444,880.0,10.19896711550523,0.650635468446781,10.671246244660528,-0.07159389451619441,0.25,0.99999999999121,3724.4342977325837,1.3361930499082106,269,2026-10-08 00:47:05.131244,25.0,0.16996408401358362,0.23922041903394842,0.08571272383346695
0237,cdot_cos,P,T-P,270,54,49465,0.05202616216330769,0.0028941594586076804,0.1402434716463477,0.9708604615699321,878.0,10.297149144063837,0.6517308456224034,10.70906223220422,-0.3294810972563744,0.418,0.9999999999911823,-235.43233187569086,1.3411611428850958,270,2026-10-08 00:47:05.549243,25.0,0.4571667266311193,0.1598559496109758,0.2348852357861423
0237,cdot_cos,Q,P-Q,271,54,49595,-0.0032780757552146075,-0.004337754156396182,-0.05530423791852229,0.20059079916873299,878.0,10.332606689380006,0.6519569636266453,10.732598809254158,-0.11972880297445913,0.13,0.9999999999910136,927.6231452027012,1.3461284982743416,271,2026-10-08 00:47:05.679244,25.0,0.1734449493052328,0.4583580815504977,0.27275034858590996
0237,cdot_cos,R,Q-R,272,54,49635,0.04957592156230257,0.12748308047269033,0.05285399731751717,0.7894062125088768,878.0,10.416322245266967,0.6528461641383196,10.767047664586121,-0.283973826486305,0.04,0.9999999999909529,-184.71089631132318,1.3510956219267762,272,2026-10-08 00:47:05.719244,25.0,0.5608056595971995,1.5829965749711628,2.092888897174028
0237,cdot_cos,S,R-S,273,54,49694,0.013745580045786415,-0.045583314586898176,-0.03583034151651615,0.2899228983967336,878.0,10.459246415377699,0.653172471009867,10.792213316455474,-0.14642847862625896,0.059,0.9999999999908162,421.5214568047926,1.3560627966049403,273,2026-10-08 00:47:05.778244,25.0,0.3908878150209745,0.5351605872662354,0.7275283069615578
0237,cdot_cos,T,S-T,274,54,49926,-0.15879861794076056,-0.028662687979661816,-0.17254419798654697,0.013208412144467255,878.0,10.479471194564383,0.6531873335902381,10.81220726097219,-0.06920079021907513,0.232,0.9999999999906339,5196.115780635863,1.3610304257740682,274,2026-10-08 00:47:06.010243,25.0,0.3275893901992921,0.2614272486148987,0.08717577235639595
0237,cdot_cos,P,T-P,275,55,50343,0.053993120745556226,0.003978777597519855,0.2127917386863168,0.9951300679558637,880.0,10.580548658735012,0.6543062289748897,10.850474819219235,-0.34731960147105834,0.417,0.9999999999906102,-248.56551833805642,1.36599854762006,275,2026-10-08 00:47:06.427244,25.0,0.4489886804462115,0.16348795732125943,0.24239200040918257
0237,cdot_cos,Q,P-Q,276,55,50474,-0.0028572677370402857,-0.0037878863726218143,-0.05685038848259651,0.19446417643836328,880.0,10.615820150970313,0.6545246799522585,10.873815203630036,-0.12194734152813663,0.131,0.9999999999904339,1031.6834589501611,1.3709659128018008,276,2026-10-08 00:47:06.558244,25.0,0.15753442069626186,0.46069775024785975,0.2692480323305438
0237,cdot_cos,R,Q-R,277,55,50517,0.0528380279255082,0.14058289944051536,0.05569529566254849,0.8009723060392445,880.0,10.701251469299951,0.6554237625723796,10.908460233321476,-0.29668509833489676,0.043,0.9999999999903733,-194.35116739686478,1.3759330439699249,277,2026-10-08 00:47:06.601243,25.0,0.5549001548645456,1.652915380037121,1.9867748448753029
0237,cdot_cos,S,R-S,278,55,50575,0.04510780850396171,-0.07522129083109892,-0.007730219421546489,0.4518359367364197,880.0,10.757970873653505,0.6559304535415235,10.936581048612277,-0.19814968500153263,0.058,0.9999999999902588,194.46846171315624,1.3809002172262757,278,2026-10-08 00:47:06.659244,25.0,0.6081840869177365,0.6716811405148838,0.9779207647164548
0237,cdot_cos,T,S-T,279,55,50804,-0.10581322930930322,-0.01700456723258749,-0.15092103781326494,0.022466089455321567,880.0,10.779166481599677,0.6559556378767087,10.956654195246928,-0.0743134121986452,0.229,0.9999999999900715,4917.19443423185,1.3858678556823871,279,2026-10-08 00:47:06.888243,25.0,0.18892495256690459,0.26598697569390795,0.09255723993961636
0237,cdot_cos,P,T-P,280,56,51223,0.04678633864668945,0.0033791064313059248,0.15259956795599267,0.9784372464516837,879.0,10.879792908521315,0.6570516075147608,10.994611744668095,-0.35425941306391595,0.419,0.9999999999900444,-255.43225938525555,1.390836017561854,280,2026-10-08 00:47:07.307244,25.0,0.4537409546748344,0.16312337504854352,0.24015853680581792
0237,cdot_cos,Q,P-Q,281,56,51353,-0.008657581149831534,-0.009959622600807086,-0.05544391979652098,0.20003142044397162,879.0,10.915863869890357,0.6572754616944699,11.01798097885937,-0.12775097671629876,0.13,0.9999999999898624,1011.8570787550447,1.3958033880501581,281,2026-10-08 00:47:07.437243,25.0,0.16981484012913148,0.47471156104036316,0.2774689336080135
0237,cdot_cos,R,Q-R,282,56,51397,0.050547133831289615,0.13456148687340583,0.05920471498112115,0.8145903842978315,879.0,11.00321791439181,0.6581863425166362,11.052864992656987,-0.3107328402256039,0.044,0.9999999999898016,-200.8845274337125,1.4007705219598612,282,2026-10-08 00:47:07.481244,25.0,0.5549529286685502,1.6213156693184765,1.9853191932148337
0237,cdot_cos,S,R-S,283,56,51453,0.03907549968829541,-0.07480629431124253,-0.011471634142994201,0.42878970013596496,879.0,11.058539648790383,0.6586653504402573,11.08050305750378,-0.19793598804732548,0.056,0.9999999999896789,235.48013846113716,1.4057376909678678,283,2026-10-08 00:47:07.537244,25.0,0.5656016173382236,0.6803215992354148,0.9878881142602365
0237,cdot_cos,T,S-T,284,56,51701,-0.12526323664184916,-0.02108878304047883,-0.16433873633014456,0.016167248627981846,879.0,11.079413933506176,0.6586834048091673,11.100366941293396,-0.07494241048105894,0.248,0.9999999999894832,6812.399712189362,1.4107053999539376,284,2026-10-08 00:47:07.785243,25.0,0.19375233479575782,0.2486042693412428,0.084170502886263
0237,cdot_cos,P,T-P,285,57,52102,0.05510208051594506,-0.0006174542512655935,0.18036531715779422,0.9891118559402018,879.0,11.18184736638364,0.6597870938814295,11.138525606984686,-0.36922366281868857,0.401,0.9999999999894554,-266.6341995526383,1.4156735456234482,285,2026-10-08 00:47:08.186244,25.0,0.4506667775120999,0.17163168832409129,0.2554449697692349
0237,cdot_cos,Q,P-Q,286,57,52211,-0.003989980963303757,-0.003921959272433915,-0.05909206147924882,0.18583535221942868,879.0,11.217062547542097,0.6599942631764992,11.161554327919314,-0.1276812518178572,0.109,0.9999999999892647,1165.9180040148772,1.4206408642429316,286,2026-10-08 00:47:08.295244,25.0,0.15080600740220673,0.5745185252965462,0.32307505649961477
0237,cdot_cos,R,Q-R,287,57,52265,0.06146493978883125,0.13314449246277218,0.065454920752135,0.8370408090992786,879.0,11.307092404898286,0.6609266371601712,11.196846055085649,-0.32781243464401755,0.054,0.999999999989208,-214.64689741554645,1.4256080270810874,287,2026-10-08 00:47:08.349244,25.0,0.5430764593256733,1.2335989069768911,1.667219580670168
0237,cdot_cos,S,R-S,288,57,52292,0.02348484118824239,-0.061474048514883826,-0.03798009860058886,0.27898489128860243,879.0,11.350291229495602,0.6612371197406411,11.221604863054544,-0.15815338598364828,0.027,0.9999999999890519,546.4366097562414,1.4305751133266469,288,2026-10-08 00:47:08.376243,25.0,0.3420665314893429,1.1890250905391686,1.5999564665672283
0237,cdot_cos,T,S-T,289,57,52560,-0.14220710867918776,-0.015665196618318545,-0.16569194986743016,0.01563786329424956,879.0,11.371299759787401,0.661254519031562,11.241365666165542,-0.0771295905231178,0.268,0.9999999999888504,4656.729738543179,1.4355428984588687,289,2026-10-08 00:47:08.644243,25.0,0.34976663038247224,0.23265948928300786,0.07839003840223858
0237,cdot_cos,P,T-P,290,58,52981,0.058963205770394295,-0.0010414657231359596,0.20117031444958205,0.9934988761009595,859.0,11.474996715751294,0.662359029248919,11.279607331010887,-0.38218511974087527,0.421,0.9999999999888228,-276.1907716415,1.4405111341555603,290,2026-10-08 00:47:09.065243,25.0,0.45014394181660244,0.16444347316151736,0.24631105929665625
0237,cdot_cos,Q,P-Q,291,58,53091,-0.0025276874701215496,-0.0026018179791656108,-0.06149089324051584,0.17693214749533354,859.0,11.509761164189399,0.6625555461432601,11.302391625076194,-0.1288676052248852,0.11,0.9999999999886222,1289.0368299649797,1.4454784612201572,291,2026-10-08 00:47:09.175244,25.0,0.14005513505760922,0.5647316850093614,0.3160404403464121
0237,cdot_cos,R,Q-R,292,58,53144,0.058497657754026,0.13922695637083254,0.06102534522414755,0.8213665637928097,859.0,11.599237686453353,0.6634670942877885,11.33737156543223,-0.3330278142184402,0.053,0.9999999999885598,-223.97084588348665,1.4504456216984716,292,2026-10-08 00:47:09.228243,25.0,0.5417002279026332,1.1800043715432833,1.6882362691312112
0237,cdot_cos,S,R-S,293,58,53189,-0.0007229695277994754,-0.007766023600300344,-0.05922062728182548,0.18534954120197852,859.0,11.634841627572987,0.6636726263537467,11.360286430861223,-0.13319365322053683,0.045,0.9999999999883791,972.2772943787403,1.4554127597141149,293,2026-10-08 00:47:09.273243,25.0,0.22305699609337584,0.6226289726841867,0.7911986915474185
0237,cdot_cos,T,S-T,294,58,53439,-0.19900185095375264,-0.12105864750606349,-0.19827888142595315,0.006985060631845507,859.0,11.65527429399493,0.6636803707999939,11.3797888593975,-0.07662180567897772,0.25,0.9999999999881657,7304.827967802555,1.4603805095180187,294,2026-10-08 00:47:09.523244,25.0,0.47791342127816605,0.2509028682565386,0.08173066568777188
0237,cdot_cos,P,T-P,295,59,53840,0.06989248626160095,0.005045961999297714,0.2688943372153536,0.9987977511117759,876.0,11.760293061701256,0.6647868464601582,11.418130715597506,-0.3952922963403235,0.401,0.999999999988139,-288.0049712200848,1.4653487166941994,295,2026-10-08 00:47:09.924243,25.0,0.44656773777651554,0.17117087331593875,0.26189218879383125
0237,cdot_cos,Q,P-Q,296,59,53967,-0.0012783262331295005,-0.001656675360793818,-0.07117081249473045,0.14439325911699794,876.0,11.792553334394313,0.6649466570590233,11.440217670922186,-0.12211137645146417,0.127,0.9999999999879255,1709.4042687328374,1.470316100425738,296,2026-10-08 00:47:10.051244,25.0,0.10676282120000849,0.47301854267865573,0.2540178952209176
0237,cdot_cos,R,Q-R,297,59,54017,0.05273037061524642,0.15389843172806483,0.05400869684837592,0.7941651716328051,876.0,11.880439771541635,0.6658249412805848,11.474662338319405,-0.33392767487937713,0.05,0.9999999999878553,-241.1705609960053,1.4752832520133927,297,2026-10-08 00:47:10.101243,25.0,0.5302970854702563,1.2601733961674988,1.7577287429464405
0237,cdot_cos,S,R-S,298,59,54069,0.00012653752133919878,-0.0018765086927291597,-0.052603833093907225,0.21163537715536024,876.0,11.918570674011063,0.6660587997777443,11.498000737838629,-0.14560031990560077,0.052,0.9999999999876729,805.3047345349228,1.4802504110785708,298,2026-10-08 00:47:10.153243,25.0,0.27432156483797276,0.5612458580448454,0.7332865859505356
0237,cdot_cos,T,S-T,299,59,54319,-0.2321099976986488,-0.1718476115294711,-0.232236535219988,0.0030006733518033943,876.0,11.938809340778299,0.6660621149550089,11.5173338716143,-0.07746929343489552,0.25,0.9999999999874483,20551.246896601664,1.4852181776714095,299,2026-10-08 00:47:10.403244,25.0,0.41500758885945915,0.25229641156202476,0.08095466706894427
0237,cdot_cos,P,T-P,300,60,54716,0.04983002124476752,0.0023738981106883154,0.2819400189434163,0.9991320433675006,900.0,12.044718879792075,0.6671650531702515,11.555681572888885,-0.40686802154133206,0.397,0.9999999999874218,-298.65564866112317,1.4901864020367928,300,2026-10-08 00:47:10.800243,25.0,0.44503781935106185,0.17941844239666327,0.2667746574654315
0237,cdot_cos,Q,P-Q,301,60,54828,-0.007832518569435577,-0.008652027319128763,-0.0576625398142031,0.1913033491077716,900.0,12.08126758404125,0.6673760239481461,11.578586318204911,-0.14119684435143134,0.112,0.999999999987211,1259.2795070541965,1.495153745759914,301,2026-10-08 00:47:10.912243,25.0,0.1523513414567872,0.5723874363995985,0.32632771651048514
0237,cdot_cos,R,Q-R,302,60,54884,0.05548713692886824,0.12687576233341358,0.06331965549830382,0.8296277542781132,900.0,12.172933665545585,0.6682901664437323,11.613690150626816,-0.35551854587023934,0.056,0.9999999999871466,-234.4510867327912,1.500120916424668,302,2026-10-08 00:47:10.968243,25.0,0.5472538347774005,1.4438716700008498,1.636894312577424
0237,cdot_cos,S,R-S,303,60,54943,0.06794637788571412,-0.12291152688474057,0.012459240956845877,0.5772467210462656,900.0,12.242981211081345,0.6689254704855025,11.64396088081689,-0.27322015957249934,0.059,0.9999999999870353,129.54173259848596,1.5050880984657655,303,2026-10-08 00:47:11.027244,25.0,0.7399176550529892,0.7968903586719728,1.1872465345043972
0237,cdot_cos,T,S-T,304,60,55178,-0.055323916941315235,-0.002131446895152098,-0.12327029482702935,0.043866048961927154,900.0,12.266966727868878,0.6689737232911671,11.664000866965294,-0.09390901102517756,0.235,0.9999999999868129,3716.077149872636,1.5100558391418206,304,2026-10-08 00:47:11.262244,25.0,0.1481672373531164,0.26629179064827363,0.10206602888312068
0237,cdot_cos,P,T-P,305,61,55616,0.050574596586695615,-0.0025844971723282045,0.10589851352801086,0.9338544416102263,879.0,12.368138352686033,0.67000012226104,11.701095166602475,-0.3975071422139733,0.438,0.9999999999867721,-295.7895906953162,1.5150242310322457,305,2026-10-08 00:47:11.700243,25.0,0.4659135577434947,0.1582310328148113,0.23098544478802568
0237,cdot_cos,Q,P-Q,306,61,55725,-0.0054668023070748376,-0.0055437353679158525,-0.05604139889377045,0.19765192832430692,879.0,12.405577112614653,0.6702171542441012,11.724059377082254,-0.14787675496623087,0.109,0.9999999999865526,1150.2009230470176,1.519991571988202,306,2026-10-08 00:47:11.809243,25.0,0.18487089793146136,0.6033217287427937,0.34347486173045366
0237,cdot_cos,R,Q-R,307,61,55775,0.06339253207601123,0.12775862932038815,0.06885933438308606,0.8483198037711385,879.0,12.499662489551962,0.6711478285274929,11.759507581649027,-0.3730567151027494,0.05,0.9999999999864893,-241.95356437258954,1.524958724484596,307,2026-10-08 00:47:11.859244,25.0,0.5468351759043769,1.4980336713190034,1.8817075387461912
0237,cdot_cos,S,R-S,308,61,55805,0.04814198877131901,-0.1088471639114995,-0.015250543304692214,0.40582217248892194,879.0,12.555380479746553,0.6715925737161562,11.786449529053856,-0.22210218199497464,0.03,0.9999999999863368,339.4180239733772,1.5299258134841698,308,2026-10-08 00:47:11.889244,25.0,0.5067879842916991,1.303666334612815,1.857266339819693
0237,cdot_cos,T,S-T,309,61,56075,-0.09927833613283332,-0.0074075454827483185,-0.14742032490415233,0.024470594710527874,879.0,12.577882469628731,0.6716193814964042,11.80603905320767,-0.08997356025997254,0.27,0.9999999999861037,4928.741600859874,1.5348936868357435,309,2026-10-08 00:47:12.159244,25.0,0.23026436583122975,0.2381494978316613,0.08334070326732632
0237,cdot_cos,P,T-P,310,62,56495,0.05764283344174068,0.00208482560210075,0.156921169574574,0.9806026189294879,899.0,12.68398120857565,0.6726927196755957,11.844025999133061,-0.42568762775240465,0.42,0.9999999999860691,-312.7756694030039,1.5398620575146582,310,2026-10-08 00:47:12.579243,25.0,0.45446268245961063,0.1694043210369018,0.25261604511171193
0237,cdot_cos,Q,P-Q,311,62,56624,-0.0030539015139545087,-0.0038548856093836284,-0.06069673495569519,0.1798419916061128,899.0,12.720182099299729,0.6728893737777759,11.866583180372299,-0.14601792695171845,0.129,0.9999999999858382,1422.140182687148,1.544829470868923,311,2026-10-08 00:47:12.708243,25.0,0.14729605764603967,0.4957280354745679,0.28062705987657754
0237,cdot_cos,R,Q-R,312,62,56669,0.055525172302292244,0.13553854045247218,0.05857907381624675,0.8122164418371399,899.0,12.811879041728089,0.6737767611181809,11.901320577434257,-0.3712057385483417,0.045,0.9999999999857633,-253.76495848347662,1.5497966069400246,312,2026-10-08 00:47:12.753243,25.0,0.5451802412843911,1.4546287171049086,2.037709831741334
0237,cdot_cos,S,R-S,313,62,56725,0.0032104614672048095,-0.018731752385969958,-0.05231471083508744,0.21284386194226065,899.0,12.85109868383917,0.6740090983260719,11.924488390456263,-0.15952381370757607,0.056,0.9999999999855598,911.0978252782329,1.554763781208545,313,2026-10-08 00:47:12.809243,25.0,0.26528215459687304,0.5379965769596318,0.7003507519836027
0237,cdot_cos,T,S-T,314,62,56974,-0.20155900258983933,-0.11538689584000962,-0.20476946405704413,0.005945031945025186,899.0,12.872134658347568,0.6740155866083184,11.943636911755805,-0.08576290095723803,0.249,0.9999999999853109,11368.326769448095,1.5597316031065154,314,2026-10-08 00:47:13.058244,25.0,0.4231383108876557,0.2601124864323723,0.08448182533492772
0237,cdot_cos,P,T-P,315,63,57394,0.055630107500735965,-6.863912343789454e-05,0.2571891100905753,0.9983897073443915,899.0,12.980634702082492,0.6751042607175927,11.981962998356273,-0.4438076414842582,0.42,0.9999999999852797,-328.88146918980186,1.5647000062897105,315,2026-10-08 00:47:13.478244,25.0,0.4463032646706367,0.17334040330504824,0.2583334374641057
0237,cdot_cos,Q,P-Q,316,63,57504,-0.0031537263225844586,-0.0029957294351371307,-0.058783833823320426,0.18700405122060199,899.0,13.017740597123808,0.6753079657467413,12.004589352416255,-0.1525830384532839,0.11,0.9999999999850413,1429.6387489697804,1.5696673619287043,316,2026-10-08 00:47:13.588243,25.0,0.14828335848734786,0.6015455914930357,0.33732631855741924
0237,cdot_cos,R,Q-R,317,63,57559,0.06441417299261012,0.13480570273109815,0.06756789931519458,0.8441185919112237,899.0,13.11297473221096,0.676226644694526,12.039925713265035,-0.3930250651029925,0.055,0.9999999999849718,-261.7258480011183,1.5746345318089223,317,2026-10-08 00:47:13.643244,25.0,0.5423884946770249,1.1862596306160065,1.7315297288573042
0237,cdot_cos,S,R-S,318,63,57586,-0.0005355825764476061,-0.0023096702998819385,-0.06494975556905773,0.16468918908755123,899.0,13.148229156491569,0.676405722755466,12.062094613920719,-0.14617733865966717,0.027,0.9999999999847485,1378.436449153125,1.5796016068445484,318,2026-10-08 00:47:13.670244,25.0,0.18476201418665225,1.0563112318101051,1.3057194178003328
0237,cdot_cos,T,S-T,319,63,57852,-0.17456588689499575,-0.010990399188320767,-0.17403030431854813,0.012732822286985282,899.0,13.170015538728705,0.6764195658910522,12.081292461738984,-0.09052840947234707,0.266,0.9999999999844931,4019.965624152582,1.5845695051437854,319,2026-10-08 00:47:13.936243,25.0,0.540796445822974,0.24627131714416353,0.08190369262081462
0237,cdot_cos,P,T-P,320,64,58293,0.059442022007595116,-0.0006959198504334775,0.23400790890259088,0.997128936944065,878.0,13.279245497212264,0.677502684625395,12.119589957882798,-0.45533943649539776,0.441,0.9999999999844601,-336.8153605471735,1.5895380141198783,320,2026-10-08 00:47:14.377243,25.0,0.44879692262684995,0.1647768736524107,0.24768698068834086
0237,cdot_cos,Q,P-Q,321,64,58402,-0.0032385397765957286,-0.0031750860841646333,-0.06268056178419085,0.17264247999901475,878.0,13.315348741290132,0.6776900223309454,12.14186988504808,-0.15128227847734232,0.109,0.9999999999842085,1623.0430341005485,1.594505371370362,321,2026-10-08 00:47:14.486243,25.0,0.13400658597191456,0.5993468226648767,0.33122242273273317
0237,cdot_cos,R,Q-R,322,64,58455,0.05970924045704794,0.13016866419769688,0.06294778023364367,0.8283096516470262,878.0,13.409903104553207,0.6785880425187069,12.176882290186006,-0.39757076946385955,0.053,0.9999999999841324,-274.2571874697658,1.599472534433171,322,2026-10-08 00:47:14.539244,25.0,0.5382224128685894,1.2407109479511225,1.7840445898693436
0237,cdot_cos,S,R-S,323,64,58483,-0.0006855823110066001,-0.003316238589642411,-0.06039482276805454,0.18095797558168505,878.0,13.44686410177295,0.6787840545630737,12.199298608014113,-0.15612402058236202,0.028,0.9999999999839038,1231.7954728825805,1.6044396107506356,323,2026-10-08 00:47:14.567244,25.0,0.2129908458051047,1.049133417566596,1.320035614990849
0237,cdot_cos,T,S-T,324,64,58751,-0.18031817198918665,-0.024634288826213963,-0.17963258967818005,0.011087201383033717,878.0,13.468654575936936,0.6787960620721069,12.218384444025315,-0.09224313461565743,0.268,0.9999999999836382,5320.078110302278,1.6094075351174022,324,2026-10-08 00:47:14.835244,25.0,0.5003100525920241,0.2459214839495973,0.08130773941785674
0237,cdot_cos,P,T-P,325,65,59171,0.04807641987080068,0.0012388188189169872,0.22839459185998734,0.9966978200598203,879.0,13.578678017169935,0.6798745246413664,12.256668432618183,-0.4671984560535216,0.42,0.999999999983603,-347.67578599903396,1.614376004084443,325,2026-10-08 00:47:15.255244,25.0,0.4481796460430047,0.17889907395133986,0.26196057436428233
0237,cdot_cos,Q,P-Q,326,65,59281,-0.0034903068801785957,-0.003462195670525884,-0.05156672675097927,0.2159936401662407,879.0,13.618929798056062,0.6801079847365574,12.279726957077187,-0.17180686724006286,0.11,0.9999999999833545,1265.2765714492236,1.619343370258939,326,2026-10-08 00:47:15.365243,25.0,0.17918732244499258,0.6097619535929204,0.3659252807829719
0237,cdot_cos,R,Q-R,327,65,59335,0.05528853229758812,0.12654357857228557,0.05877883917776672,0.812976964196835,879.0,13.712825646960377,0.6809858941542002,12.314421984798782,-0.4021653632337432,0.054,0.9999999999832717,-262.3943784681179,1.6243105372392124,327,2026-10-08 00:47:15.419244,25.0,0.5639467401018633,1.2717209923539736,1.7388120167465846
0237,cdot_cos,S,R-S,328,65,59380,0.011364400956562942,-0.04349346403959482,-0.04392413134102518,0.25009545060836685,879.0,13.75627566523029,0.6812557070115585,12.338123522250932,-0.18695209120881626,0.045,0.9999999999830537,797.6390529794216,1.6292776731635026,328,2026-10-08 00:47:15.464243,25.0,0.31626714153211294,0.7249988964160379,0.965555961553635
0237,cdot_cos,T,S-T,329,65,59629,-0.17498586008710598,-0.023346713310460676,-0.18635026104366892,0.009389247471839557,879.0,13.77807554763782,0.6812658341377186,12.357101007234778,-0.09401966084669953,0.249,0.9999999999827761,9176.584639399643,1.6342455490252756,329,2026-10-08 00:47:15.713243,25.0,0.3721582407029447,0.2664549771517846,0.08754972854429653
0237,cdot_cos,P,T-P,330,66,60050,0.058125887918961325,0.0014415373857530394,0.23311174800606732,0.9970640786003445,877.0,13.88897024385188,0.6823402792687002,12.395385481207116,-0.4797106359322296,0.421,0.9999999999827415,-358.967586118753,1.639214056461765,330,2026-10-08 00:47:16.134243,25.0,0.44753185737826934,0.17579261399897853,0.26340782948707575
0237,cdot_cos,Q,P-Q,331,66,60158,-0.0030651515625543017,-0.003038377534075007,-0.06119103948151563,0.17802646392015298,877.0,13.92609292862496,0.6825319184075027,12.41764014067908,-0.16139346791302994,0.108,0.9999999999824752,1661.023786729011,1.6441814209664003,331,2026-10-08 00:47:16.242244,25.0,0.13913575740829415,0.6209367075732509,0.343728562713713
0237,cdot_cos,R,Q-R,332,66,60214,0.06311061870008335,0.14508490198021784,0.06617577026263764,0.8394840626952282,877.0,14.023092572687702,0.6834347587709108,12.452834435915431,-0.42309920981218585,0.056,0.9999999999823967,-289.86934180841126,1.6491485958357752,332,2026-10-08 00:47:16.298244,25.0,0.5387279186903899,1.192176758830892,1.7321365011203784
0237,cdot_cos,S,R-S,333,66,60260,-0.00027806588119435905,-0.0037842277348189074,-0.06338868458127771,0.17012846062749468,877.0,14.05961672561402,0.6836175588823312,12.47491040896463,-0.16002515158849118,0.046,0.9999999999821496,1439.135108723134,1.6541157350598443,333,2026-10-08 00:47:16.344243,25.0,0.19321447483799228,0.6484924553127035,0.7940033244851896
0237,cdot_cos,T,S-T,334,66,60510,-0.15113838407800648,-0.014080220792592676,-0.15086031819681212,0.02249945077266041,877.0,14.08275387857647,0.6836417299102963,12.494069201615112,-0.10158338467871893,0.25,0.9999999999818666,2417.8436678120866,1.6590836326311615,334,2026-10-08 00:47:16.594244,25.0,0.5625313994479091,0.2687484592345797,0.09254861184980001
0237,cdot_cos,P,T-P,335,67,60927,0.04062580361769207,0.00275092064707938,0.19176418769569856,0.9917895621165027,901.0,14.19399095523131,0.6847062165740989,12.532242910427172,-0.4898252599973268,0.417,0.9999999999818294,-364.72216000498804,1.6640521587927106,335,2026-10-08 00:47:17.011244,25.0,0.45266044083544377,0.1760725998593215,0.2667555795080092
0237,cdot_cos,Q,P-Q,336,67,61059,-0.026150871776046723,-0.022703880177452816,-0.0667766753937388,0.15850193871791468,901.0,14.229598426859145,0.6848761573588716,12.554050311136402,-0.1575639553049813,0.132,0.9999999999815492,1955.1592934956827,1.6690196187213882,336,2026-10-08 00:47:17.143244,25.0,0.12139090761836419,0.5153937124376647,0.2697535729381385
0237,cdot_cos,R,Q-R,337,67,61102,0.04975209225300128,0.11946779405206379,0.075902964029048,0.8696167152702977,901.0,14.330054895314854,0.6858076520237767,12.58981825683177,-0.4459347031343568,0.043,0.9999999999814754,-309.5785286744172,1.673986744687906,337,2026-10-08 00:47:17.186244,25.0,0.5237892559129887,2.0360342305863646,2.336196940830447
0237,cdot_cos,S,R-S,338,67,61159,0.06344035739547797,-0.11950986232824982,0.013688265142476695,0.5847264396166477,901.0,14.404697370689572,0.6864331452085014,12.619983142916666,-0.3330155972299238,0.057,0.9999999999813335,180.52811551276955,1.6789539258490795,338,2026-10-08 00:47:17.243244,25.0,0.712425073695706,0.8719764965423126,1.3095171118371602
0237,cdot_cos,T,S-T,339,67,61387,-0.06588410034545447,-0.005613806907633226,-0.12932445774093243,0.0379385184976847,901.0,14.429460215920678,0.6864737054039427,12.639384800318865,-0.11085361672582897,0.228,0.999999999981045,5477.339990277677,1.6839217617800049,339,2026-10-08 00:47:17.471244,25.0,0.13478124392823085,0.29033085333031816,0.10860897031186623
