record_id,input,event,transition,event_index,k,peak,value_cos,value_sin,value_return,x_input,rr,knowledge,decision,decision_norm,entropy,delta_t,cosine_similarity,delta_h_over_delta_d,frobenius_norm,matrix_size,timestamp,scale,P,zdot,zdot_back
60,cdot_cos,Q,P-Q,1,0,1359,-0.0200885345097076,-0.0197443219855053,-0.0602272687805887,0.4252797180030125,760.0,0.0021124245492072,0.5005281059409196,0.5005281059409196,,,1.0,,0.0049671415301123,1,2026-10-07 19:01:17.443244,5.0,,,
60,cdot_cos,R,Q-R,2,0,1384,0.1649836555568972,0.2672717797786798,0.1850721900666048,0.7161331758516247,760.0,0.0080179677792898,0.5014173860503264,0.7091112677620376,-1.0788651883400978e-05,,1.0,,0.0099342830602246,2,2026-10-07 19:01:17.468243,5.0,,,
60,cdot_cos,S,R-S,3,0,1414,-0.0025532614823576,-0.0075314778415955,-0.1675369170392548,0.3020226610926305,760.0,0.0124183690103458,0.5017924294943973,0.8691299827377197,-1.6217141251610876e-05,0.03,1.0000000000000002,-0.0144742947891218,0.0149014245945009,3,2026-10-07 19:01:17.498244,5.0,0.715525708621877,0.1354312846500834,0.14668004103519997
60,cdot_cos,T,S-T,4,0,1645,-0.3036240584854894,0.0440950063903956,-0.3010707970031318,0.181628353261382,760.0,0.0161438448582948,0.5020179696500083,1.0040359393008154,-1.9188944941855903e-05,0.231,1.0000000000000002,-0.0131763839667203,0.0198685661773236,4,2026-10-07 19:01:17.729243,5.0,0.8565259925594946,0.032449803693666,0.0161276010733723
60,cdot_cos,P,T-P,5,1,2025,0.0322105246846116,-4.999131971280393e-05,0.3358345831701011,0.8427949804771956,837.0,0.0274101783168196,0.5030645127204886,1.1248864475230689,-8.848692770634955e-05,0.38,1.0,-0.0662160829488783,0.0248357078768354,5,2026-10-07 19:01:18.109244,5.0,0.4569671686802919,0.0251917053440933,0.02964824594348631
60,cdot_cos,Q,P-Q,6,1,2126,-0.0220552810058266,-0.0202190523473022,-0.0542658056904382,0.4325808496259143,837.0,0.0352895409198057,0.5036016613738342,1.2335671040278682,-8.908789548389766e-05,0.101,1.0,-0.0011188109172478,0.0298028494613373,6,2026-10-07 19:01:18.210243,5.0,0.9932769168600416,0.0997498337284063,0.07801349111867424
60,cdot_cos,R,Q-R,7,1,2155,0.1653653242364213,0.239310456551633,0.1874206052422479,0.7185141109585786,837.0,0.0475596447299577,0.5044938429822391,1.3347652465581583,-0.000183309912413,0.029,1.0000000000000002,-0.105608562249605,0.034769990992603,7,2026-10-07 19:01:18.239244,5.0,0.5980960385131007,0.3408043171336421,0.4231070279362758
60,cdot_cos,S,R-S,8,1,2178,-0.0042276004589209,-0.0093426944880097,-0.1695929246953423,0.2998599984259664,837.0,0.0550561913135569,0.5048661721053064,1.4279771756204054,-0.0001387136010034,0.023,1.0,0.1197765864841509,0.0397371325330678,8,2026-10-07 19:01:18.262244,5.0,0.7250612118642876,0.3150622939600246,0.3259368079825741
60,cdot_cos,T,S-T,9,1,2424,-0.2289023822239671,0.100576233850076,-0.2246747817650461,0.2453859945326034,837.0,0.0620525102521188,0.5051708581391943,1.5155125744985871,-0.0001477395821168,0.246,1.0,-0.0296238754308591,0.0447042746046527,9,2026-10-07 19:01:18.508243,5.0,0.9407349397337016,0.0462351718248449,0.02844032088846302
60,cdot_cos,P,T-P,10,2,2862,0.0350019479148356,-0.0019665638557589,0.2639043301388028,0.7891021106542584,839.0,0.0778038958513807,0.5061506276926944,1.6005888228945568,-0.000397209801393,0.438,1.0,-0.2546213223149931,0.0496714173828708,10,2026-10-07 19:01:18.946244,5.0,0.5336278705926778,0.0304757592578387,0.03596206757822351
60,cdot_cos,Q,P-Q,11,2,2954,-0.0182028254684276,-0.015044471976333,-0.0532047733832633,0.433883489096385,839.0,0.0887492753619855,0.5066893289876553,1.680498390196701,-0.0003286930656507,0.092,0.9999999999999998,0.127188734059448,0.0546385590919419,11,2026-10-07 19:01:19.038244,5.0,0.8118399802998298,0.1490069449019001,0.1189715164196174
60,cdot_cos,R,Q-R,12,2,2984,0.1786449231430131,0.2267242983514844,0.1968477486114407,0.7279484654876871,839.0,0.1052211737133303,0.5075931001090828,1.7583540786911875,-0.0005760545455995,0.03,1.0,-0.2736992520386395,0.0596057005846489,12,2026-10-07 19:01:19.068243,5.0,0.6508953839585494,0.4315562618649382,0.54906327837816
60,cdot_cos,S,R-S,13,2,3011,-0.0041733109494558,-0.0083371182312912,-0.182818234092469,0.2861633872943715,839.0,0.1146426510738818,0.5079483677743741,1.8314338860952144,-0.0003734629959284,0.027,0.9999999999999998,0.5702504603254078,0.0645728421068706,13,2026-10-07 19:01:19.095244,5.0,0.58131207508534,0.335434871255545,0.348943605946352
60,cdot_cos,T,S-T,14,2,3242,-0.2404229763685823,0.1182952205229704,-0.2362496654191264,0.2348278179426479,839.0,0.1233346567611297,0.5082398970996567,1.9016595660689068,-0.000372925548927,0.231,0.9999999999999998,0.0018435435300402,0.0695399850061553,14,2026-10-07 19:01:19.326244,5.0,0.998559873641706,0.0612793687726942,0.0376277302478264
60,cdot_cos,P,T-P,15,3,3701,0.0304063572918593,-8.06606120970873e-06,0.2708293336604417,0.7948067309148004,800.0,0.1429537194468665,0.5092265750540154,1.9722260460615395,-0.0009418182584296,0.459,0.9999999999999996,-0.5765738526836321,0.0745071298643992,15,2026-10-07 19:01:19.785243,5.0,0.5466007619359214,0.0359079945792758,0.04274305596021088
60,cdot_cos,Q,P-Q,16,3,3799,-0.0213409591628043,-0.0202885195326543,-0.0517473164546637,0.4356743095818285,800.0,0.1562981957849049,0.5097673938082963,2.0390695780537333,-0.0007198752869271,0.098,0.9999999999999994,0.41038327488755,0.0794742718723052,16,2026-10-07 19:01:19.883244,5.0,0.7346893443705467,0.1671130871844407,0.13616812589835098
60,cdot_cos,R,Q-R,17,3,3823,0.1605212678955413,0.2464466523402735,0.1818622270583457,0.7128591790452002,800.0,0.1757078845350169,0.5106522425833059,2.105473137263241,-0.0011615876814521,0.024,0.9999999999999996,-0.4991953506633434,0.0844414132271628,17,2026-10-07 19:01:19.907244,5.0,0.6836794713846258,0.6447670305159784,0.808737031254667
60,cdot_cos,S,R-S,18,3,3853,-0.0034120888977796,-0.0086992702430026,-0.163933356793321,0.3058343969848139,800.0,0.1872470132496719,0.5110318446759389,2.1681244997978504,-0.0007549162295586,0.03,0.9999999999999992,1.0713098262254437,0.0894085547246867,18,2026-10-07 19:01:19.937243,5.0,0.5835078025375636,0.3670118509842368,0.38463762382183375
60,cdot_cos,T,S-T,19,3,4101,-0.2262126990888558,0.0613513395340661,-0.2228006101910762,0.2471253495807645,800.0,0.1977285955940711,0.511338567741135,2.2288731459704656,-0.0007273127861512,0.248,0.9999999999999996,0.0899946777388849,0.0943756991315926,19,2026-10-07 19:01:20.185244,5.0,0.9627585319956404,0.0669983972406561,0.04226444493709352
60,cdot_cos,P,T-P,20,4,4501,0.0422691375375411,0.0019038228705226,0.268481836626397,0.7928858515507966,858.0,0.2204782182810373,0.5123226102567765,2.291176370628344,-0.001714691478786,0.4,0.9999999999999992,-1.0033902772900407,0.0993428460619998,20,2026-10-07 19:01:20.585243,5.0,0.5622354276976825,0.0474146348785455,0.05687405671741551
60,cdot_cos,Q,P-Q,21,4,4606,-0.0159105001917233,-0.0149848778226399,-0.0581796377292644,0.4277839898500795,858.0,0.2356603034969075,0.5128534894084589,2.350189943076069,-0.001248031737534,0.105,0.9999999999999986,0.879031960048037,0.104309988620163,21,2026-10-07 19:01:20.690243,5.0,0.6880343150578478,0.1778920778512992,0.14459128777019234
60,cdot_cos,R,Q-R,22,4,4635,0.166849147573028,0.2405896560072259,0.1827596477647513,0.7137767706684345,858.0,0.2578355546298101,0.513739219928802,2.4096505417542597,-0.0019720075190427,0.029,0.9999999999999982,-0.8173770293341857,0.109277129946846,22,2026-10-07 19:01:20.719244,5.0,0.6927221636514465,0.6060695764860798,0.7646638321690555
60,cdot_cos,S,R-S,23,4,4657,-0.0011918923008793,-0.0025906784537137,-0.1680410398739073,0.301491568398639,858.0,0.2708123389331002,0.5141133172973444,2.4656008619126903,-0.0012361523106302,0.022,0.9999999999999986,1.9670151952139543,0.114244271225163,23,2026-10-07 19:01:20.741244,5.0,0.5514088364944072,0.5293309073087643,0.5898538319677309
60,cdot_cos,T,S-T,24,4,4900,-0.2984452624461783,0.1395409709300959,-0.2972533701452989,0.1844827139830454,858.0,0.2811261145513958,0.5143422197343515,2.519751991373383,-0.0010257355317171,0.243,0.9999999999999978,0.9192421962139884,0.1192114173607155,24,2026-10-07 19:01:20.984244,5.0,0.8145353448276378,0.0763084583022377,0.04244352106294488
60,cdot_cos,P,T-P,25,5,5359,0.0400570426791642,-0.0024283590072492,0.3385023051253426,0.8445541644560788,880.0,0.3078982496679877,0.5153900472578332,2.5769502473338357,-0.0028411173183631,0.459,0.9999999999999978,-1.7325196618369405,0.1241785689748777,25,2026-10-07 19:01:21.443244,5.0,0.5278371055493507,0.0476900727546174,0.05832709175728078
60,cdot_cos,Q,P-Q,26,5,5450,-0.0157045361134488,-0.0120039329605866,-0.0557615787926131,0.4307460609355331,880.0,0.3249056013401346,0.5159244168538762,2.630708685736176,-0.0019388740938803,0.091,0.9999999999999968,1.6884254477871692,0.1291457117314487,26,2026-10-07 19:01:21.534244,5.0,0.6279191292485482,0.2311481645711839,0.18689397441919667
60,cdot_cos,R,Q-R,27,5,5480,0.1844427841324574,0.2114924331229917,0.2001473202459062,0.7312033785705588,880.0,0.3499672156199432,0.5168314400383589,2.685534956987968,-0.0030466538357172,0.03,0.9999999999999964,-1.2213356403548958,0.1341128529493956,27,2026-10-07 19:01:21.564243,5.0,0.6951654631291251,0.6477673191185039,0.8353871426602877
60,cdot_cos,S,R-S,28,5,5507,-0.0035802395943288,-0.0061899098472131,-0.1880230237267862,0.2808770897425204,880.0,0.3637716404872448,0.517179825621114,2.7366584212672103,-0.0017747173088251,0.027,0.9999999999999956,3.6509447860427215,0.1390799941971114,28,2026-10-07 19:01:21.591244,5.0,0.4883621185794935,0.4785554062349478,0.5112749950852445
60,cdot_cos,T,S-T,29,5,5738,-0.2694060881564664,0.1840029803141947,-0.2658258485621376,0.2093034351387723,880.0,0.3758092075566304,0.5174394240614077,2.7864965943496225,-0.0016035417523087,0.231,0.999999999999996,0.6593859205114655,0.144047142171564,29,2026-10-07 19:01:21.822243,5.0,0.8987517480026694,0.0886183034937389,0.052110679954050124
60,cdot_cos,P,T-P,30,6,6239,0.0424721128830239,0.0011673043035049,0.3118782010394904,0.8262659488233396,837.0,0.4047132967013522,0.5184641460376989,2.839745102692132,-0.0040629045355718,0.501,0.9999999999999952,-2.4000293154290797,0.1490143000352306,30,2026-10-07 19:01:22.323244,5.0,0.5458989839097489,0.047266960640022,0.05769279270403555
60,cdot_cos,Q,P-Q,31,6,6340,-0.0175789600045395,-0.0160594623973289,-0.0600510728875635,0.4254950584160385,837.0,0.4231707021179325,0.5189917782525804,2.8896239598435325,-0.0027516783128231,0.101,0.9999999999999934,2.485114035433149,0.1539814436888449,31,2026-10-07 19:01:22.424243,5.0,0.6209413050885805,0.2242048019015161,0.18274658828297333
60,cdot_cos,R,Q-R,32,6,6362,0.1653485026962657,0.2362551370727757,0.1829274627008053,0.7139481624462342,837.0,0.4500026666854584,0.5198770089964635,2.940868501710407,-0.0042184277076431,0.022,0.9999999999999922,-1.6569119463542554,0.1589485843704756,32,2026-10-07 19:01:22.446244,5.0,0.7063103892449141,0.9641096590830202,1.2196347530693592
60,cdot_cos,S,R-S,33,6,6391,-0.0023969542986747,-0.0052897723653185,-0.1677454569949404,0.3018029001790608,837.0,0.4655915271175854,0.5202511799201072,2.9886155291856937,-0.0025697384985612,0.029,0.9999999999999916,4.40624619632909,0.1639157255017805,33,2026-10-07 19:01:22.475244,5.0,0.5264607008091144,0.4938587634500744,0.5375469114526545
60,cdot_cos,T,S-T,34,6,6637,-0.2685947818752177,0.1095119522620541,-0.2661978275765429,0.2089957972782689,837.0,0.4786464749655628,0.5205102766356315,3.0350704183467414,-0.0022192681046526,0.246,0.999999999999991,1.3526624341777709,0.1688828766333185,34,2026-10-07 19:01:22.721244,5.0,0.8539167171837085,0.0901418438592477,0.05306889369096502
60,cdot_cos,P,T-P,35,7,7076,0.044530462411188,-0.0030012194174782,0.3131252442864057,0.8271591973583895,843.0,0.5099413142963353,0.5215356146117166,3.085446347049551,-0.0055688574147595,0.439,0.99999999999999,-3.26681483396947,0.1738500376546511,35,2026-10-07 19:01:23.160243,5.0,0.5479967529956664,0.0582818581789474,0.07128664995620156
60,cdot_cos,Q,P-Q,36,7,7166,-0.016562966330523,-0.0131879827892966,-0.061093428741711,0.4242215415072948,843.0,0.5298179464466787,0.5220614053981563,3.132368486749659,-0.0037197506711879,0.09,0.9999999999999876,3.516810851883963,0.1788171815600926,36,2026-10-07 19:01:23.250243,5.0,0.6082890960098447,0.2746938923932543,0.220851468337149
60,cdot_cos,R,Q-R,37,7,7196,0.1892645931201301,0.2286684587778615,0.2058275594506531,0.7367487057053885,843.0,0.559386214927121,0.5229744333234492,3.1811293440623314,-0.0057956458796855,0.03,0.9999999999999868,-2.2736382436842746,0.1837843224313464,37,2026-10-07 19:01:23.280244,5.0,0.6989459546549158,0.7598929302601883,0.9856089493480787
60,cdot_cos,S,R-S,38,7,7224,-0.0014793127482151,-0.0028590691147673,-0.1907439058683452,0.2781374101463457,843.0,0.57541152226229,0.5233190800847612,3.225955522405509,-0.0032723798465509,0.028,0.9999999999999852,7.321310734296652,0.1887514633604945,38,2026-10-07 19:01:23.308243,5.0,0.4625133716100959,0.5063597121484215,0.5723324048274621
60,cdot_cos,T,S-T,39,7,7456,-0.3406255760064527,0.1039117182201846,-0.3391462632582376,0.1550236023955949,843.0,0.5877423588074326,0.5235111639462079,3.269326228493456,-0.0025807915925551,0.232,0.9999999999999836,3.600449557746519,0.1937186167709635,39,2026-10-07 19:01:23.540244,5.0,0.764926718204114,0.101633806037317,0.053150157522166654
60,cdot_cos,P,T-P,40,8,7919,0.0400582650585564,0.0008571109468316,0.3806838410650092,0.8702780229888599,875.0,0.6225696082636051,0.5245893616816649,3.317794504952644,-0.0075831460684093,0.463,0.999999999999983,-4.639552014764495,0.1986857855235806,40,2026-10-07 19:01:24.003244,5.0,0.5170232524899613,0.0606766181355744,0.07522084115803981
60,cdot_cos,Q,P-Q,41,8,8022,-0.0176236569128702,-0.0154764553359732,-0.0576819219714266,0.4283932654120839,875.0,0.6439289072009746,0.5251200196101468,3.362408811070789,-0.0048660734334702,0.103,0.9999999999999796,5.120196060600393,0.2036529310758182,41,2026-10-07 19:01:24.106244,5.0,0.5721405162117942,0.2536689921166049,0.20737183434339362
60,cdot_cos,R,Q-R,42,8,8050,0.1686159524519065,0.2249702444445981,0.1862396093647767,0.7173182799966367,875.0,0.6748254206396257,0.5260084461866504,3.40892443478471,-0.0073279286910954,0.028,0.9999999999999778,-2.771028380660989,0.208620071581211,42,2026-10-07 19:01:24.134243,5.0,0.7146551695698667,0.8673998328074924,1.1034469085232526
60,cdot_cos,S,R-S,43,8,8072,-0.0031887416065256,-0.0062946306819454,-0.1718046940584322,0.2975434110669525,875.0,0.6925032978381942,0.526376917277658,3.4516843659269627,-0.004346876357959,0.022,0.999999999999976,8.090328945439786,0.2135872118274022,43,2026-10-07 19:01:24.156243,5.0,0.5036912290667033,0.7506995290939517,0.8035398726622047
60,cdot_cos,T,S-T,44,8,8315,-0.2528651413120006,0.1392586778800706,-0.2496763997054749,0.2229803482864731,875.0,0.7078561999197596,0.5266530323338361,3.493421096359657,-0.0038661504675529,0.243,0.999999999999974,1.7410346869897315,0.2185543694882883,44,2026-10-07 19:01:24.399244,5.0,0.8830775461716606,0.1027622386051102,0.06318066700232662
60,cdot_cos,P,T-P,45,9,8794,0.0219414534750821,0.0011693993494819,0.2748065947870828,0.7980309597700871,839.0,0.7424457458002778,0.5276410939162869,3.5395241645190527,-0.0090190034337347,0.479,0.9999999999999728,-5.215113164708495,0.2235215471468313,45,2026-10-07 19:01:24.878243,5.0,0.5647721783275779,0.0603376798772292,0.0722119955751946
60,cdot_cos,Q,P-Q,46,9,8891,-0.0217983572809931,-0.0194978997566815,-0.0437398107560752,0.4455421204703601,839.0,0.7656596972421452,0.5281926367922454,3.582376888227448,-0.0062933571410297,0.097,0.999999999999968,4.941857490169366,0.2284886932230665,46,2026-10-07 19:01:24.975244,5.0,0.6484963278588503,0.2876715321154315,0.23931908702956126
60,cdot_cos,R,Q-R,47,9,8916,0.1612610535791565,0.2249698903271564,0.1830594108601496,0.714082879771155,839.0,0.7982540230306715,0.5290764659622986,3.627165643563099,-0.0091615334607193,0.025,0.9999999999999656,-3.2451704660491805,0.233455833148731,47,2026-10-07 19:01:25.000243,5.0,0.7312007190409118,1.0299276276419511,1.3037730315410512
60,cdot_cos,S,R-S,48,9,8946,-0.0045948478813284,-0.009998027537088,-0.1658559014604849,0.3037974361173496,839.0,0.8171560786242428,0.5294524248362198,3.668154136048787,-0.0054874029709978,0.03,0.9999999999999628,9.772692559165035,0.2384229737702461,48,2026-10-07 19:01:25.030244,5.0,0.5119351825534423,0.6249634835090242,0.6300685197857092
60,cdot_cos,T,S-T,49,9,9193,-0.1824358567663091,0.0698788958386286,-0.1778410088849807,0.2912739055962222,839.0,0.835751832041213,0.5298128540743305,3.7086901153447633,-0.0055233202113672,0.247,0.9999999999999604,-0.0996512950992109,0.2433901358389899,49,2026-10-07 19:01:25.277244,5.0,0.9935182626063466,0.1082519649874999,0.0752864510808509
60,cdot_cos,P,T-P,50,10,9633,0.0389116126746361,-0.0015170006263609,0.2213474694409452,0.7515203518745951,878.0,0.8706325493280678,0.5307426586735825,3.752917484333176,-0.0106930571355348,0.44,0.999999999999958,-5.560025115305686,0.2483573184286596,50,2026-10-07 19:01:25.717243,5.0,0.6166419764398735,0.0668570549524246,0.0792743574701246
60,cdot_cos,Q,P-Q,51,10,9728,-0.0166084195721148,-0.0134374220181218,-0.0555200322467509,0.4310422264365211,878.0,0.8945860403993466,0.5312758617818,3.794068730325261,-0.0075953756093469,0.095,0.999999999999952,5.8095713968053015,0.2533244654313327,51,2026-10-07 19:01:25.812243,5.0,0.6650867254723277,0.308910204064787,0.2521420112766196
60,cdot_cos,R,Q-R,52,10,9756,0.1784802105771607,0.2203953609563684,0.1950886301492755,0.7262031027112927,878.0,0.9293254881003772,0.5321740194345141,3.8375616229169855,-0.0113791343283093,0.028,0.9999999999999488,-4.212800177706142,0.2582916053577971,52,2026-10-07 19:01:25.840243,5.0,0.7171162818176327,0.9646145939255996,1.2406945607510909
60,cdot_cos,S,R-S,53,10,9782,-0.0033196310031251,-0.0061542508280235,-0.1817998415802858,0.2872046739139595,878.0,0.9486044576591802,0.5325291728831747,3.8768710923371152,-0.0065013816974968,0.026,0.9999999999999452,13.734211646286212,0.2632587452976742,53,2026-10-07 19:01:25.866244,5.0,0.4722418649448247,0.6890556620350277,0.7414988291847323
60,cdot_cos,T,S-T,54,10,10032,-0.2689836487494654,0.164532001154721,-0.2656640177463403,0.2094373780019653,878.0,0.9651563825261988,0.5327881395750652,3.915177444049558,-0.0056878628962418,0.25,0.9999999999999416,3.141403225705048,0.2682259121795847,54,2026-10-07 19:01:26.116243,5.0,0.8667305396435472,0.1114632968405564,0.06620769946807448
60,cdot_cos,P,T-P,55,11,10511,0.0371463245694755,-0.0025629446373689,0.3061299733189409,0.8221013775554014,858.0,1.0043361060794584,0.5338044855481381,3.9588002358621783,-0.013851938228476,0.479,0.9999999999999384,-8.032771859714757,0.2731931083438894,55,2026-10-07 19:01:26.595244,5.0,0.5546702741938556,0.0671036059004181,0.08179482996505137
60,cdot_cos,Q,P-Q,56,11,10601,-0.0185049451966991,-0.0145075318481415,-0.0556512697661746,0.4308813071110439,858.0,1.029441636978799,0.5343370631671894,3.9986127029085687,-0.009164407931648,0.09,0.9999999999999298,8.801590846377735,0.2781602558047346,56,2026-10-07 19:01:26.685244,5.0,0.5995997215446243,0.3429553851847955,0.27895034332600716
60,cdot_cos,R,Q-R,57,11,10631,0.1831296775730962,0.2166014616545596,0.2016346227697954,0.732662472513765,858.0,1.0660680754127216,0.5352424677913454,4.040992285936388,-0.0137722820796967,0.03,0.9999999999999264,-5.089298226573575,0.2831273956189638,57,2026-10-07 19:01:26.715244,5.0,0.7156415008312289,0.9432978283137976,1.2208812811307517
60,cdot_cos,S,R-S,58,11,10658,-0.0039669496072568,-0.0071822205781336,-0.1870966271803531,0.2818136303598679,858.0,1.0860395066776272,0.535590663997897,4.078937247044517,-0.0077117270256955,0.027,0.9999999999999208,17.405574615596702,0.2880945352902032,58,2026-10-07 19:01:26.742244,5.0,0.4557147689595817,0.6879060985963651,0.7396826394409454
60,cdot_cos,T,S-T,59,11,10891,-0.2740162220691505,0.1546644437953939,-0.2700492724618936,0.2058300974969552,858.0,1.1032150047369254,0.5358449564758918,4.115903482259287,-0.0067460934898985,0.233,0.9999999999999164,3.797334248387688,0.2930617046793706,59,2026-10-07 19:01:26.975244,5.0,0.8666330255338481,0.1244872701676715,0.07371458394548579
60,cdot_cos,P,T-P,60,12,11369,0.0283993842059939,-0.0027714201228371,0.3024156062751444,0.8193689668245971,820.0,1.144050574575762,0.5368570585498637,4.158477193562401,-0.0164592968029384,0.478,0.9999999999999116,-9.597058995168265,0.298028911300755,60,2026-10-07 19:01:27.453243,5.0,0.5542525837578822,0.0701318953920698,0.08543006242434464
60,cdot_cos,Q,P-Q,61,12,11460,-0.0272504798104703,-0.0216177423578376,-0.0556498640164642,0.4308830307199202,820.0,1.1702610967317442,0.5373891732041299,4.197143972979166,-0.010877942603716,0.091,0.9999999999999022,10.48900674783784,0.3029960600573724,61,2026-10-07 19:01:27.544243,5.0,0.5986434270486122,0.3543912262137849,0.28802771599980304
60,cdot_cos,R,Q-R,62,12,11490,0.1764766546526381,0.2286026312173677,0.2037271344631085,0.7347067597911021,820.0,1.208549777746671,0.5382962948682154,4.238549630681778,-0.016329000784003,0.03,0.9999999999998976,-6.009180902743192,0.3079631995388263,62,2026-10-07 19:01:27.574244,5.0,0.71617780903726,0.9899406202277804,1.276289367164226
60,cdot_cos,S,R-S,63,12,11518,-0.0034140044035862,-0.0073674580879657,-0.1798906590562244,0.2891628583182127,820.0,1.229657533945411,0.5386532468778488,4.275427969999807,-0.0092255865802781,0.028,0.9999999999998904,19.900193897271667,0.3129303389934465,63,2026-10-07 19:01:27.602243,5.0,0.4630274957126213,0.700680684180971,0.7538484356692877
60,cdot_cos,T,S-T,64,12,11751,-0.266438549597206,0.1101833528637716,-0.2630245451936197,0.2116308892671374,820.0,1.247787896060805,0.538914465813725,4.311316095310583,-0.0080511228650228,0.233,0.9999999999998844,4.4960895017641,0.3178975133810838,64,2026-10-07 19:01:27.835244,5.0,0.8642650676045864,0.1311968886483557,0.07781271294160555
60,cdot_cos,P,T-P,65,13,12189,0.0527546498924976,-0.0002363993881823,0.3191931994897036,0.8314538222516212,818.0,1.2907952840555448,0.539940532525249,4.353140142858285,-0.0195631554560752,0.438,0.99999999999988,-11.219575161886237,0.3228647246037855,65,2026-10-07 19:01:28.273243,5.0,0.55518449734306,0.0795172057099911,0.09819038354963398
60,cdot_cos,Q,P-Q,66,13,12290,-0.0156764135349411,-0.014986188473079,-0.0684310634274387,0.4152860199510655,818.0,1.3174449682627576,0.5404528955908754,4.390660545155389,-0.012452945294067,0.101,0.999999999999868,13.877288663099275,0.3278318765672862,66,2026-10-07 19:01:28.374244,5.0,0.5649793232727627,0.3254146426077373,0.26385825947735453
60,cdot_cos,R,Q-R,67,13,12319,0.1699892406879289,0.2574027452981447,0.1856656542228701,0.7167360049015741,818.0,1.3565290418623075,0.5413369737021124,4.431034576605976,-0.0187181517643271,0.029,0.9999999999998616,-7.086711446224663,0.3327990155713667,67,2026-10-07 19:01:28.403244,5.0,0.7155435042877257,1.0568354061190743,1.3477266758465485
60,cdot_cos,S,R-S,68,13,12341,-0.0032396466908975,-0.0076342588125728,-0.1732288873788265,0.296057197304192,818.0,1.378741421817664,0.54170207813299,4.466990251271822,-0.0108804860842765,0.022,0.9999999999998536,21.46691471591338,0.3377661535392315,68,2026-10-07 19:01:28.425244,5.0,0.4865860578463117,0.8914362573637596,1.0096536343343823
60,cdot_cos,T,S-T,69,13,12588,-0.3239663500318115,0.1062162184186042,-0.3207267033409139,0.1674743932607179,818.0,1.3957522371863131,0.5419085915376024,4.50143131813691,-0.008451457082167,0.247,0.9999999999998448,11.762088793549523,0.3427333360867584,69,2026-10-07 19:01:28.672243,5.0,0.7502044618312188,0.1273345750873849,0.06886969784878233
60,cdot_cos,P,T-P,70,14,13007,0.0420893275085962,-0.0032099550503278,0.3660556775404077,0.8617948873839705,740.0,1.441644701910832,0.5429710453620172,4.542822213584974,-0.0233091480726087,0.419,0.99999999999984,-13.984316917137406,0.3477005546289192,70,2026-10-07 19:01:29.091244,5.0,0.5286551885721087,0.087675128767442,0.1095285554284461
60,cdot_cos,Q,P-Q,71,14,13098,-0.027587427704772,-0.0253637462411125,-0.0696767552133682,0.4137744059662042,740.0,1.4692239950934296,0.5434810240622456,4.579453102997075,-0.0143679068394311,0.091,0.999999999999826,17.5325777903532,0.3526677062320579,71,2026-10-07 19:01:29.182244,5.0,0.5367051203962729,0.3772086896580267,0.3030691558527204
60,cdot_cos,R,Q-R,72,14,13128,0.1712031622499439,0.2741181139680002,0.198790589954716,0.7298679965140473,740.0,1.510296683428593,0.5443803666201025,4.619221194259339,-0.0218952018103792,0.03,0.9999999999998188,-8.369775126494542,0.3576348451666741,72,2026-10-07 19:01:29.212243,5.0,0.7090796472031735,1.0682198367069184,1.3690896111721105
60,cdot_cos,S,R-S,73,14,13156,-0.0019340817057181,-0.0059817079454035,-0.1731372439556621,0.2961527020345941,740.0,1.5333171852958447,0.5447452034620298,4.654305669347133,-0.0125342058838791,0.028,0.9999999999998096,25.65803353917984,0.3626019840042859,73,2026-10-07 19:01:29.240243,5.0,0.4738634972071149,0.7456017664508001,0.8221607809732785
60,cdot_cos,T,S-T,74,14,13387,-0.2874583205970442,0.037736270099602,-0.285524238891326,0.1934696003046453,740.0,1.5520503823498375,0.5449835168861076,4.6881260899040536,-0.0103388883744095,0.231,0.9999999999997992,9.2118919358619,0.3675691692442516,74,2026-10-07 19:01:29.471244,5.0,0.8086929852458987,0.1411708044269884,0.08109609114282593
60,cdot_cos,P,T-P,75,15,13747,0.0408122519563561,0.0016331159132199,0.3282705725534003,0.837718937630979,798.0,1.5985380969411134,0.5460151694327441,4.72863073388009,-0.0261890931605994,0.36,0.9999999999997932,-15.363898279383124,0.3725363857178853,75,2026-10-07 19:01:29.831244,5.0,0.5459534316009329,0.1049751932723562,0.1291325405313219
60,cdot_cos,Q,P-Q,76,15,13851,-0.0183418102782067,-0.0188426729662019,-0.0591540622345629,0.4265917899068033,798.0,1.6276325215059342,0.5465403668381846,4.764629188378562,-0.0167804079412823,0.104,0.999999999999779,17.914569116016196,0.377503542280272,76,2026-10-07 19:01:29.935244,5.0,0.5708124023496117,0.3405879766287737,0.27975408235404625
60,cdot_cos,R,Q-R,77,15,13880,0.1636027319583413,0.2729783716323067,0.1819445422365481,0.7129434175323877,798.0,1.6693803960798983,0.54741787355476,4.8035730977740165,-0.0245989133841115,0.029,0.999999999999771,-8.909909514245385,0.3824706808397338,77,2026-10-07 19:01:29.964243,5.0,0.7277196042960346,1.1369099935275573,1.4395818818608315
60,cdot_cos,S,R-S,78,15,13902,-0.0009489647588832,-0.0026042878023063,-0.1645516967172246,0.3051784243296059,798.0,1.6935733011305325,0.547793404243909,4.837981104785358,-0.0145380827140195,0.022,0.99999999999976,26.790967984246027,0.3874378179695685,78,2026-10-07 19:01:29.986243,5.0,0.5005574807874146,0.9507184415833526,1.0996775023015548
60,cdot_cos,T,S-T,79,15,14146,-0.341032790094512,0.0907176973487603,-0.3400838253356287,0.154410532657968,798.0,1.7112120075095658,0.5479833900720963,4.87058366343335,-0.0107305699393874,0.244,0.999999999999748,20.04103574966909,0.3924050129335779,79,2026-10-07 19:01:30.230243,5.0,0.7012936564759703,0.1374056088657468,0.07228978024193979
60,cdot_cos,P,T-P,80,16,14545,0.037837822330696,-0.0030029539850058,0.378870612425208,0.8692510676868926,782.0,1.760627238257017,0.5490526490728468,4.910876998274893,-0.0306411314628335,0.399,0.9999999999997418,-18.62089681683408,0.3973722503368021,80,2026-10-07 19:01:30.629244,5.0,0.5221509751431164,0.0994024410886298,0.12384769610890008
60,cdot_cos,Q,P-Q,81,16,14635,-0.0237451373837065,-0.0201077190396714,-0.0615829597144025,0.4236237943112523,782.0,1.7905351554982925,0.5495735819019153,4.946163147373072,-0.0189649166244349,0.09,0.9999999999997242,22.414050693017508,0.4023394051785007,81,2026-10-07 19:01:30.719244,5.0,0.5402763765455469,0.4113134775291775,0.33231019156972785
60,cdot_cos,R,Q-R,82,16,14665,0.1814220594828217,0.2546013181997952,0.2051671968665283,0.7361078185239734,782.0,1.834663664212269,0.5504785191645492,4.984795930152832,-0.0285552809146931,0.03,0.9999999999997156,-10.597822286978309,0.4073065437287118,82,2026-10-07 19:01:30.749243,5.0,0.7147284752733404,1.135358639092543,1.4709502904658815
60,cdot_cos,S,R-S,83,16,14692,-0.0037767804748564,-0.008943070781101,-0.1851988399576782,0.2837381107352607,782.0,1.858656673843845,0.5508272449538516,5.01827596028329,-0.0158152134756014,0.027,0.999999999999702,36.53319550749438,0.4122736817968842,83,2026-10-07 19:01:30.776243,5.0,0.4468386425182165,0.8465875801960635,0.8886299863546716
60,cdot_cos,T,S-T,84,16,14925,-0.2432409765092701,0.0687129492415828,-0.2394641960344137,0.2319521420417377,782.0,1.8803793935428563,0.5511122865633314,5.051028472947732,-0.0144942650530666,0.233,0.9999999999996894,4.634230156591287,0.4172408807350138,84,2026-10-07 19:01:31.009243,5.0,0.9128936067107885,0.1479113183454121,0.09323055664811714
60,cdot_cos,P,T-P,85,17,15327,0.0182402212177541,0.0010572898069244,0.2614811977270243,0.7870787601771899,777.0,1.927583348192807,0.55207926148738,5.089920292184557,-0.0320640374458087,0.402,0.9999999999996806,-18.169832490775764,0.4222081318000242,85,2026-10-07 19:01:31.411244,5.0,0.5781286666598063,0.096981294206054,0.11742277276107152
60,cdot_cos,Q,P-Q,86,17,15432,-0.0442419883499565,-0.03840038329742,-0.0624822095677107,0.4225263387991306,777.0,1.958352354084524,0.5525981992790964,5.124585994093502,-0.02132361327979,0.105,0.9999999999996604,20.6969396668803,0.4271752930998085,86,2026-10-07 19:01:31.516243,5.0,0.6042985733915609,0.3597374634780551,0.29303815134968514
60,cdot_cos,R,Q-R,87,17,15461,0.1460447418007563,0.2626679402494002,0.1902867301507129,0.7214034053525139,777.0,2.003128215523198,0.5534839461054005,5.162555704138916,-0.031621911056616,0.029,0.99999999999965,-11.62668323610747,0.4321424309828081,87,2026-10-07 19:01:31.545243,5.0,0.7220436507177415,1.228278282996144,1.5439952220232476
60,cdot_cos,S,R-S,88,17,15486,-0.0032467232531515,-0.0112884927975225,-0.1492914650539079,0.3215937214158902,777.0,2.0295924944983,0.5538786932594957,5.195843845574602,-0.019022621486033,0.025,0.9999999999996344,31.91736644552464,0.4371095679728068,88,2026-10-07 19:01:31.570244,5.0,0.5156474784251193,1.0426127895722104,1.058571159004078
60,cdot_cos,T,S-T,89,17,15724,-0.1704917441960419,0.0177405948409061,-0.1672450209428904,0.302330415705842,777.0,2.055258855001809,0.5542497333021292,5.228782670022812,-0.0186845301714939,0.238,0.9999999999996204,0.9111989965810632,0.4420767758274096,89,2026-10-07 19:01:31.808243,5.0,0.9820680079031358,0.1495779471059708,0.10784185085507988
60,cdot_cos,P,T-P,90,18,16104,0.0203026805344483,0.0015336885030201,0.1907944247304903,0.7219133021371137,838.0,2.1007915973207423,0.5551354681722646,5.266478686626258,-0.0337113310632013,0.38,0.9999999999996092,-16.965348659482714,0.4470440330948733,90,2026-10-07 19:01:32.188244,5.0,0.6403443115500349,0.1030444824613358,0.11982300610245557
60,cdot_cos,Q,P-Q,91,18,16211,-0.0229177067048829,-0.0225203905905318,-0.0432203872393313,0.4461837880895232,838.0,2.1335726616724244,0.5556827283353314,5.300876726202494,-0.0247215607098083,0.107,0.9999999999995868,16.42686780454574,0.4520111976297105,91,2026-10-07 19:01:32.295244,5.0,0.6951407815187559,0.3658159406855117,0.3063650873988986
60,cdot_cos,R,Q-R,92,18,16241,0.155872058748638,0.2456898848437227,0.178789765453521,0.7097043992036057,838.0,2.179076208627442,0.5565529270463057,5.338269520146283,-0.0349367205845912,0.03,0.9999999999995742,-11.738881873711492,0.4569783355415355,92,2026-10-07 19:01:32.325243,5.0,0.7464770935735031,1.2044056300347736,1.5167848985005783
60,cdot_cos,S,R-S,93,18,16265,-0.0021921489360425,-0.005961822895076,-0.1580642076846806,0.312099740399404,838.0,2.205836999474511,0.5569354962840045,5.370892802501956,-0.0208870126099677,0.024,0.999999999999556,36.72461502428161,0.4619454716965509,93,2026-10-07 19:01:32.349244,5.0,0.5103529050033262,1.0077162853580717,1.1150329519612108
60,cdot_cos,T,S-T,94,18,16502,-0.2755713905646867,0.1067802362549504,-0.2733792416286441,0.2031217735787298,838.0,2.227446590324629,0.5571844449979513,5.402105003510457,-0.0170505518418724,0.237,0.9999999999995374,15.410647065707453,0.4669126867965699,94,2026-10-07 19:01:32.586244,5.0,0.7985121629221636,0.1557486622261268,0.09117970822834759
60,cdot_cos,P,T-P,95,19,16942,0.0479094394623884,-0.0022877810502696,0.3234808300270752,0.8344368191903943,838.0,2.279661865369695,0.5582068390192509,5.440728729036024,-0.0418653030997551,0.44,0.9999999999995278,-24.271221017449008,0.4718799799028688,95,2026-10-07 19:01:33.026243,5.0,0.552816957365454,0.096306117783867,0.11867107964787667
60,cdot_cos,Q,P-Q,96,19,17038,-0.0145189525568485,-0.0126079802593378,-0.0624283920192369,0.4225919969932321,838.0,2.312195973974432,0.5587244324146516,5.474360700794314,-0.0265692571944236,0.096,0.9999999999994992,29.55224321108276,0.476847142670022,96,2026-10-07 19:01:33.122243,5.0,0.5623084775056756,0.4164631304754418,0.3388969646326799
60,cdot_cos,R,Q-R,97,19,17068,0.1782909181318732,0.2423547647753944,0.1928098706887217,0.7239318201916654,838.0,2.35962278642098,0.5596108116631181,5.511528975169392,-0.0393892021985098,0.03,0.9999999999994846,-14.463272945825558,0.4818142800762484,97,2026-10-07 19:01:33.152243,5.0,0.7221889206389015,1.2278263825252766,1.5808937482182521
60,cdot_cos,S,R-S,98,19,17091,-0.0037377105776861,-0.0078324228280906,-0.1820286287095593,0.2869705465434254,838.0,2.385865556925949,0.5599620724178246,5.543343371419531,-0.0221352198779132,0.023,0.9999999999994628,49.12015387262424,0.4867814150999277,98,2026-10-07 19:01:33.175244,5.0,0.4586440065990497,1.000042974453673,1.1409900219551756
60,cdot_cos,T,S-T,99,19,17342,-0.344255719126156,0.0727641231860022,-0.3405180085484698,0.1541272932732122,838.0,2.4056247632458487,0.5601507041930196,5.573430807968576,-0.016826485978664,0.251,0.9999999999994392,28.14337029782412,0.4917486437324616,99,2026-10-07 19:01:33.426244,5.0,0.7294250432468052,0.1490784261476909,0.07872193752948173
60,cdot_cos,P,T-P,100,20,17780,0.0269907997064327,-0.0030369788548977,0.3712465188325887,0.864857221590872,780.0,2.4607029268520897,0.5612088532844592,5.612090308381955,-0.0476110418783827,0.438,0.9999999999994272,-29.092834033279207,0.4967159519650551,100,2026-10-07 19:01:33.864243,5.0,0.5238319364784613,0.1015479554594912,0.1257492319777191
60,cdot_cos,Q,P-Q,101,20,17870,-0.0271096653598251,-0.0228180528849471,-0.0541004650662578,0.4327837790566982,780.0,2.494580772228363,0.5617381541099434,5.645400545639513,-0.0298123634819612,0.09,0.9999999999993948,33.6267724127196,0.5016831142809137,101,2026-10-07 19:01:33.954243,5.0,0.5504476664073716,0.460616891093414,0.3764205041808152
60,cdot_cos,R,Q-R,102,20,17901,0.1737035144616531,0.2441994672735585,0.2008131798214782,0.7318572315104989,780.0,2.543613967248904,0.5626329058513679,5.68231580828098,-0.0438511399049709,0.031,0.9999999999993784,-15.69013590368551,0.5066502515770379,102,2026-10-07 19:01:33.985244,5.0,0.7260428716328363,1.2291698449103114,1.5817159684045534
60,cdot_cos,S,R-S,103,20,17928,-0.0031072111972662,-0.0077608876195696,-0.1768107256589194,0.2923384723382239,780.0,2.5707893026128024,0.562990198572434,5.713728479635679,-0.024666436495543,0.027,0.9999999999993524,53.69463825678778,0.5116173875709632,103,2026-10-07 19:01:34.012243,5.0,0.4594314630245562,0.9348481083691949,1.0064939023665984
60,cdot_cos,T,S-T,104,20,18160,-0.2629073990587406,0.0705034704400887,-0.2598001878614743,0.2143332052509703,780.0,2.5940957651008407,0.5632521126493397,5.744069032622474,-0.0213606855594163,0.232,0.9999999999993262,12.621509218525826,0.5165846166147223,104,2026-10-07 19:01:34.244244,5.0,0.8566218951888498,0.1657011742479139,0.1004588900346481
60,cdot_cos,P,T-P,105,21,18560,0.0247866346517338,0.0015435950723605,0.2876940337104744,0.8082176364787306,818.0,2.6476746474638344,0.5642394320059605,5.78173579239884,-0.0498112585047129,0.4,0.9999999999993112,-28.81597808704195,0.5215519246086504,105,2026-10-07 19:01:34.644243,5.0,0.5648655622107955,0.111150581358656,0.1339472059074842
60,cdot_cos,Q,P-Q,106,21,18661,-0.0193051073552353,-0.0184372649543534,-0.0440917420069692,0.4451074667138263,818.0,2.6830162301877656,0.5647829587546338,5.814798760727101,-0.0334042311549041,0.101,0.9999999999992768,30.186237181255013,0.5265190943863408,106,2026-10-07 19:01:34.745243,5.0,0.6119124010775301,0.4196894574004957,0.34991666063298194
60,cdot_cos,R,Q-R,107,21,18684,0.1660398225443808,0.252086721152677,0.1853449298996162,0.7164103156868419,818.0,2.7324519178587345,0.5656574496188328,5.851208505622702,-0.0474468055165572,0.023,0.9999999999992576,-16.0580000735806,0.5314862274716284,107,2026-10-07 19:01:34.768243,5.0,0.7438137656836578,1.690230328913602,2.149377724824737
60,cdot_cos,S,R-S,108,21,18714,-0.0017591048895401,-0.0042613068707986,-0.167798927433921,0.3017465672687459,818.0,2.7607668253177917,0.5660256565365069,5.882313523622945,-0.0275604767523001,0.03,0.9999999999992288,54.008569121605326,0.5364533644732404,108,2026-10-07 19:01:34.798244,5.0,0.4859971970713285,0.8072881445247759,0.9438302486352395
60,cdot_cos,T,S-T,109,21,18959,-0.3613050720268829,0.0180027536105234,-0.3595459671373428,0.1421276352533509,818.0,2.780889206530221,0.5661990628781028,5.911294117898598,-0.0197570952731432,0.245,0.9999999999991968,45.00055423198633,0.5414206085076012,109,2026-10-07 19:01:35.043243,5.0,0.6737029247261039,0.1607379105021429,0.08213216821399745
60,cdot_cos,P,T-P,110,22,19378,0.0396334494065642,-0.0027450337648757,0.4009385214334471,0.8812888918891874,839.0,2.8395284014638413,0.5672739378127356,5.949621736606844,-0.0583588826021228,0.419,0.9999999999991824,-35.91281746854399,0.54638794213409,110,2026-10-07 19:01:35.462244,5.0,0.5160997508689323,0.1121660591775534,0.13995034590362826
60,cdot_cos,Q,P-Q,111,22,19468,-0.0171339692233483,-0.0137639178304052,-0.0567674186299125,0.4295133136758773,839.0,2.874884364121011,0.5677975702672815,5.982121314526416,-0.0357651055892783,0.09,0.999999999999142,43.14816015832737,0.5513551088927364,111,2026-10-07 19:01:35.552243,5.0,0.5316728956459282,0.4826852968155758,0.39284402952410624
60,cdot_cos,R,Q-R,112,22,19498,0.1862973102836349,0.2266300457194502,0.2034312795069832,0.7344183302060293,839.0,2.926411754890645,0.5686925699824263,6.018479203117865,-0.0528898304718532,0.03,0.9999999999991211,-19.133776908301574,0.5563222448710807,112,2026-10-07 19:01:35.582243,5.0,0.7234086148368677,1.3219803760862257,1.7175796923211362
60,cdot_cos,S,R-S,113,22,19520,-0.0031261404010616,-0.0058863853097355,-0.1894234506846966,0.2794649349739595,839.0,2.9542031866861844,0.5690330227527354,6.048906762339405,-0.0289107686750912,0.022,0.9999999999990876,70.43285849898099,0.5612893770668507,113,2026-10-07 19:01:35.604243,5.0,0.4363038974952644,1.1513821290971056,1.2632468997972477
60,cdot_cos,T,S-T,114,22,19758,-0.2993144404124333,0.1577123404793872,-0.2961883000113716,0.1852852533880699,839.0,2.9770725685709176,0.5692587069928039,6.07802251974026,-0.0239923753757774,0.238,0.9999999999990526,21.793251038798303,0.5662566269046423,114,2026-10-07 19:01:35.842243,5.0,0.8146487986158019,0.1695915071402823,0.09608983985182017
60,cdot_cos,P,T-P,115,23,20217,0.0346545955260743,-8.244325411314885e-05,0.3339690359385076,0.8415551784975699,820.0,3.034928744084959,0.5702833886788833,6.115610919682965,-0.0614874020285405,0.459,0.9999999999990348,-36.59187742119765,0.5712240005633845,115,2026-10-07 19:01:36.301243,5.0,0.5434594714904405,0.1026941020453945,0.12604831266675645
60,cdot_cos,Q,P-Q,116,23,20314,-0.0179820054592013,-0.0164764815521617,-0.0526366009852756,0.4345814166904899,820.0,3.07134575424859,0.5708123019899296,6.147839818284089,-0.0392975699921977,0.097,0.9999999999989888,41.95362750929048,0.5761911734360543,116,2026-10-07 19:01:36.398243,5.0,0.5685524648009301,0.4543315206287064,0.37543309447042233
60,cdot_cos,R,Q-R,117,23,20344,0.1677628310012104,0.2437495640749371,0.1857448364604118,0.7168163780723411,820.0,3.123069059086928,0.5716843594478073,6.1837150412181225,-0.0565915099654929,0.03,0.9999999999989636,-19.83119325116916,0.5811583087093658,117,2026-10-07 19:01:36.428244,5.0,0.7366867716367368,1.3515734739920109,1.7241101612779364
60,cdot_cos,S,R-S,118,23,20367,-0.0040677550217725,-0.0094087856623267,-0.1718305860229829,0.2975163532064934,820.0,3.1524401626881104,0.5720461785878284,6.214015301930791,-0.0325493062412914,0.023,0.999999999998926,66.4481257757675,0.5861254404280399,118,2026-10-07 19:01:36.451244,5.0,0.4777634643516375,1.188600023005345,1.2770045043992417
60,cdot_cos,T,S-T,119,23,20617,-0.2560370704986693,0.0901242772983231,-0.2519693154768968,0.2210003041996819,820.0,3.1777446601451738,0.5723148942708928,6.243221655505908,-0.0282824995392186,0.25,0.9999999999988874,15.87851759679398,0.5910927068654572,119,2026-10-07 19:01:36.701244,5.0,0.8599647769010978,0.1657593080100072,0.10121798982825325
60,cdot_cos,P,T-P,120,24,21037,0.0382116843737238,-0.0029095311450696,0.2942487548723931,0.8132463600012837,801.0,3.235319816693114,0.5733033572326063,6.280227016537828,-0.0651551765347627,0.42,0.9999999999988648,-37.303043638200585,0.596060077449655,120,2026-10-07 19:01:37.121243,5.0,0.5678369774057895,0.1122821609899822,0.1370837060665246
60,cdot_cos,Q,P-Q,121,24,21126,-0.0212438441502097,-0.0180277174349487,-0.0594555285239335,0.4262231205637514,801.0,3.272061675376759,0.5738211782745012,6.31203664136686,-0.0421774495926326,0.089,0.9999999999988144,44.37387646134604,0.601027248114654,121,2026-10-07 19:01:37.210243,5.0,0.5799652930186336,0.5086475868444315,0.4128298728499412
60,cdot_cos,R,Q-R,122,24,21156,0.1823956850186405,0.2404258849812879,0.2036395291688502,0.7346213740757943,801.0,3.325859087151423,0.5747132937633794,6.347919539730934,-0.0625815051499973,0.03,0.9999999999987867,-22.8715405255669,0.6059943828432705,122,2026-10-07 19:01:37.240243,5.0,0.7217765278052947,1.3844641113790763,1.7932470591554672
60,cdot_cos,S,R-S,123,24,21185,-0.0021413246775872,-0.0048441221781026,-0.1845370096962278,0.2844111132026157,801.0,3.3551295220595034,0.5750585489715174,6.377711566033891,-0.0344711333470001,0.029,0.9999999999987444,81.41911009713628,0.6109615175097702,123,2026-10-07 19:01:37.269243,5.0,0.4424288112503685,0.9295450366913616,1.0093253416579506
60,cdot_cos,T,S-T,124,24,21416,-0.2800849522962131,0.1076530329769792,-0.2779436276186258,0.1994527583089072,801.0,3.379772699279522,0.5753006270219118,6.40628040013217,-0.0292515554950437,0.231,0.9999999999986992,21.561549440166047,0.6159287822520146,124,2026-10-07 19:01:37.500243,5.0,0.8365762435032895,0.1828677547668644,0.10668042086588055
60,cdot_cos,P,T-P,125,25,21838,0.0408125363972047,0.0010912852276986,0.3208974886934178,0.8326446331425579,840.0,3.439614424761795,0.5763108257966684,6.443354817737227,-0.0718783448079538,0.422,0.9999999999986768,-42.19643735281739,0.6208961734123208,125,2026-10-07 19:01:37.922244,5.0,0.5526442603137866,0.1153510600697014,0.1418050366878506
60,cdot_cos,Q,P-Q,126,25,21941,-0.0183822850519997,-0.0171004852944702,-0.0591948214492044,0.4265419398436554,840.0,3.47712899397835,0.5768280776390861,6.4748833332182665,-0.0456887570718938,0.103,0.9999999999986208,50.63217873453531,0.6258633558972627,126,2026-10-07 19:01:38.025243,5.0,0.5637088756509017,0.4437298152435561,0.3642191186073306
60,cdot_cos,R,Q-R,127,25,21969,0.1673200908176708,0.2436748704594191,0.1857023758696706,0.716773280572382,840.0,3.531022766701968,0.5776969027063242,6.510317745088538,-0.0664677312214705,0.028,0.9999999999985898,-23.916177068450576,0.6308304886733138,127,2026-10-07 19:01:38.053244,5.0,0.731529689142048,1.510798521409681,1.9247775972720695
60,cdot_cos,S,R-S,128,25,21991,-0.0025202030050367,-0.00557136947172,-0.1698402938227076,0.2996003944266728,840.0,3.561733711177292,0.5780599163336929,6.540005678907327,-0.0383244867696565,0.022,0.9999999999985428,77.52668861445089,0.6357976179021081,128,2026-10-07 19:01:38.075244,5.0,0.479821525753879,1.2585374702063223,1.395952021605645
60,cdot_cos,T,S-T,129,25,22234,-0.2911478351717708,0.122735368654304,-0.288627632166734,0.1910598567259344,840.0,3.586398415391045,0.5782913717875015,6.568131687021517,-0.031015028148696,0.243,0.9999999999984924,31.58041212978703,0.6407649009483857,129,2026-10-07 19:01:38.318244,5.0,0.7900376016633123,0.1768433004080262,0.10150084038581526
60,cdot_cos,P,T-P,130,26,22678,0.036163340704526,0.0005662077777276,0.3273111758762967,0.8370657503836272,859.0,3.6476795551755927,0.5793050108344623,6.6050978506491225,-0.0779343829339329,0.444,0.9999999999984668,-46.2880301680503,0.6457323276257622,130,2026-10-07 19:01:38.762244,5.0,0.5476950365766793,0.1125199599583451,0.1380205851003325
60,cdot_cos,Q,P-Q,131,26,22782,-0.0175350045439616,-0.0156757531822376,-0.0536983452484876,0.4332774114468896,859.0,3.686316139834056,0.5798294231978318,6.636455928836872,-0.0497977514064538,0.104,0.9999999999984048,53.653638801899184,0.65069951394673,131,2026-10-07 19:01:38.866244,5.0,0.5683498521872454,0.4503176136669413,0.37150562171599344
60,cdot_cos,R,Q-R,132,26,22809,0.1695711384434572,0.2342632866803567,0.1871061429874189,0.7181959992851312,859.0,3.741345618818317,0.5806982861522552,6.671720285759447,-0.0717908594709874,0.027,0.9999999999983696,-25.312516723802798,0.6556666451318981,132,2026-10-07 19:01:38.893243,5.0,0.7361291520979124,1.5966184612081933,2.038128851268923
60,cdot_cos,S,R-S,133,26,22830,-0.002258501386314,-0.0046415389484394,-0.1718296398297712,0.2975173419811104,859.0,3.7725335367392985,0.5810580720472645,6.701093510600056,-0.0411498664563871,0.021,0.9999999999983162,85.16451989817176,0.6606337724638318,133,2026-10-07 19:01:38.914243,5.0,0.4749149703793391,1.3848235519394685,1.4851389486181676
60,cdot_cos,T,S-T,134,26,23074,-0.2519803231670594,0.1319712139359921,-0.2497218217807453,0.2229410015927304,859.0,3.799508207999774,0.58132761676323,6.729358602568791,-0.0358598868208639,0.244,0.9999999999982612,19.62561060258337,0.6656010671889009,134,2026-10-07 19:01:39.158243,5.0,0.8628468864492095,0.1799675240604284,0.11055193139539223
60,cdot_cos,P,T-P,135,27,23537,0.0369037611892641,0.0013124842351846,0.2888840843563235,0.8091382458777063,815.0,3.860357688480788,0.582305488778239,6.765783512936918,-0.0817771812047921,0.463,0.9999999999982312,-46.95634365148115,0.6705685303623793,135,2026-10-07 19:01:39.621243,5.0,0.5703570274620668,0.1079682989088539,0.1314243638898786
60,cdot_cos,Q,P-Q,136,27,23641,-0.020199934755963,-0.0201157234944634,-0.0571036959452272,0.4291013697060583,815.0,3.899486852789373,0.5828238108981014,6.796840760586766,-0.0532543202851156,0.104,0.999999999998161,55.02921798368319,0.6755357198748543,136,2026-10-07 19:01:39.725244,5.0,0.585319675869944,0.4538441424873427,0.37624196450562436
60,cdot_cos,R,Q-R,137,27,23671,0.1535841083154291,0.2445330311671997,0.1737840430713922,0.70452096761247,815.0,3.954757270118155,0.5836744218230935,6.831739582658766,-0.0760931095026516,0.03,0.9999999999981204,-26.84986583936628,0.6805028523766404,137,2026-10-07 19:01:39.755244,5.0,0.7407125341005735,1.4686152271052115,1.8423472442927302
60,cdot_cos,S,R-S,138,27,23699,-0.000850434615421,-0.0025249101337367,-0.1544345429308502,0.316009291970349,815.0,3.9876037664156856,0.584055797522582,6.861107742806926,-0.0457164556205185,0.028,0.999999999998061,79.65020824052345,0.6854699839291318,138,2026-10-07 19:01:39.783243,5.0,0.5145524609158469,1.0847152791322707,1.1730891534832422
60,cdot_cos,T,S-T,139,27,23933,-0.2423844581972721,0.0715789248801941,-0.241534023581851,0.2301135563395109,815.0,4.015501325749562,0.5843334466947537,6.889195378850565,-0.0391178546932017,0.234,0.999999999997999,23.765966509832094,0.6904372817633259,139,2026-10-07 19:01:40.017244,5.0,0.8447748444763674,0.1925189083012514,0.11922033903365976
60,cdot_cos,P,T-P,140,28,24352,0.0515502773558392,-0.0025620061350864,0.2939347355531114,0.8130077815930619,840.0,4.077702615500671,0.5853139715167187,6.925534168379779,-0.0881399085439322,0.419,0.9999999999979656,-49.99572958539687,0.6954047327342646,140,2026-10-07 19:01:40.436243,5.0,0.5733926563848458,0.1210244091496478,0.14845176551577394
60,cdot_cos,Q,P-Q,141,28,24446,-0.0143137816560848,-0.0119786968289534,-0.0658640590119241,0.4184060150253668,840.0,4.116919780616967,0.5858183256631642,6.9562134738421335,-0.0562475248974866,0.094,0.99999999999789,63.23410617561934,0.7003719175211063,141,2026-10-07 19:01:40.530244,5.0,0.5672241890046738,0.5162762417272646,0.4172038842159104
60,cdot_cos,R,Q-R,142,28,24476,0.1856472340134321,0.2416579626546783,0.199961015669517,0.7310202529810914,840.0,4.174762548945397,0.5866990783743032,6.991332747216661,-0.0838914930981214,0.03,0.9999999999978488,-31.386753456464334,0.7053390494545763,142,2026-10-07 19:01:40.560243,5.0,0.7192685275977764,1.487085148026172,1.9280922776143388
60,cdot_cos,S,R-S,143,28,24500,-0.0019647481588698,-0.0040083774970008,-0.187611982172302,0.2812923980781882,840.0,4.206144889498537,0.5870378395512336,7.019957908555978,-0.0459935768561531,0.024,0.9999999999977822,111.87207632639368,0.7103061769131634,143,2026-10-07 19:01:40.584243,5.0,0.4386809918768734,1.1871130816388058,1.3075975230475063
60,cdot_cos,T,S-T,144,28,24732,-0.3009678776862572,0.157938272321638,-0.2990031295273874,0.1831700993265633,840.0,4.23174397686406,0.5872583875140711,7.047107010798218,-0.0377668045674876,0.232,0.9999999999977112,37.30151112175656,0.7152734841597612,144,2026-10-07 19:01:40.816243,5.0,0.8042615317251812,0.1958498307974642,0.11034089381690741
60,cdot_cos,P,T-P,145,29,25192,0.0398738630066665,0.0016646224032587,0.3408417406929238,0.8460836167528308,898.0,4.2970192109885605,0.5882766680292616,7.083795729903283,-0.0972671084472199,0.46,0.9999999999976782,-58.43213435995276,0.7202409928085248,145,2026-10-07 19:01:41.276243,5.0,0.5424167279616819,0.1148688921962698,0.1419026828793497
60,cdot_cos,Q,P-Q,146,29,25298,-0.0191839136567543,-0.0166769973982577,-0.0590577766634208,0.4267095567286972,898.0,4.337423357684628,0.588789936507462,7.114382959497315,-0.0609296638491902,0.106,0.9999999999975944,70.7961742077596,0.7252081911748678,146,2026-10-07 19:01:41.382244,5.0,0.5508000209826472,0.4633902216862067,0.38117119524591886
60,cdot_cos,R,Q-R,147,29,25326,0.1638907775722666,0.2157334940010409,0.1830746912290209,0.7140984783675443,898.0,4.395257937986036,0.5896484587371675,7.149114806041223,-0.0881513234384977,0.028,0.9999999999975464,-31.70757686570936,0.7301753204016672,147,2026-10-07 19:01:41.410244,5.0,0.7343231982221958,1.6249197165160474,2.065520725050301
60,cdot_cos,S,R-S,148,29,25348,-0.0038678813017824,-0.0074211296930058,-0.1677586588740491,0.3017889909991936,898.0,4.428418861809527,0.5900111196279998,7.177802250748169,-0.0510567217036387,0.022,0.999999999997474,102.2845381803703,0.735142444812277,148,2026-10-07 19:01:41.432243,5.0,0.48358069297451,1.47269773028696,1.507314719249556
60,cdot_cos,T,S-T,149,29,25591,-0.1972773017305412,0.1216009980788596,-0.1934094204287588,0.2754694684791862,898.0,4.460056638118663,0.5903420668404485,7.206050460602204,-0.0490572019553155,0.243,0.9999999999974029,6.041808702748416,0.7401097736879679,149,2026-10-07 19:01:41.675244,5.0,0.9600605303875084,0.1912691826690777,0.13019661032566257
60,cdot_cos,P,T-P,150,30,26090,0.0358259352066056,-0.0018713378592916,0.2331032369371469,0.7623335889939393,879.0,4.521375684586698,0.5912575020865051,7.24140338890524,-0.0960089777310587,0.499,0.9999999999973582,-51.28901905186623,0.7450773442593428,150,2026-10-07 19:01:42.174243,5.0,0.6132177020737988,0.1029716021457633,0.12288386065738631
60,cdot_cos,Q,P-Q,151,30,26183,-0.0185131257306617,-0.014316542476954,-0.0543390609372674,0.4324909476391167,879.0,4.562822297060134,0.5917765706366186,7.2718802858637615,-0.0656108599774214,0.093,0.999999999997264,58.56281939445012,0.7500445336804012,151,2026-10-07 19:01:42.267244,5.0,0.6291980284376109,0.5439092788869644,0.4456624997143663
60,cdot_cos,R,Q-R,152,30,26212,0.1792861547849742,0.2097099382896214,0.197799280515636,0.7288896474981706,879.0,4.622542810459674,0.5926509084352071,7.306699243927698,-0.0955278584051744,0.029,0.9999999999972116,-34.216750638083745,0.7550116626507645,152,2026-10-07 19:01:42.296243,5.0,0.7311214853228702,1.5935949036979142,2.0593280482599763
60,cdot_cos,S,R-S,153,30,26238,-0.0044040565642337,-0.0077959379136774,-0.183690211349208,0.2852736072606057,879.0,4.6552508014746135,0.5929929483183216,7.334925818142254,-0.0528316853214939,0.026,0.9999999999971284,124.82805424589176,0.7599787893983895,153,2026-10-07 19:01:42.322243,5.0,0.4456797351700098,1.2250547007125383,1.2579996544207581
60,cdot_cos,T,S-T,154,30,26469,-0.2173259787598002,0.1439244653675799,-0.2129219221955665,0.256429537979378,879.0,4.686245654896726,0.5933003275711329,7.362671579385217,-0.0503963265966956,0.231,0.9999999999970473,7.9229769170307165,0.7649461184552651,154,2026-10-07 19:01:42.553244,5.0,0.9528248962445116,0.2032242752457085,0.13417685464117868
60,cdot_cos,P,T-P,155,31,26969,0.0259126597446001,0.0019672895632734,0.2432386385044004,0.7713929282736948,781.0,4.749140416638131,0.5942245464566885,7.398044353707344,-0.1032178669917216,0.5,0.9999999999969992,-57.152630421820135,0.7699137179343633,155,2026-10-07 19:01:43.053244,5.0,0.5994468096818033,0.1056273858763745,0.12578952348281014
60,cdot_cos,Q,P-Q,156,31,27072,-0.0205217793655572,-0.021485378217156,-0.0464344391101574,0.4422162823340106,781.0,4.7918730407731,0.5947540728025847,7.428485034587057,-0.0708850318859696,0.103,0.9999999999968952,61.05991771009972,0.7748809203118507,156,2026-10-07 19:01:43.156243,5.0,0.6337310397692396,0.4938228756322326,0.4148798459705775
60,cdot_cos,R,Q-R,157,31,27094,0.1503758278228094,0.2584149235129829,0.1708976071883667,0.7015077621557898,781.0,4.850867929018371,0.5955936319398843,7.462775969548426,-0.0988387561543316,0.022,0.9999999999968336,-33.29571798631545,0.7798480408702296,157,2026-10-07 19:01:43.178244,5.0,0.7536543108127919,2.14410634476189,2.6815858293304746
60,cdot_cos,S,R-S,158,31,27124,-0.0012288306176238,-0.0036074874258785,-0.1516046584404333,0.3190755846319776,781.0,4.886213719942623,0.5959753144464184,7.491302691092208,-0.0597787857657862,0.03,0.9999999999967452,102.3362866253414,0.7848151704457161,158,2026-10-07 19:01:43.208243,5.0,0.5202693810564663,1.048527807801388,1.178193030808424
60,cdot_cos,T,S-T,159,31,27368,-0.286548588479952,0.0455515375779486,-0.2853197578623281,0.1936291854975026,781.0,4.913779597486454,0.5962068797060831,7.517891862538688,-0.0469135105631996,0.244,0.999999999996648,55.5578812694699,0.7897825246311906,159,2026-10-07 19:01:43.452243,5.0,0.7601542505266342,0.1963084148269025,0.11297490796651866
60,cdot_cos,P,T-P,160,32,27750,0.0457223742133734,0.0023673498224729,0.3322709626933254,0.8404197868210013,836.0,4.982012226378152,0.597211457763285,7.554203277223692,-0.1171634721840292,0.382,0.9999999999966002,-69.92981890974313,0.7947500274956547,160,2026-10-07 19:01:43.834244,5.0,0.5490370917499929,0.144336253616462,0.1786194473604657
60,cdot_cos,Q,P-Q,161,32,27856,-0.0185353824111493,-0.0180164936830317,-0.0642577566245227,0.4203616936780768,836.0,5.024052495249431,0.5977136229559424,7.584145638168099,-0.0729628249934586,0.106,0.9999999999964946,88.020133288534,0.7997172373361007,161,2026-10-07 19:01:43.940243,5.0,0.5456394781878697,0.4841130379424488,0.39660631010640657
60,cdot_cos,R,Q-R,162,32,27885,0.1624754715331504,0.2504665276356956,0.1810108539442997,0.7119870481708502,836.0,5.084644190421951,0.5985636967017557,7.618482184267998,-0.1061645734369951,0.029,0.9999999999964322,-39.05749190239138,0.8046843645425998,162,2026-10-07 19:01:43.969243,5.0,0.7314411663584772,1.6492150330778688,2.0893687990524157
60,cdot_cos,S,R-S,163,32,27909,-0.0014758253862496,-0.0038869399861956,-0.1639512969194001,0.3058153538979042,836.0,5.119706967167947,0.5989286419696962,7.646619130225992,-0.061997306113095,0.024,0.9999999999963364,121.02435955163584,0.8096514869766166,163,2026-10-07 19:01:43.993243,5.0,0.4904626089712847,1.3276729414059367,1.4609490310831807
60,cdot_cos,T,S-T,164,32,28147,-0.2736073245529268,0.1064537895108952,-0.2721314991666771,0.2041334627639262,836.0,5.148372491609436,0.5991721839703167,7.673157983637208,-0.0509921147016908,0.238,0.9999999999962346,45.188063592174885,0.8146188479414843,164,2026-10-07 19:01:44.231244,5.0,0.8058791901676222,0.2037082868360893,0.12044338000625472
60,cdot_cos,P,T-P,165,33,28586,0.0362427518865048,-0.0031163545944238,0.3098500764394317,0.8248054373657041,860.0,5.216672111701926,0.6001557205573639,7.7091502548946576,-0.1225430304819583,0.439,0.999999999996184,-72.74860612463837,0.8195864375362645,165,2026-10-07 19:01:44.670244,5.0,0.5577279345921774,0.1268614152830327,0.15558000021068316
60,cdot_cos,Q,P-Q,166,33,28675,-0.0229461785805393,-0.0166721104230193,-0.0591889304670441,0.4265491446456949,860.0,5.259756814227939,0.6006640416556854,7.739025896027789,-0.0780999518644826,0.089,0.9999999999960684,87.43111148489473,0.8245536320557187,166,2026-10-07 19:01:44.759244,5.0,0.5660607614527464,0.5984125557141989,0.4840977811911553
60,cdot_cos,R,Q-R,167,33,28705,0.1880856986132349,0.2135781703447904,0.2110318771937742,0.7417644114853155,860.0,5.323189546619053,0.6015474897580361,7.773717945330814,-0.1160675464912758,0.03,0.9999999999960064,-42.97659876768171,0.8295207596122646,167,2026-10-07 19:01:44.789243,5.0,0.7209998345006642,1.6192918441128394,2.1144244130371526
60,cdot_cos,S,R-S,168,33,28727,-0.0041453293760166,-0.0070678291220838,-0.1922310279892516,0.2766469762329366,860.0,5.356914324874709,0.6018768098912688,7.801226266593141,-0.0622578386744554,0.022,0.9999999999959,163.3963501976178,0.8344878785715393,168,2026-10-07 19:01:44.811244,5.0,0.4213446468280896,1.4764366110916776,1.5329444661661722
60,cdot_cos,T,S-T,169,33,28967,-0.2377237161006745,0.1476444331825064,-0.2335783867246579,0.2372362385310208,860.0,5.388152757507087,0.6021591421259865,7.828080039604582,-0.0580047314147805,0.24,0.9999999999957936,15.064192949582418,0.8394552551478388,169,2026-10-07 19:01:45.051244,5.0,0.929300195478154,0.2069886808887107,0.13016013596824177
60,cdot_cos,P,T-P,170,34,29446,0.0470727312534836,0.0029918467222346,0.2847964473541582,0.8059619465074692,859.0,5.45626889170129,0.6031177998571837,7.863705566009229,-0.127545295522276,0.479,0.999999999995738,-72.53951211622947,0.844422919419787,170,2026-10-07 19:01:45.530244,5.0,0.5797127864419157,0.1165918103455503,0.14220487305679155
60,cdot_cos,Q,P-Q,171,34,29551,-0.0140627196748488,-0.0131353240045954,-0.0611354509283324,0.4241702211270455,859.0,5.499847711818124,0.6036220151022424,7.893394389119673,-0.0824045190483909,0.105,0.999999999995611,89.52679816062994,0.8493901362305933,171,2026-10-07 19:01:45.635243,5.0,0.5782234377025061,0.5056224749052112,0.41503638206508686
60,cdot_cos,R,Q-R,172,34,29579,0.1693825731601781,0.2417559564916348,0.1834452928350269,0.7144766417638485,859.0,5.562449611431385,0.6044708222540677,7.927572943194061,-0.1194348264793059,0.028,0.9999999999955376,-43.62629055526597,0.8543572601521099,172,2026-10-07 19:01:45.663244,5.0,0.7334131126955464,1.7540192907948202,2.2357821290450084
60,cdot_cos,S,R-S,173,34,29601,-0.0018726679210746,-0.0040057875854853,-0.1712552410812527,0.2981179397460879,859.0,5.598072792102634,0.6048248043164582,7.95524069360112,-0.0685457975262548,0.022,0.999999999995424,143.76160365126788,0.8593243774218032,173,2026-10-07 19:01:45.685244,5.0,0.475965848371344,1.4649763382740772,1.6192354850568047
60,cdot_cos,T,S-T,174,34,29845,-0.2873286528958298,0.1403336248911944,-0.2854559849747551,0.1935228572786791,859.0,5.626908570315444,0.6050545325010398,7.981229875970802,-0.0557947508484755,0.244,0.999999999995302,55.50492944957924,0.8642917720912823,174,2026-10-07 19:01:45.929244,5.0,0.795698542926513,0.2036039931155372,0.11817941890495776
60,cdot_cos,P,T-P,175,35,30305,0.0262967055972857,0.0015081569036931,0.3136253584931155,0.8275164037349807,798.0,5.6974315407430165,0.6060363407873787,8.017120035883805,-0.1375442961783093,0.46,0.9999999999952434,-83.26426499686113,0.8692594417037092,175,2026-10-07 19:01:46.389244,5.0,0.5519208253156971,0.1260508245423447,0.1533108052773315
60,cdot_cos,Q,P-Q,176,35,30405,-0.0195846700518856,-0.0190935047380127,-0.0458813756491714,0.4428984869567873,798.0,5.742875328894401,0.606561467472833,8.046960791260524,-0.0894969422648087,0.1,0.9999999999951088,91.49669069270278,0.8742266561932859,176,2026-10-07 19:01:46.489243,5.0,0.5845807912362294,0.5434773115403813,0.45443788151384723
60,cdot_cos,R,Q-R,177,35,30428,0.1600813730925939,0.2514697521740721,0.1796660431444796,0.7106062406118504,798.0,5.806127003051093,0.6074034895738106,8.080991563538024,-0.1256563542234876,0.023,0.99999999999503,-42.94354259430569,0.8791937724590644,177,2026-10-07 19:01:46.512243,5.0,0.7499383369770348,2.174332079202633,2.750072789421371
60,cdot_cos,S,R-S,178,35,30457,-0.0021243358270381,-0.0055408271199726,-0.162205708919632,0.3076713623975812,798.0,5.842894604537722,0.6077678623852967,8.10864837163951,-0.0736512252592829,0.029,0.999999999994908,142.72505336528448,0.884160897362851,178,2026-10-07 19:01:46.541243,5.0,0.493565361634432,1.1522820996424692,1.2678483271251588
60,cdot_cos,T,S-T,179,35,30704,-0.2722360471214864,0.0677617193786993,-0.2701117112944484,0.2057790696556742,798.0,5.872959364830356,0.6080114979958372,8.134653169483439,-0.0605565570161791,0.247,0.9999999999947768,53.74693877488637,0.8891283100347125,179,2026-10-07 19:01:46.788243,5.0,0.8055430346862842,0.2053948058333672,0.12171967729811177
60,cdot_cos,P,T-P,180,36,31103,0.0386659398435988,-0.0016282785420065,0.3109019869650853,0.825564152344821,819.0,5.944359638619406,0.6089883967540193,8.170450864120086,-0.1449311437037258,0.399,0.9999999999947132,-86.36983718206423,0.8940959277935565,180,2026-10-07 19:01:47.187244,5.0,0.5586846166832049,0.1461951622497266,0.1789480546091473
60,cdot_cos,Q,P-Q,181,36,31199,-0.0172625834132853,-0.0153633331607347,-0.0559285232568842,0.430541395616798,819.0,5.989623104305638,0.6094975150845369,8.199965283001944,-0.0927413070882727,0.096,0.999999999994574,102.51022893321282,0.8990631412022597,181,2026-10-07 19:01:47.283243,5.0,0.5696424480280396,0.5740010452711016,0.4714944342315841
60,cdot_cos,R,Q-R,182,36,31227,0.1742083422786072,0.2456710468358782,0.1914709256918926,0.7225918451753334,819.0,6.054567839311457,0.6103514489104601,8.234106208651585,-0.1341895929715913,0.028,0.9999999999944934,-48.53805368174278,0.904030263188536,182,2026-10-07 19:01:47.311244,5.0,0.7342699472705799,1.806292286992647,2.319454821636408
60,cdot_cos,S,R-S,183,36,31252,-0.0032698183530638,-0.0073792959897567,-0.177478160631671,0.2916485673950469,819.0,6.090775472377226,0.6106959177406592,8.261356247437888,-0.0754168182146441,0.025,0.9999999999943624,170.6185570490483,0.9089973818571218,183,2026-10-07 19:01:47.336244,5.0,0.4587242809116545,1.3426735937255607,1.4483053226307518
60,cdot_cos,T,S-T,184,36,31503,-0.2654376655373544,0.1015406898871445,-0.2621678471842906,0.2123464434706685,819.0,6.121701518997735,0.6109466526225477,8.287298604781716,-0.0647567353703417,0.251,0.9999999999942244,42.51535631586368,0.9139648150458703,184,2026-10-07 19:01:47.587244,5.0,0.8482182038813125,0.2045098481293913,0.1232113411175667
60,cdot_cos,P,T-P,185,37,31922,0.0323456505654841,-0.0001446133227619,0.2977833161028385,0.8159156015567197,841.0,6.1934394161381805,0.6119095242534078,8.32288480037031,-0.1513395406491445,0.419,0.9999999999941565,-89.92144176213269,0.9189324868146516,185,2026-10-07 19:01:48.006243,5.0,0.5643336592339472,0.1407572078750942,0.17121216501299572
60,cdot_cos,Q,P-Q,186,37,32019,-0.0196036679073924,-0.0177547174273889,-0.0519493184728765,0.4354260024267338,841.0,6.239656059197064,0.6124230187806228,8.352352653807968,-0.0983855635687405,0.097,0.9999999999940088,103.12471559845496,0.9238997055650766,186,2026-10-07 19:01:48.103244,5.0,0.5837811333302981,0.5754909391782693,0.4764602377204508
60,cdot_cos,R,Q-R,187,37,32051,0.1659649262359223,0.2352639265172036,0.1855685941433148,0.7166374661810645,841.0,6.305084658338765,0.6132675997742811,8.38632468796453,-0.1404216472843815,0.032,0.9999999999939232,-49.77152461548854,0.928866832311166,187,2026-10-07 19:01:48.135243,5.0,0.741295350034636,1.6031207997225794,2.044643723178141
60,cdot_cos,S,R-S,188,37,32074,-0.0048476187264429,-0.0105121089063224,-0.1708125449623652,0.2985813033393031,841.0,6.342255790379309,0.6136192870812147,8.413540185371588,-0.0804014180684043,0.023,0.9999999999937836,170.6636208719151,0.9338339468403196,188,2026-10-07 19:01:48.158243,5.0,0.4740193680594503,1.5239549856219718,1.6161361756758506
60,cdot_cos,T,S-T,189,37,32321,-0.2402837636206084,0.0990210644478357,-0.2354361448941655,0.2355594880703991,841.0,6.375186587677376,0.6138966598338229,8.439700147153276,-0.0716052974212352,0.247,0.9999999999936398,31.712273698325827,0.9388013896318448,189,2026-10-07 19:01:48.405244,5.0,0.884403600914657,0.2115134047603297,0.13332306598407703
60,cdot_cos,P,T-P,190,38,32763,0.035841282921025,0.0013623196902614,0.2761250465416335,0.7990913965907707,836.0,6.446743412330912,0.6148370432417005,8.47496065570481,-0.1567303660045969,0.442,0.9999999999935656,-90.52166155875086,0.9437691234082412,190,2026-10-07 19:01:48.847244,5.0,0.5809267131330444,0.1335985256901831,0.1618932684469137
60,cdot_cos,Q,P-Q,191,38,32869,-0.0195846996932939,-0.0190737048149525,-0.055425982614319,0.4311575561026757,836.0,6.493287684387497,0.61534408077787,8.504242165780468,-0.1028338761854235,0.106,0.9999999999934064,106.29684387146334,0.9487363595469498,191,2026-10-07 19:01:48.953243,5.0,0.5920807761729956,0.5302203133106211,0.43909690619419983
60,cdot_cos,R,Q-R,192,38,32898,0.1597592376292228,0.2454424921022752,0.1793439373225168,0.7102749310302282,836.0,6.559150118752764,0.616178811356334,8.538042007163936,-0.1466591791538345,0.029,0.999999999993312,-52.50233320678323,0.9537034807855952,192,2026-10-07 19:01:48.982244,5.0,0.7416898321237325,1.7946889908793424,2.2711184263885
60,cdot_cos,S,R-S,193,38,32918,-0.0032686258102269,-0.0082449867568947,-0.1630278634394497,0.3067964209570649,836.0,6.597379645858499,0.6165391539189561,8.565253619115463,-0.0857760816293186,0.02,0.9999999999931636,168.9589402969585,0.9586705891359704,193,2026-10-07 19:01:49.002244,5.0,0.4917469230320138,1.800553677807315,1.9114763552867675
60,cdot_cos,T,S-T,194,38,33160,-0.2319227775465821,0.0743201815535015,-0.2286541517363552,0.2417203519927346,836.0,6.6311722658650565,0.6168229723695619,8.59136780703467,-0.0762146472379009,0.242,0.9999999999930106,33.68855819982923,0.9636380395064446,194,2026-10-07 19:01:49.244244,5.0,0.8820963163514287,0.2177569999274659,0.13963892564693078
60,cdot_cos,P,T-P,195,39,33599,0.0284850755999356,-0.0003920381300786,0.2604078531465177,0.7861779880717268,780.0,6.702774033823393,0.6177455199769386,8.626365161319955,-0.1626255369061406,0.439,0.9999999999929295,-93.66550731614512,0.9686057986400868,195,2026-10-07 19:01:49.683244,5.0,0.5878115735621512,0.135968510421444,0.16310197712605076
60,cdot_cos,Q,P-Q,196,39,33692,-0.0196011385551586,-0.0181133152786369,-0.0480862141550942,0.440180122852622,780.0,6.750552618015084,0.61826168335234,8.655682946318247,-0.1094322191549566,0.093,0.9999999999927608,103.05519586665471,0.9735730190502856,196,2026-10-07 19:01:49.776243,5.0,0.6150297664215701,0.6197814710093961,0.5137482171149631
60,cdot_cos,R,Q-R,197,39,33722,0.1707882594719191,0.2535424404696799,0.1903893980270777,0.721506564847753,780.0,6.81805338743114,0.6191071576612596,8.689602575640793,-0.1557961350368234,0.03,0.9999999999926644,-54.83775839518433,0.9785401408898674,197,2026-10-07 19:01:49.806243,5.0,0.7426031524442872,1.7578314170645668,2.25002564720187
60,cdot_cos,S,R-S,198,39,33748,-0.0025250622383932,-0.0066125085514358,-0.1733133217103123,0.2959692212108515,780.0,6.856022503038958,0.6194537712649244,8.716506737545803,-0.0882854227291736,0.026,0.9999999999925048,194.7722524270296,0.9835072572068084,198,2026-10-07 19:01:49.832243,5.0,0.4654796177527692,1.357326737916263,1.4603506003006888
60,cdot_cos,T,S-T,199,39,33979,-0.2572384690509768,0.0554850529380239,-0.2547134068125836,0.2186472461967457,780.0,6.888634377802786,0.6197097538902747,8.742101433807283,-0.0762004335804311,0.231,0.9999999999923364,47.210193005107335,0.9884747050268266,199,2026-10-07 19:01:50.063244,5.0,0.8533421009225911,0.2322909466971591,0.1411769470295574
60,cdot_cos,P,T-P,200,40,34379,0.0425104154092137,0.0020263503005945,0.2997488844601905,0.8173871365594445,820.0,6.963340920413046,0.6206661245107598,8.777564547645948,-0.1757494905549672,0.4,0.9999999999922572,-104.09045911934058,0.9934424310722536,200,2026-10-07 19:01:50.463244,5.0,0.5675503201696414,0.1528108988764709,0.18676635652564944
60,cdot_cos,Q,P-Q,201,40,34483,-0.0153594359144764,-0.0152347624817456,-0.0578698513236902,0.4281631872812307,820.0,7.010883096903963,0.6211667165388304,8.806579071348096,-0.1127735339648394,0.104,0.9999999999920822,125.8029554183056,0.9984096738943908,201,2026-10-07 19:01:50.567244,5.0,0.572107418616406,0.5544652760241093,0.45713631241266317
60,cdot_cos,R,Q-R,202,40,34512,0.1670890508445826,0.2622661512274132,0.1824484867590591,0.7134588148045795,820.0,7.078669697826061,0.6220002918613854,8.840306269751562,-0.1619821517433746,0.029,0.9999999999919804,-59.03319885682868,1.0033767933670552,202,2026-10-07 19:01:50.596244,5.0,0.7380155605879741,1.837893277850444,2.337468997313716
60,cdot_cos,S,R-S,203,40,34534,-0.0012916651596605,-0.0031869717354129,-0.1683807160042432,0.3011340195709268,820.0,7.117480907019289,0.6223519082287852,8.867170923443881,-0.0934104074089128,0.022,0.999999999991813,195.0186359115017,1.0083439019634304,203,2026-10-07 19:01:50.618243,5.0,0.479941502171104,1.4727549727385063,1.7641458724194548
60,cdot_cos,T,S-T,204,40,34778,-0.4006436907034026,0.0282007477663514,-0.3993520255437421,0.1195435077233834,820.0,7.143470916626555,0.6224914564439191,8.890977510768911,-0.0628289001266681,0.244,0.9999999999916174,219.14653120349016,1.0133113863872518,204,2026-10-07 19:01:50.862243,5.0,0.6146251674265014,0.2203056829223915,0.10651643281666506
60,cdot_cos,P,T-P,205,41,35199,0.0395235814693619,0.0005368970667618,0.4401672721727646,0.9003245912233339,859.0,7.224990080285416,0.6235417900667676,8.92778146340228,-0.1983336049557458,0.421,0.9999999999915512,-129.0111083577383,1.018279175762392,205,2026-10-07 19:01:51.283243,5.0,0.5049902971494097,0.1539925804382608,0.19363221771700903
60,cdot_cos,Q,P-Q,206,41,35300,-0.0181926384477633,-0.0159918414042579,-0.0577162199171253,0.4283512728134988,859.0,7.27313266935557,0.6240411050842983,8.95669752523178,-0.1181241941187803,0.101,0.999999999991364,160.6388913228012,1.0232464181880163,206,2026-10-07 19:01:51.384243,5.0,0.5071106270386977,0.5802567574175501,0.476659297724296
60,cdot_cos,R,Q-R,207,41,35329,0.1704521444107088,0.2316208951537379,0.1886447828584721,0.7197504128501019,859.0,7.342201945283761,0.6248795007166773,8.990473308011147,-0.1706886863997927,0.029,0.9999999999912582,-62.69652447002736,1.0282135366302838,207,2026-10-07 19:01:51.413243,5.0,0.7349481408066576,1.8608798461250715,2.3816991699376286
60,cdot_cos,S,R-S,208,41,35351,-0.0035839732564019,-0.0072697903025995,-0.1740361176671107,0.2952167267151074,859.0,7.381063700430825,0.6252231654534529,9.017119623983518,-0.0967115848842218,0.022,0.9999999999910796,215.2595061386056,1.0331806436623965,208,2026-10-07 19:01:51.435244,5.0,0.4653688686675391,1.6483921009455436,1.7664434157756275
60,cdot_cos,T,S-T,209,41,35597,-0.254322509711938,0.1252186551956142,-0.250738536455536,0.2220615724511953,859.0,7.414731197725365,0.6254815864038269,9.04250529294373,-0.0841745947679718,0.246,0.9999999999908924,48.51383023747376,1.038148147992655,209,2026-10-07 19:01:51.681243,5.0,0.8616205447494093,0.2220315933373956,0.1368597450997565
60,cdot_cos,P,T-P,210,42,36058,0.0276180238559724,-0.0005325624343621,0.2819405335679104,0.8037190423113535,797.0,7.490303244352823,0.6264163039964505,9.077658137169106,-0.1901468326696967,0.461,0.9999999999908028,-113.37353521321116,1.0431160395507388,210,2026-10-07 19:01:52.142244,5.0,0.5727431467256393,0.1357217817115025,0.16393068682745884
60,cdot_cos,Q,P-Q,211,42,36152,-0.0206269364150966,-0.0187033629247781,-0.0482449602710691,0.4399845398039316,797.0,7.53986668046337,0.6269276027992942,9.106674103161792,-0.1256839547035019,0.094,0.9999999999906034,126.0767238406988,1.0480832736547463,211,2026-10-07 19:01:52.236243,5.0,0.5987586765956217,0.6353087558597281,0.5272705969207108
60,cdot_cos,R,Q-R,212,42,36176,0.1676597391646072,0.2433076635283087,0.1882866755797038,0.7193891021220945,797.0,7.609741290454452,0.6277629817085378,9.140391810819352,-0.1784349790637254,0.024,0.9999999999904898,-63.146224756838,1.053050381619252,212,2026-10-07 19:01:52.260243,5.0,0.7440614647529455,2.2793083717296083,2.9114420829617536
60,cdot_cos,S,R-S,213,42,36206,-0.0036674785252842,-0.0087869596764148,-0.1713272176898914,0.2980426419818971,797.0,7.649273482306391,0.6281088557647165,9.1669717829021,-0.1016417750845517,0.03,0.9999999999902992,222.02649376944967,1.058017501550515,213,2026-10-07 19:01:52.290244,5.0,0.46976252880462,1.250721570148302,1.3177397283979708
60,cdot_cos,T,S-T,214,42,36455,-0.2321400608247327,0.0653065075453058,-0.2284725822994484,0.2418867917921248,797.0,7.68478458466335,0.6283894653799261,9.192570223598626,-0.0917238576863632,0.249,0.9999999999901028,35.34418231100399,1.0629850277418271,214,2026-10-07 19:01:52.539244,5.0,0.8975127063329451,0.2222692276616493,0.1426148689034497
60,cdot_cos,P,T-P,215,43,36855,0.0279884837957074,-0.003104682713854,0.2601285446204401,0.7859431324160385,840.0,7.759963557681893,0.6293006290552663,9.227384003751933,-0.1953894633941126,0.4,0.9999999999900018,-113.77275950893,1.0679528391386304,215,2026-10-07 19:01:52.939244,5.0,0.5882761296022819,0.156723284272453,0.18794743254635593
60,cdot_cos,Q,P-Q,216,43,36945,-0.0196991619560442,-0.0157608662847417,-0.0476876457517516,0.4406712605223977,840.0,7.810163212081313,0.6298111084375317,9.256321632500994,-0.1314530168784909,0.09,0.9999999999897972,125.24785277689188,1.0729200700927728,216,2026-10-07 19:01:53.029243,5.0,0.6148465856925915,0.6784358232315787,0.5577739377713343
60,cdot_cos,R,Q-R,217,43,36975,0.185447958904366,0.2261423034187336,0.2051471208604103,0.7360883189299168,840.0,7.882082005863577,0.6306631555300279,9.29027511070295,-0.1896231932119823,0.03,0.9999999999896836,-68.27108131203538,1.0778871882523275,217,2026-10-07 19:01:53.059244,5.0,0.7358218791516061,1.8443661030729996,2.397293126075469
60,cdot_cos,S,R-S,218,43,37003,-0.0025280401502843,-0.0049460753973796,-0.1879759990546503,0.2809245836165518,840.0,7.920825178265693,0.6309881209336786,9.316454681717758,-0.1028342467247989,0.028,0.99999999998948,267.0713420942404,1.0828543035293705,218,2026-10-07 19:01:53.087244,5.0,0.4300003343092541,1.2886381796680826,1.383684728646996
60,cdot_cos,T,S-T,219,43,37235,-0.2701799068849057,0.1435121826957483,-0.2676518667346213,0.2077964562408723,840.0,7.954245743924989,0.6312284174366228,9.34135426543587,-0.0890876695273709,0.232,0.9999999999892653,57.20673013963596,1.087821813953824,219,2026-10-07 19:01:53.319244,5.0,0.8570115130449375,0.2419869722026139,0.14405416232455492
60,cdot_cos,P,T-P,220,44,37695,0.0387702107089806,0.0012563162078078,0.3089501175938863,0.824154260040303,861.0,8.033107133367706,0.632180830144611,9.37678437097413,-0.2114757186796445,0.46,0.9999999999891712,-128.50316687898734,1.0927897722037805,220,2026-10-07 19:01:53.779244,5.0,0.5606080163755999,0.1399497063544967,0.17143780313633944
60,cdot_cos,Q,P-Q,221,44,37799,-0.0187212672716666,-0.0171396714407689,-0.0574914779806473,0.4286264537518852,861.0,8.082999473771126,0.632675754495735,9.405429901585142,-0.1347934321699833,0.104,0.9999999999889472,154.9373885837625,1.0977570345086334,221,2026-10-07 19:01:53.883244,5.0,0.5661549868075297,0.5818785314249952,0.4797340423405849
60,cdot_cos,R,Q-R,222,44,37828,0.1646363526808937,0.2326567766933483,0.1833576199525604,0.7143872071173788,861.0,8.154137867904105,0.6335000180915511,9.438966548727358,-0.1934540979995369,0.029,0.9999999999888196,-71.16736214884408,1.1027241493122937,222,2026-10-07 19:01:53.912243,5.0,0.7384308424582122,1.928714088272688,2.4530480735509714
60,cdot_cos,S,R-S,223,44,37849,-0.0031557618517392,-0.0066401589007606,-0.1677921145326329,0.3017537445580359,861.0,8.194864890890942,0.6338479488456003,9.465397258084764,-0.1114716690401797,0.021,0.999999999988607,235.62857840320552,1.1076912490305342,223,2026-10-07 19:01:53.933243,5.0,0.4792871934270385,1.7852961809066463,1.9393820469922725
60,cdot_cos,T,S-T,224,44,38093,-0.2634630148980736,0.1249749583967792,-0.2603072530463344,0.2139065795700594,861.0,8.229120307502184,0.6340945047682073,9.490286421813307,-0.0941618133074849,0.244,0.99999999998838,70.20661093704078,1.1126587992899784,224,2026-10-07 19:01:54.177243,5.0,0.8320764532372018,0.2321405235846692,0.14039105168541569
60,cdot_cos,P,T-P,225,45,38556,0.0323032085654077,0.0006366813276898,0.2957662234634814,0.8143959629622332,858.0,8.30814946640026,0.635032561189402,9.525517957246072,-0.218496790632565,0.463,0.9999999999882754,-132.54530806017695,1.117626798302969,225,2026-10-07 19:01:54.640243,5.0,0.5660645529726981,0.1401774991335004,0.17068932807360077
60,cdot_cos,Q,P-Q,226,45,38661,-0.0216845269688303,-0.0199939251863188,-0.053987735534238,0.4329221496388011,858.0,8.358924671699805,0.635530803034287,9.55415383588138,-0.1414009629547947,0.105,0.9999999999880386,154.7357542712294,1.122594067432011,226,2026-10-07 19:01:54.745243,5.0,0.5797093343626214,0.5837873632840808,0.4835733838051835
60,cdot_cos,R,Q-R,227,45,38691,0.1601499217312544,0.2323483031634489,0.1818344487000847,0.7128307483092357,858.0,8.430744812689918,0.636350553330768,9.587618966982598,-0.2012850471620375,0.03,0.9999999999879006,-73.05161640601345,1.127561182781409,227,2026-10-07 19:01:54.775244,5.0,0.7426660057867183,1.8881428596422127,2.394004699670423
60,cdot_cos,S,R-S,228,45,38713,-0.0040241930782455,-0.0093826052247608,-0.1641741148094999,0.3055788924404936,858.0,8.472213243278338,0.6367017248517107,9.614016384602438,-0.1169563032012744,0.022,0.999999999987674,240.13548631269992,1.1325282823973704,228,2026-10-07 19:01:54.797244,5.0,0.4862522374497514,1.817713918844807,1.8849286631100042
60,cdot_cos,T,S-T,229,45,38952,-0.2076010438916316,0.0856224587572434,-0.2035768508133861,0.2654397270242509,858.0,8.51072422511909,0.6370066501706855,9.63969096844152,-0.1090897710292544,0.239,0.9999999999874448,25.798225606419724,1.1374958391105352,229,2026-10-07 19:01:55.036243,5.0,0.9304279563901038,0.2417953107585971,0.16113381523326953
60,cdot_cos,P,T-P,230,46,39414,0.0416007952511308,-0.0019295784664271,0.2492018391427625,0.7766082694170339,837.0,8.587791401820947,0.6378981498170434,9.674236280087769,-0.2195602218573363,0.462,0.9999999999873236,-123.91530527172976,1.1424638719824929,230,2026-10-07 19:01:55.498244,5.0,0.6046266046698222,0.1384353699065325,0.16681207078324248
60,cdot_cos,Q,P-Q,231,46,39508,-0.0176932033961802,-0.0150547662212061,-0.059293998647311,0.4264206486105115,837.0,8.638638506912725,0.638387252285319,9.702679506766891,-0.1458590134700751,0.094,0.999999999987071,150.68664169106452,1.1474311225583622,231,2026-10-07 19:01:55.592243,5.0,0.6033301396428504,0.6608040003360911,0.5409266499125323
60,cdot_cos,R,Q-R,232,46,39533,0.1742505204552383,0.2319852027939516,0.1919437238514186,0.7230654644750177,837.0,8.712022553884132,0.6392159493920545,9.736280774900557,-0.211814799053193,0.025,0.9999999999869276,-79.58973797186125,1.152398225781478,232,2026-10-07 19:01:55.617243,5.0,0.7324324080192429,2.2868742528159918,2.935361878856284
60,cdot_cos,S,R-S,233,46,39563,-0.0020624048123387,-0.0042782577431772,-0.1763129252675771,0.2928536548406406,837.0,8.752982219553525,0.6395513501961213,9.762361174192373,-0.118956410781755,0.03,0.9999999999866848,276.8579775167868,1.1573653408895734,233,2026-10-07 19:01:55.647244,5.0,0.4581271449841517,1.188294723390726,1.3653221889797489
60,cdot_cos,T,S-T,234,46,39810,-0.345337754385521,0.0495691339305131,-0.3432753495731823,0.1523384503110368,837.0,8.783320237287576,0.6397257672766652,9.785956038249772,-0.0884497024940586,0.247,0.9999999999864102,174.9066558880985,1.162332931309458,234,2026-10-07 19:01:55.894243,5.0,0.7082879286891028,0.2347848721055286,0.12282598272895179
60,cdot_cos,P,T-P,235,47,40251,0.0503624157912628,0.0026925974939767,0.3957001701767839,0.8785212612010616,861.0,8.868965946373656,0.6407308931390799,9.82225286406412,-0.2510416165236512,0.441,0.999999999986308,-161.76274047806965,1.1673009529372314,235,2026-10-07 19:01:56.335244,5.0,0.523263998774083,0.154974695458204,0.19420795711129263
60,cdot_cos,Q,P-Q,236,47,40358,-0.0127185813308357,-0.0122063849045064,-0.0630809971220985,0.421795994424062,861.0,8.920007918681712,0.6412130366582263,9.850537281743785,-0.1506819054859768,0.107,0.9999999999860428,208.15318894127,1.1722682367414237,236,2026-10-07 19:01:56.442244,5.0,0.5137405476428228,0.5812435741500798,0.47702777857996226
60,cdot_cos,R,Q-R,237,47,40386,0.1685535345566919,0.2453305177074025,0.1812721158875276,0.7122548477921306,861.0,8.993352071241773,0.6420265479344518,9.883909039706973,-0.2178160941482271,0.028,0.999999999985887,-82.5239804588013,1.17723534488639,237,2026-10-07 19:01:56.470243,5.0,0.7347573241375704,2.058551510909469,2.619434020002182
60,cdot_cos,S,R-S,238,47,40407,-0.0009953459872434,-0.0021793005030951,-0.1695488805439353,0.299906234485793,861.0,9.035286803292642,0.6423688455542447,9.910019862230602,-0.1252854049379561,0.021,0.999999999985631,270.3223272959407,1.182202438197465,238,2026-10-07 19:01:56.491244,5.0,0.4778018337824659,1.7413232758103463,1.9968920024223413
60,cdot_cos,T,S-T,239,47,40650,-0.3335541015359117,0.1494801165915057,-0.3325587555486683,0.159387321914825,861.0,9.066487648825808,0.6425507030271675,9.93362877327714,-0.0935736162994797,0.243,0.9999999999853432,174.37715442095254,1.1871700371013318,239,2026-10-07 19:01:56.734244,5.0,0.7125560609515014,0.2401402368189462,0.12839854128874642
60,cdot_cos,P,T-P,240,48,41112,0.0378055876308858,0.0013493809204613,0.3713596891667975,0.8649233442328271,856.0,9.15199495838665,0.6435368450012655,9.969666659067494,-0.2577787106624129,0.462,0.9999999999852324,-166.5126307123611,1.1921381414320205,240,2026-10-07 19:01:57.196243,5.0,0.52887656228726,0.1489309591963293,0.18508075662520024
60,cdot_cos,Q,P-Q,241,48,41217,-0.0196890826012455,-0.0184661921119359,-0.0574946702321313,0.4286225447515514,856.0,9.204099855123216,0.6440250888125895,9.997996290373203,-0.1581702119212834,0.105,0.9999999999849524,204.01384806296875,1.1971054258012346,241,2026-10-07 19:01:57.301243,5.0,0.5327222449541885,0.6013831297705439,0.49623711177681734
60,cdot_cos,R,Q-R,242,48,41247,0.1624975035282081,0.2381071212733437,0.1821865861294536,0.7131910312767162,856.0,9.278285415638464,0.6448368206959374,10.03134532168194,-0.2265159014247048,0.03,0.9999999999847878,-84.19736972944106,1.2020725369464744,242,2026-10-07 19:01:57.331244,5.0,0.739540825930635,1.9488615646955587,2.4728520171749464
60,cdot_cos,S,R-S,243,48,41269,-0.0024672493290785,-0.0057446872474204,-0.1649647528572866,0.3047406690966778,856.0,9.32103154900495,0.6451834134093738,10.05745265609839,-0.1312879083434224,0.022,0.999999999984518,274.75474639127646,1.2070396303244937,243,2026-10-07 19:01:57.353244,5.0,0.4841613218875101,1.7691006679470191,1.943006062112961
60,cdot_cos,T,S-T,244,48,41508,-0.2730682279081424,0.1199608164600335,-0.2706009785790639,0.2053795427647799,856.0,9.356125845028131,0.6454169131857813,10.081773052242587,-0.1082055646804717,0.239,0.9999999999842266,98.85381484334172,1.212007237312341,244,2026-10-07 19:01:57.592243,5.0,0.8078980718163433,0.2473972570306791,0.14683805867440136
60,cdot_cos,P,T-P,245,49,41968,0.0346269273965298,-0.0017102082500956,0.3076951553046723,0.8232430387272003,799.0,9.439287437865614,0.6463521771168041,10.117051193381556,-0.2577260688329147,0.46,0.9999999999840968,-159.8698497748359,1.2169753740715357,245,2026-10-07 19:01:58.052243,5.0,0.5598128126243445,0.1479382575130124,0.18078607138583194
60,cdot_cos,Q,P-Q,246,49,42061,-0.0197483270440356,-0.0176902970025929,-0.0543752544405655,0.4324465310571668,799.0,9.492229041940105,0.6468430199830174,10.145377341823473,-0.1651554096295329,0.093,0.9999999999838032,188.5953032536529,1.221942634777384,246,2026-10-07 19:01:58.145243,5.0,0.5709198937064249,0.6901308644841315,0.5692645599407586
60,cdot_cos,R,Q-R,247,49,42086,0.16840359269746,0.2406865668696484,0.1881519197414957,0.7192530672766114,799.0,9.567651778659664,0.6476587129314415,10.17879688332715,-0.2366331913650325,0.025,0.9999999999836334,-87.62829429087674,1.2269097324350184,247,2026-10-07 19:01:58.170244,5.0,0.7392925813694063,2.361335331026986,3.016909468782387
60,cdot_cos,S,R-S,248,49,42119,-0.0031374923195813,-0.0075705716544297,-0.1715410850170413,0.297818970940543,799.0,9.610295808491454,0.6479962128786187,10.204695789379937,-0.1345624562797645,0.033,0.999999999983348,302.4318549942282,1.2318768506854578,248,2026-10-07 19:01:58.203244,5.0,0.4683506601654339,1.209613796831,1.2922433282360488
60,cdot_cos,T,S-T,249,49,42367,-0.2475896098569374,0.0747714427223603,-0.2444521175373561,0.2275388738189542,799.0,9.647486289250509,0.6482539691607555,10.229316350084002,-0.1178029823482261,0.248,0.9999999999830468,65.02062255323176,1.2368444972236303,249,2026-10-07 19:01:58.451244,5.0,0.8673896543149664,0.2423658278589129,0.14996161596392993
60,cdot_cos,P,T-P,250,50,42767,0.0432583083028767,0.0014034017391262,0.2908479181598142,0.8106500537469431,841.0,9.730509259109477,0.6491715716317092,10.26434589616895,-0.2643046280255572,0.4,0.9999999999829046,-159.6569868922216,1.2418125230606047,250,2026-10-07 19:01:58.851244,5.0,0.5744794899044495,0.169961607356559,0.20755742464741989
60,cdot_cos,Q,P-Q,251,50,42868,-0.0166426465025192,-0.0153608830008625,-0.059900954805396,0.4256785497543605,841.0,9.783455575135756,0.6496529709282353,10.292482291885833,-0.1696307888033104,0.101,0.999999999982604,196.6638503742178,1.2467798084834438,251,2026-10-07 19:01:58.952243,5.0,0.5722856224290701,0.6382226541671122,0.5242209507552407
60,cdot_cos,R,Q-R,252,50,42898,0.1688825482689481,0.2436043744940589,0.1855251947714674,0.7165933989462517,841.0,9.859430235251232,0.6504626771381499,10.32581873765431,-0.2447560055413994,0.03,0.9999999999824274,-92.78083311972117,1.251746917246965,252,2026-10-07 19:01:58.982244,5.0,0.7356953171929805,1.9842097683527924,2.5324886705158534
60,cdot_cos,S,R-S,253,50,42920,-0.0025942446311904,-0.0057335126259653,-0.1714767929001386,0.297886200057047,841.0,9.902508161236923,0.6507990152649371,10.351635902293548,-0.1395565895429809,0.022,0.9999999999821296,312.7787414507593,1.256714006827455,253,2026-10-07 19:01:59.004243,5.0,0.4705693726849284,1.77693133364802,1.958087544804179
60,cdot_cos,T,S-T,254,50,43166,-0.2842416372945232,0.1213689202662406,-0.2816473926633327,0.1965122824651373,841.0,9.937615213931744,0.6510208117326898,10.375608263673474,-0.1141502793094424,0.246,0.9999999999818064,114.54785773175632,1.2616816669957711,254,2026-10-07 19:01:59.250243,5.0,0.8004597961354172,0.245979092779968,0.14271159632041036
60,cdot_cos,P,T-P,255,51,43608,0.0425673727700339,0.0010096818083864,0.3268090100645572,0.8367230168641853,836.0,10.023529874884668,0.6519644586424166,10.411082243561768,-0.280700723887581,0.442,0.9999999999816702,-176.49657182298714,1.266649833069856,255,2026-10-07 19:01:59.692243,5.0,0.5524799493360627,0.1577655744180681,0.19437706097946453
60,cdot_cos,Q,P-Q,256,51,43710,-0.0165352933472228,-0.0153183386479256,-0.0591026661172568,0.4266546514308704,836.0,10.077079981717317,0.6524451768057872,10.43916927131102,-0.1760679830883381,0.102,0.999999999981352,217.6592206660213,1.2716171261494214,256,2026-10-07 19:01:59.794244,5.0,0.551962781348676,0.6392496155483484,0.5250010473789112
60,cdot_cos,R,Q-R,257,51,43738,0.1706160475742615,0.246336526436992,0.1871513409214844,0.7182417351934018,836.0,10.15393679645653,0.6532537287450287,10.472500670876627,-0.254060445919516,0.028,0.9999999999811674,-96.4594345099662,1.2765842282861248,257,2026-10-07 19:01:59.822243,5.0,0.735662455670606,2.146564568723625,2.7448862406862187
60,cdot_cos,S,R-S,258,51,43760,-0.0026746861113935,-0.0058645258634905,-0.1732907336856551,0.295992755249398,836.0,10.19728759756584,0.6535866820964358,10.498203343366542,-0.1440884113780653,0.022,0.999999999980854,330.29261930152074,1.2815513157584542,258,2026-10-07 19:01:59.844243,5.0,0.4661601250020449,1.7871040557906943,1.9704909595140405
60,cdot_cos,T,S-T,259,51,44004,-0.2870241017283843,0.1205343325095998,-0.2843494156169907,0.1943878429621927,836.0,10.23256937491132,0.653805261369116,10.522046622152908,-0.1176869867544501,0.244,0.9999999999805136,120.78649681592476,1.286518989121128,259,2026-10-07 19:02:00.088243,5.0,0.7990466315763469,0.24965342916021,0.14459744813721262
60,cdot_cos,P,T-P,260,52,44444,0.03605860277464,0.0007103230040711,0.3230827045030243,0.8341616268601517,798.0,10.319118470996022,0.6547424959800318,10.55745314487912,-0.2900459956112561,0.44,0.99999999998037,-183.90166864238404,1.291487186426439,260,2026-10-07 19:02:00.528243,5.0,0.5519779611527639,0.1601760735204652,0.19670249110159688
60,cdot_cos,Q,P-Q,261,52,44549,-0.0196325578901737,-0.0203425329578493,-0.0556911606648138,0.4308323970348237,798.0,10.37352431960933,0.6552260940797852,10.585550903805483,-0.1834554024070739,0.105,0.9999999999800396,220.41152200253728,1.2964544927996764,261,2026-10-07 19:02:00.633244,5.0,0.5593295879715409,0.623064854646172,0.5181509391743672
60,cdot_cos,R,Q-R,262,52,44570,0.1534265598452522,0.2569649807604078,0.173059117735426,0.7037658658825318,798.0,10.449962090471718,0.6560153616708615,10.618585977688468,-0.2590942001883243,0.021,0.999999999979841,-95.83416148900848,1.3014215744303403,262,2026-10-07 19:02:00.654243,5.0,0.7468166957320725,2.9000991594838914,3.6398938505898837
60,cdot_cos,S,R-S,263,52,44600,-0.001151747389918,-0.0032063097892949,-0.1545783072351703,0.3158539411063233,798.0,10.495328484307654,0.6563693097123279,10.64457110670492,-0.1545981764317073,0.03,0.9999999999795206,295.2298403000006,1.3063886815902317,263,2026-10-07 19:02:00.684243,5.0,0.5086881320119168,1.334088586908481,1.5122131278645294
60,cdot_cos,T,S-T,264,52,44843,-0.3007851736801036,0.0723143245888682,-0.2996334262901856,0.1826990487822917,798.0,10.530007405686227,0.6565739642498701,10.668113907352362,-0.118595758124875,0.243,0.9999999999791588,175.9180067014061,1.3113563707035056,264,2026-10-07 19:02:00.927244,5.0,0.7381763225765753,0.2515105585456298,0.14271161061141144
60,cdot_cos,P,T-P,265,53,45242,0.0254833777540486,0.0018152282477192,0.3262685514341523,0.8363535000249799,739.0,10.61756261576083,0.6575100815400781,10.703539289112433,-0.3007708593085109,0.399,0.99999999997901,-194.60713212889348,1.3163244920286368,265,2026-10-07 19:02:01.326244,5.0,0.5456955891282579,0.1797389697668149,0.21943661672832854
60,cdot_cos,Q,P-Q,266,53,45343,-0.0206463658205204,-0.0229600981544759,-0.0461297435745691,0.4425920979366611,739.0,10.673439103560144,0.658004972892857,10.731788628091374,-0.1931156406032374,0.101,0.9999999999786764,217.5330364953191,1.3212917933103685,266,2026-10-07 19:02:01.427244,5.0,0.5726588916684359,0.6587678698316216,0.5532325524684497
60,cdot_cos,R,Q-R,267,53,45366,0.1527572210402415,0.2921231093594152,0.1734035868607619,0.7041248135259199,739.0,10.750633725466818,0.6587915925131425,10.764795914729694,-0.2681636646920625,0.023,0.9999999999784732,-95.40573633491223,1.3262588787216738,267,2026-10-07 19:02:01.450243,5.0,0.7558902889616838,2.6739670246957714,3.3562879089858324
60,cdot_cos,S,R-S,268,53,45393,-0.0016964375858113,-0.0062250177306538,-0.1544536586260528,0.3159886332927226,739.0,10.796441586696153,0.6591443184948393,10.790710124390626,-0.1599642112421437,0.027,0.9999999999781416,306.7521505770417,1.331225976471775,268,2026-10-07 19:02:01.477243,5.0,0.5084451779762319,1.507044328155088,1.6965874529383294
60,cdot_cos,T,S-T,269,53,45642,-0.2921738088983805,0.0068281385633543,-0.2904773713125692,0.1896344982485368,739.0,10.832014119187193,0.6593559156390267,10.814293666062458,-0.1246535751393256,0.249,0.999999999977769,166.8767139482122,1.336193701697935,269,2026-10-07 19:02:01.726244,5.0,0.7533162569681853,0.2488187057547006,0.1428615762692364
60,cdot_cos,P,T-P,270,54,45981,0.0333406905022985,-0.0007248446858863,0.325514499400679,0.8358368237731529,799.0,10.920353302161992,0.6602877976655319,10.84968921313008,-0.3109190311637543,0.339,0.9999999999776156,-199.88094064114125,1.3411616863705025,270,2026-10-07 19:02:02.065243,5.0,0.5493166287789596,0.2123516442659817,0.2605875603976379
60,cdot_cos,Q,P-Q,271,54,46072,-0.0203974482078486,-0.0177278917239944,-0.0537381387101471,0.4332285560518823,799.0,10.975988533999528,0.6607703207414284,10.877707340568133,-0.196974067067285,0.091,0.9999999999772794,236.14407224933984,1.3461289652866135,271,2026-10-07 19:02:02.156243,5.0,0.5607517508477302,0.7470835949308599,0.6113761740388614
60,cdot_cos,R,Q-R,272,54,46101,0.1822462274872578,0.2496233494385236,0.2026436756951064,0.7336495185513685,799.0,11.056322516439408,0.6615866863399791,10.911222440017372,-0.2858488953980863,0.029,0.9999999999770895,-108.8664545499982,1.3510960670652303,272,2026-10-07 19:02:02.185244,5.0,0.7327758540918885,2.137368744879047,2.7701373255131068
60,cdot_cos,S,R-S,273,54,46130,-0.0024535003943829,-0.0057404264272681,-0.1846997278816407,0.2842455590596884,799.0,11.099955921202511,0.6619027214100414,10.93648309938864,-0.1560612843054725,0.029,0.9999999999767382,410.6747110915138,1.356063169980198,273,2026-10-07 19:02:02.214243,5.0,0.4353325070996905,1.3762882053927596,1.5046001642449256
60,cdot_cos,T,S-T,274,54,46361,-0.2883933760869501,0.1086170352670401,-0.2859398756925672,0.1931455288722068,799.0,11.136147232352188,0.6621173855743328,10.960048223425144,-0.1298695853994488,0.231,0.9999999999763578,122.01244205097298,1.3610308631214336,274,2026-10-07 19:02:02.445244,5.0,0.8173589518242139,0.2722775422698177,0.1566723426392953
60,cdot_cos,P,T-P,275,55,46780,0.0451096278983935,-0.0024877098892074,0.3335030039853436,0.8412442275160982,819.0,11.225748145731169,0.6630515745492077,10.995522706174803,-0.3229049246468946,0.419,0.999999999976212,-206.6341440962554,1.365999112236976,275,2026-10-07 19:02:02.864243,5.0,0.5500156235140369,0.1729397956541831,0.21384466200233976
60,cdot_cos,Q,P-Q,276,55,46872,-0.0168214584971938,-0.014278752739459,-0.0619310863955874,0.4231988462409308,819.0,11.281070781110394,0.6635210498656543,11.023297723169938,-0.2005269362988497,0.092,0.9999999999758512,260.6696967037834,1.3709663988314342,276,2026-10-07 19:02:02.956243,5.0,0.5431976424096825,0.7408937832708935,0.6013329932524468
60,cdot_cos,R,Q-R,277,55,46901,0.1849799411701285,0.2443010224702217,0.2018013996673224,0.7328257722537506,819.0,11.362072601853011,0.6643332460957074,11.05676722059378,-0.2950316949724119,0.029,0.9999999999756548,-116.3570516294813,1.375933499385772,277,2026-10-07 19:02:02.985244,5.0,0.7259161993555358,2.150773074715796,2.7931662325040523
60,cdot_cos,S,R-S,278,55,46928,-0.0031538687081349,-0.0066909797947858,-0.1881338098782634,0.2807652175370772,819.0,11.40581561944391,0.6646441631643482,11.081891233631836,-0.1601289667978586,0.027,0.999999999975288,433.8865304639724,1.380900595077101,278,2026-10-07 19:02:03.012243,5.0,0.4306485330447107,1.4795421731807703,1.6201117626258743
60,cdot_cos,T,S-T,279,55,47179,-0.2948345794394619,0.1192742689986964,-0.2916807107313269,0.1887116189658081,819.0,11.441967879204777,0.6648530606383122,11.105293983579312,-0.1327651291117025,0.251,0.9999999999748908,130.99171170863065,1.385868366628329,279,2026-10-07 19:02:03.263244,5.0,0.8137459075137096,0.2524765283744347,0.14403290741381097
60,cdot_cos,P,T-P,280,56,47599,0.0418981052022668,-0.0022703069359097,0.3367326846417287,0.843389019571509,838.0,11.532558836687876,0.6657858744090772,11.140788069629693,-0.334066988296164,0.42,0.999999999974738,-215.80069408641495,1.3908366547753526,280,2026-10-07 19:02:03.683244,5.0,0.5473978983994598,0.1747410760366383,0.21569275591214201
60,cdot_cos,Q,P-Q,281,56,47693,-0.0163964342385877,-0.013765163579281,-0.0582945394408545,0.4276433646983419,838.0,11.588750383075553,0.6662583665343276,11.16858687337453,-0.2083912601286561,0.094,0.9999999999743644,265.9848100133242,1.3958039520824774,281,2026-10-07 19:02:03.777244,5.0,0.5471261887192687,0.7315982486302937,0.5977824083795377
60,cdot_cos,R,Q-R,282,56,47722,0.180760396214189,0.2360917802933283,0.1971568304527767,0.7282544097127822,838.0,11.670099307430371,0.667062227860624,11.201941467655695,-0.3031183387970096,0.029,0.9999999999741566,-117.8400746118569,1.4007710511522506,282,2026-10-07 19:02:03.806243,5.0,0.7316093588583152,2.168592449090814,2.805135322579954
60,cdot_cos,S,R-S,283,56,47747,-0.0038832588588956,-0.0078204379194947,-0.1846436550730847,0.2843026025803165,838.0,11.714528745122818,0.6673757832498998,11.227060208462024,-0.1663676367812961,0.025,0.9999999999737744,436.129330551641,1.4057381389771453,283,2026-10-07 19:02:03.831244,5.0,0.4395609066420348,1.6244696209543008,1.7771775076978713
60,cdot_cos,T,S-T,284,56,47998,-0.290623392158816,0.1322589806156718,-0.2867401332999203,0.1925227323186445,838.0,11.751322788478086,0.6675880311094916,11.2504552682112,-0.1382109708547451,0.251,0.9999999999733624,132.65936335328496,1.4107059305932097,284,2026-10-07 19:02:04.082243,5.0,0.8156888030709497,0.2539059546296927,0.14658981416441536
60,cdot_cos,P,T-P,285,57,48437,0.0331921262826591,-0.0002120859480235,0.3238155184414751,0.8346678792137795,820.0,11.841989534346924,0.6685074282799187,11.285767213317092,-0.3419476516353454,0.439,0.9999999999731984,-221.59811595456028,1.4156743147148336,285,2026-10-07 19:02:04.521244,5.0,0.5511146103990751,0.1686691106897641,0.2065301728219533
60,cdot_cos,Q,P-Q,286,57,48533,-0.0179679640918965,-0.0161870557465794,-0.0511600903745556,0.4363963289259857,820.0,11.8994142676637,0.6689876136104537,11.313672161821348,-0.2177763014972053,0.096,0.9999999999728096,258.59046964180675,1.4206416229486938,286,2026-10-07 19:02:04.617243,5.0,0.5654245398049722,0.7236905284141263,0.5981743053830776
60,cdot_cos,R,Q-R,287,57,48563,0.1727020426227097,0.2470363174467839,0.1906700067146063,0.7217883975237042,820.0,11.980938115802436,0.6697810557226701,11.346876011903298,-0.3106010159214502,0.03,0.999999999972588,-116.989901336273,1.425608723481092,287,2026-10-07 19:02:04.647244,5.0,0.7416668291800764,2.117819479834508,2.7174616046245603
60,cdot_cos,S,R-S,288,57,48586,-0.0035546477789094,-0.0080233971153569,-0.1762566904016192,0.2929118867340176,820.0,12.02648343645377,0.6701027705166225,11.372086480039323,-0.1743622684927565,0.023,0.999999999972192,423.4767874829562,1.4305758028067512,288,2026-10-07 19:02:04.670244,5.0,0.4577855093648241,1.824362251077569,1.9802313326666807
60,cdot_cos,T,S-T,289,57,48837,-0.2716677300554939,0.0995871969405929,-0.2681130822765844,0.207417092241547,820.0,12.064858779352004,0.670330487286858,11.395683636259392,-0.1473751946189956,0.251,0.9999999999717673,118.51157842197716,1.4355436145642917,289,2026-10-07 19:02:04.921243,5.0,0.8326697650240348,0.2560448745485192,0.15288981234356383
60,cdot_cos,P,T-P,290,58,49257,0.0305943197833035,-0.0005336943864722,0.3022620498387974,0.8192553045377795,719.0,12.155017963477126,0.6712291403009268,11.430686869710552,-0.3476070210382292,0.42,0.9999999999715872,-222.8132808597973,1.4405119759631084,290,2026-10-07 19:02:05.341243,5.0,0.5621259788439514,0.1763120234842697,0.21466472410743367
60,cdot_cos,Q,P-Q,291,58,49352,-0.020397299838976,-0.021819207335275,-0.0509916196222795,0.4366035207741259,719.0,12.212960879078793,0.6717075461456833,11.458540974650532,-0.2245969143834133,0.095,0.9999999999711856,257.1250079886453,1.445479286006891,291,2026-10-07 19:02:05.436243,5.0,0.5782825018717601,0.7309079658642534,0.60992542738596
60,cdot_cos,R,Q-R,292,58,49376,0.1552365929630008,0.2876695307125993,0.1756338928019769,0.7064427455004346,719.0,12.293890476991336,0.6724808721125817,11.49142710496069,-0.3151040699853955,0.024,0.9999999999709476,-117.03622983847724,1.450446365456068,292,2026-10-07 19:02:05.460243,5.0,0.7503395749000809,2.677901981192036,3.372066579689322
60,cdot_cos,S,R-S,293,58,49406,-0.0023777026069937,-0.0089775385347251,-0.1576142955699946,0.3125829104442192,719.0,12.341500174176009,0.6728227507730634,11.516939267822805,-0.1862437241217374,0.03,0.999999999970545,376.9183653699838,1.4554134658427595,293,2026-10-07 19:02:05.490243,5.0,0.5006285136041349,1.4362740727890198,1.586989906155741
60,cdot_cos,T,S-T,294,58,49636,-0.2725113719780623,-0.0091629156241165,-0.2701336693710685,0.2057611267489766,719.0,12.380066921358676,0.6730476960544215,11.540432922867902,-0.1513430724840133,0.23,0.9999999999701008,155.15173924527633,1.4603812286061064,294,2026-10-07 19:02:05.720243,5.0,0.7940520980153388,0.282325084795073,0.16768150948985727
60,cdot_cos,P,T-P,295,59,49976,0.0356295872850362,0.0003456863051999,0.3081409592630986,0.8235671585074366,718.0,12.471369713181742,0.6739472513517545,11.575494167842116,-0.359659647583938,0.34,0.9999999999699204,-231.57728681888048,1.465349361144014,295,2026-10-07 19:02:06.060243,5.0,0.5603438046480556,0.2191530196828285,0.26853762300901896
60,cdot_cos,Q,P-Q,296,59,50072,-0.0222048996513197,-0.0243072679854687,-0.057834486936356,0.4282064808207187,718.0,12.529090974743,0.6744144619963014,11.603136861174518,-0.2285696295512065,0.096,0.9999999999695184,280.5801185455846,1.4703166806756631,296,2026-10-07 19:02:06.156243,5.0,0.5635364047247807,0.7263244176834623,0.6012631412630939
60,cdot_cos,R,Q-R,297,59,50097,0.1546976846274431,0.2983824522129732,0.1769025842787629,0.7077565356345558,718.0,12.610824001376969,0.6751859261421768,11.636015613723355,-0.3250588513826484,0.025,0.9999999999692816,-125.07285315503192,1.4752837625754789,297,2026-10-07 19:02:06.181243,5.0,0.7431657612649534,2.596235017353621,3.269321065358781
60,cdot_cos,S,R-S,298,59,50128,-0.0022235083115334,-0.0087432508365671,-0.1569211929389765,0.3133280452266326,718.0,12.65890272561068,0.6755271548344411,11.661478785558137,-0.1920956669459634,0.031,0.9999999999688732,389.6600357793629,1.4802508660240234,298,2026-10-07 19:02:06.212243,5.0,0.5004879780289045,1.4203162863066991,1.5509265881842422
60,cdot_cos,T,S-T,299,59,50355,-0.2572150603838117,-0.0066464292465942,-0.2549915520722782,0.2184097466108668,718.0,12.698883611127982,0.6757649028951084,11.685139595650138,-0.1602369176543293,0.227,0.9999999999684266,134.00214160411554,1.4852186382029278,299,2026-10-07 19:02:06.439244,5.0,0.8196951475263069,0.2887685674373562,0.17612724897489893
60,cdot_cos,P,T-P,300,60,50694,0.0359783232045698,-0.0005122357754733,0.2931933835883815,0.8124436033083317,759.0,12.79000365522724,0.6766484849517114,11.719968707504076,-0.3665600074032873,0.339,0.9999999999682424,-233.50755960593472,1.4901867980087125,300,2026-10-07 19:02:06.778244,5.0,0.5695759933395355,0.220253837676736,0.2687906905582822
60,cdot_cos,Q,P-Q,301,60,50787,-0.0218197766265023,-0.0206915317347952,-0.0577980998310721,0.4282510275320673,759.0,12.84821571307281,0.6771137277262659,11.747559063018624,-0.2353719066193975,0.093,0.9999999999678356,281.9777285300314,1.4951541134270734,301,2026-10-07 19:02:06.871244,5.0,0.572716091904372,0.7664674403733968,0.6259361058663374
60,cdot_cos,R,Q-R,302,60,50813,0.1772374235451661,0.2753085438079731,0.1990572001716685,0.7301307412539542,759.0,12.932566599136692,0.6779061177907482,11.780827569852814,-0.3425153354878416,0.026,0.9999999999676096,-135.21551275185058,1.500121197996776,302,2026-10-07 19:02:06.897243,5.0,0.731386286375228,2.514388930325372,3.2442648486108623
60,cdot_cos,S,R-S,303,60,50842,-0.0026285906904348,-0.0073699209948461,-0.179866014235601,0.2891881874071777,759.0,12.978963937449729,0.6782196831424652,11.80577419686729,-0.1892600224670923,0.029,0.999999999967182,488.7507888915721,1.5050882942355654,303,2026-10-07 19:02:06.926244,5.0,0.4449645693603065,1.4603133855013746,1.599908217690929
60,cdot_cos,T,S-T,304,60,51073,-0.2859999820229943,0.05900170703943,-0.2833713913325595,0.1951547865452889,759.0,13.017264775495772,0.6784311978401857,11.828927408210022,-0.1566900911526715,0.231,0.9999999999667156,153.9842463215342,1.5100560997822112,304,2026-10-07 19:02:07.157243,5.0,0.8123190482091766,0.2835852765856883,0.1658044937058129
60,cdot_cos,P,T-P,305,61,51453,0.0201745334183149,0.0012841346466218,0.3061745154413093,0.8221339468023522,801.0,13.109980335232317,0.6793214476657493,11.863915471297874,-0.3806568235448101,0.38,0.9999999999665372,-251.577395424192,1.5150244347655222,305,2026-10-07 19:02:07.537244,5.0,0.555232045958147,0.2011996044471214,0.2439883150961716
60,cdot_cos,Q,P-Q,306,61,51554,-0.0235677452673766,-0.0231506953664939,-0.0437422786856916,0.4455390721555969,801.0,13.170176474875584,0.6798033567127404,11.891780524745815,-0.2483928799041401,0.101,0.9999999999661238,274.4583121368919,1.5199917840721162,306,2026-10-07 19:02:07.638243,5.0,0.5871477401001391,0.7121224953450992,0.5960013826066048
60,cdot_cos,R,Q-R,307,61,51577,0.1595033088271711,0.2548100388775436,0.1830710540945477,0.7140947655327281,801.0,13.253829079292029,0.6805749440993468,11.924715246470235,-0.3466292296226234,0.023,0.999999999965883,-127.3172053142846,1.524958856530231,307,2026-10-07 19:02:07.661243,5.0,0.753214906866284,2.867492546866849,3.6370697572367274
60,cdot_cos,S,R-S,308,61,51606,-0.0041750540171057,-0.0108471010127701,-0.1636783628442769,0.306105139690063,801.0,13.30208113203146,0.6809053918390109,11.949919991549203,-0.200828788803792,0.029,0.999999999965452,441.2208749469841,1.529925951743167,308,2026-10-07 19:02:07.690243,5.0,0.483843521738329,1.6267688873698007,1.6638638875666245
60,cdot_cos,T,S-T,309,61,51852,-0.1922037155309595,0.050472885770421,-0.1880286615138537,0.2808713960313517,801.0,13.348181674759475,0.6812084392792893,11.974630462099295,-0.1924585377170813,0.246,0.9999999999650162,27.620266579452053,1.534893831354309,309,2026-10-07 19:02:07.936243,5.0,0.9574409878366968,0.2717540097412154,0.18740058019518113
60,cdot_cos,P,T-P,310,62,52254,0.0327167385827909,0.0014203406104685,0.2249204541137505,0.7548413921641328,896.0,13.435784104824137,0.6820221191999916,12.008318700611898,-0.3670527189143671,0.402,0.999999999964794,-214.57354022771253,1.5398622814087048,310,2026-10-07 19:02:08.338243,5.0,0.6214715563058913,0.183402332176089,0.2179164926981632
60,cdot_cos,Q,P-Q,311,62,52360,-0.0187887342925892,-0.0166170259295025,-0.0515054728753802,0.4359716336515947,896.0,13.49563714982905,0.6824915686279108,12.035952358709428,-0.2519651257905114,0.106,0.9999999999643572,245.15440062193025,1.544829654866577,311,2026-10-07 19:02:08.444243,5.0,0.6333323158811963,0.6791236980373476,0.5646513679708863
60,cdot_cos,R,Q-R,312,62,52389,0.161909104488117,0.2187521962933906,0.1806978387807063,0.7116660049406079,896.0,13.579758328808056,0.6832570855305332,12.068809249309036,-0.355560241161843,0.029,0.9999999999641036,-135.32701239705068,1.5497967472516874,312,2026-10-07 19:02:08.473243,5.0,0.747248546915744,2.2859562854891253,2.9007303096208794
60,cdot_cos,S,R-S,313,62,52411,-0.0037034178979897,-0.0075371831362767,-0.1656125223861068,0.3040548764643272,896.0,13.62822261438742,0.6835838458369775,12.093915668232032,-0.205736433214348,0.022,0.9999999999636524,458.5128762358903,1.5547638149557963,313,2026-10-07 19:02:08.495244,5.0,0.482761867418267,2.1459181256363493,2.2029220717892626
60,cdot_cos,T,S-T,314,62,52651,-0.1975973876555685,0.1186118876031691,-0.1938939697575787,0.2749861852026785,896.0,13.674178726336054,0.6838792107434402,12.118453329138053,-0.1956677753344019,0.24,0.999999999963196,34.08887670688589,1.5597316929139555,314,2026-10-07 19:02:08.735244,5.0,0.9498436129571768,0.2812166951586111,0.19148379978597418
60,cdot_cos,P,T-P,315,63,53150,0.0362500738049099,7.754797130770513e-05,0.2338474614604784,0.7630071277693137,898.0,13.763206628063552,0.6846979856365907,12.152267848826057,-0.3803965206853007,0.499,0.99999999996297,-225.61603548942605,1.5647005419969622,315,2026-10-07 19:02:09.234244,5.0,0.6153146333450144,0.1496039054676489,0.17841262871242033
60,cdot_cos,Q,P-Q,316,63,53252,-0.015818719067838,-0.0133395670996687,-0.052068792872748,0.4352791560182746,898.0,13.823483423992768,0.6851645661942198,12.179838848559022,-0.2587441058310404,0.102,0.9999999999624952,260.7318561930955,1.569667905674765,316,2026-10-07 19:02:09.336244,5.0,0.6248991699248166,0.7131635973513115,0.5909489796981948
60,cdot_cos,R,Q-R,317,63,53281,0.1694592712431175,0.2159784752407789,0.1852779903109556,0.7163423113268902,898.0,13.90869200192322,0.685931608187481,12.212752584236686,-0.3672096657176086,0.029,0.999999999962224,-141.4075902486314,1.5746349954793142,317,2026-10-07 19:02:09.365243,5.0,0.7442504038078085,2.2985031240691147,2.9382268251879884
60,cdot_cos,S,R-S,318,63,53303,-0.0041980041709463,-0.0076841521870032,-0.1736572754140639,0.2956109963501593,898.0,13.956796605188776,0.6862478458108189,12.23763962268499,-0.2081917639839931,0.022,0.9999999999617408,502.8430838025736,1.579602059897132,318,2026-10-07 19:02:09.387244,5.0,0.465890356555426,2.008803279009945,2.186572875707136
60,cdot_cos,T,S-T,319,63,53550,-0.2729326739606647,0.1639291976520945,-0.2687346697897183,0.2069066266852827,898.0,13.99707934619966,0.6864690867458879,12.260817416197272,-0.1748256945249131,0.247,0.9999999999612184,150.8132726372214,1.5845699832763953,319,2026-10-07 19:02:09.634243,5.0,0.8262537494126202,0.27588383566758,0.16308802028698033
60,cdot_cos,P,T-P,320,64,54048,0.0494416698526056,-0.0026728412640915,0.3223743438132703,0.8336710878558031,839.0,14.09308322000856,0.6873596541408575,12.29595212455137,-0.4180360239152652,0.498,0.999999999961012,-273.09592824094835,1.5895388737070175,320,2026-10-07 19:02:10.132244,5.0,0.5588955060526669,0.1561290632219022,0.19277886307008113
60,cdot_cos,Q,P-Q,321,64,54142,-0.0141345484761268,-0.0119149013906139,-0.0635762183287324,0.4211922286722095,839.0,14.152583893168671,0.6878090670923762,12.323204388474169,-0.2603178706952362,0.094,0.9999999999605014,350.9426078778094,1.5945062113150834,321,2026-10-07 19:02:10.226244,5.0,0.5456008795925485,0.7787050559751089,0.6329858846820282
60,cdot_cos,R,Q-R,322,64,54171,0.1825239352213428,0.2384639795487754,0.1966584836974696,0.7277610154243264,839.0,14.23947977053188,0.6885847572577426,12.356303960530282,-0.3816234141928231,0.029,0.999999999960218,-156.3840163427758,1.599473298546655,322,2026-10-07 19:02:10.255244,5.0,0.7276994636261835,2.316135016189585,2.9964095642485526
60,cdot_cos,S,R-S,323,64,54196,-0.0024864721200794,-0.0050606746541377,-0.1850104073414222,0.2839296262954143,839.0,14.286919724107667,0.6888870995857062,12.380909510259082,-0.2092183289296789,0.025,0.9999999999597006,570.2313877927326,1.6044403714030924,323,2026-10-07 19:02:10.280244,5.0,0.4386541944631398,1.7213336851589744,1.8975981430315159
60,cdot_cos,T,S-T,324,64,54448,-0.2992338279471341,0.134846945504922,-0.2967473558270547,0.1848636642269404,839.0,14.32554645478983,0.6890838650222578,12.403601822901466,-0.1708053406814389,0.252,0.9999999999591364,195.22223476556897,1.609408334064874,324,2026-10-07 19:02:10.532243,5.0,0.7986013711014726,0.270762648376863,0.15328067731016906
60,cdot_cos,P,T-P,325,65,54887,0.0412132086687114,-0.0014478631589205,0.3404470366158455,0.8458264372592275,763.0,14.423384098889608,0.6899832748402622,12.438944047863904,-0.4340030742104455,0.439,0.9999999999589184,-292.6338230474128,1.6143770374405964,325,2026-10-07 19:02:10.971244,5.0,0.545287503024858,0.1800672314625836,0.2228647929379912
60,cdot_cos,Q,P-Q,326,65,54984,-0.0196052480879445,-0.0198708993301662,-0.0608184567566559,0.4245573964657306,763.0,14.483645484013978,0.6904341875850297,12.4662102395281,-0.2685714141308581,0.097,0.9999999999583964,366.88175705676497,1.6193443916347974,326,2026-10-07 19:02:11.068243,5.0,0.5401172787013437,0.7532927611713549,0.6212513930347453
60,cdot_cos,R,Q-R,327,65,55008,0.1584478515337453,0.2665493700495787,0.1780530996216899,0.7089449590168312,763.0,14.569522894556853,0.6911863346143787,12.498916973162212,-0.3841541661596899,0.024,0.9999999999580884,-153.6704228279284,1.6243114568876882,327,2026-10-07 19:02:11.092243,5.0,0.7401695805821394,2.832471054983854,3.578225439286431
60,cdot_cos,S,R-S,328,65,55039,-0.0022620007866993,-0.0068449484943102,-0.1607098523204446,0.3092668097707827,763.0,14.619604094653203,0.6915141307924046,12.523950332122634,-0.2249439900755204,0.031,0.9999999999575648,485.698695582658,1.6292785514372126,328,2026-10-07 19:02:11.123244,5.0,0.4927383521730519,1.479576033693362,1.6155225837532465
60,cdot_cos,T,S-T,329,65,55286,-0.2610966258303351,0.0376853502063841,-0.2588346250436358,0.2151473036850432,763.0,14.66125660864584,0.6917420546882462,12.54716123637966,-0.1875970990859408,0.247,0.9999999999569946,163.85684726772493,1.634246515255556,329,2026-10-07 19:02:11.370244,5.0,0.8194840676650658,0.2779275544813934,0.1686336598892147
60,cdot_cos,P,T-P,330,66,55650,0.0330213514103144,0.003035925046273,0.2941179772406495,0.8131470292716498,695.0,14.756900306567012,0.692602646628336,12.581850103859445,-0.4321130390794848,0.364,0.9999999999567468,-284.12529632572205,1.6392149561034075,330,2026-10-07 19:02:11.734244,5.0,0.5678709682820239,0.2158188287191593,0.26275741187135254
60,cdot_cos,Q,P-Q,331,66,55753,-0.0209933746667057,-0.0263696734894263,-0.0540147260770201,0.4328890189716542,695.0,14.818372715953387,0.6930602480728182,12.60922658208957,-0.2789811716999972,0.103,0.9999999999562276,334.64026223252387,1.6441823406966494,331,2026-10-07 19:02:11.837244,5.0,0.5775866630362823,0.7106638867502248,0.596819508605589
60,cdot_cos,R,Q-R,332,66,55775,0.1401279241405769,0.3272716725237965,0.1611212988072827,0.6911724854440656,695.0,14.903297067237558,0.69379009018678,12.641558032055364,-0.3868067849428072,0.022,0.9999999999559024,-147.73827267586088,1.6491493960920744,332,2026-10-07 19:02:11.859244,5.0,0.7567227586218854,3.122691202764044,3.8601977856441203
60,cdot_cos,S,R-S,333,66,55814,-0.0001623302631152,-0.0014211061242059,-0.1402902544036922,0.3314905407185397,695.0,14.955771128875003,0.6941397827164816,12.66696328604216,-0.2399567032381047,0.039,0.99999999995538,419.9405741666852,1.654116522641264,333,2026-10-07 19:02:11.898243,5.0,0.5422729835731749,1.1628062984837966,1.3454887599345
60,cdot_cos,T,S-T,334,66,56045,-0.3118185954185986,-0.0498624118945849,-0.3116562651554834,0.1738934039236519,695.0,14.993995958519294,0.6943231351694076,12.689319323146105,-0.1752693360416317,0.231,0.9999999999547674,352.8033913054901,1.6590844418026642,334,2026-10-07 19:02:12.129244,5.0,0.69137419847711,0.2997600701411896,0.16547545300558716
60,cdot_cos,P,T-P,335,67,56345,0.0447901123315953,-2.801461548080111e-05,0.3566087077501939,0.8560722745832021,798.0,15.094260281280237,0.6952248761498078,12.724806864951908,-0.4610938510662491,0.3,0.9999999999545456,-316.96964121312243,1.6640526509960314,335,2026-10-07 19:02:12.429244,5.0,0.5380070595027203,0.2685876330235034,0.3342144092031418
60,cdot_cos,Q,P-Q,336,67,56441,-0.0186207283820177,-0.0172041083046639,-0.063410840713613,0.4213938282922201,798.0,15.155148538333396,0.6956682008584254,12.751913000965189,-0.2812817678787104,0.096,0.999999999954024,405.599055708458,1.6690200138449178,336,2026-10-07 19:02:12.525243,5.0,0.5276829519691405,0.779345723339255,0.6342526776370779
60,cdot_cos,R,Q-R,337,67,56465,0.1763599615287662,0.2637729094981603,0.1949806899107839,0.726095779659809,798.0,15.243894660161372,0.6964312334497791,12.784882617720443,-0.4114203154977853,0.024,0.9999999999537248,-170.55437617441476,1.6739870767358531,337,2026-10-07 19:02:12.549243,5.0,0.7288296013875015,2.8720285344746577,3.697755076165654
60,cdot_cos,S,R-S,338,67,56494,-0.0024100952915137,-0.0059687123693534,-0.17877005682028,0.2903159034796065,798.0,15.29300590798818,0.6967360156577873,12.809440393647096,-0.2285793947839632,0.029,0.999999999953172,599.9068052846698,1.6789541619538542,338,2026-10-07 19:02:12.578244,5.0,0.4493733825596459,1.5118264214657604,1.6934913043726851
60,cdot_cos,T,S-T,339,67,56724,-0.3130681815880313,0.1070399939404431,-0.3106580862965175,0.1746115356024971,798.0,15.331580592606386,0.6969192447532324,12.831748748634414,-0.179993189379331,0.23,0.9999999999525546,265.1664316008642,1.6839220978528164,339,2026-10-07 19:02:12.808243,5.0,0.7634302021474383,0.3026759904266702,0.16771602007915754
60,cdot_cos,P,T-P,340,68,57143,0.0373378141011065,-0.0020815738579602,0.3504059956891379,0.8522086586904252,780.0,15.432236863584448,0.697812613559973,12.867134808721085,-0.4710175826985429,0.419,0.9999999999523376,-325.76063896946226,1.688890841216544,340,2026-10-07 19:02:13.227243,5.0,0.5390951892633994,0.1941597683583765,0.24022976367079255
60,cdot_cos,Q,P-Q,341,68,57235,-0.0197688056442771,-0.0179746971422323,-0.0571066197453837,0.4290977884436744,780.0,15.494286478490706,0.6982618704306631,12.894341920547856,-0.2916488022096618,0.092,0.9999999999517896,399.2566217481776,1.6938581923431608,341,2026-10-07 19:02:13.319244,5.0,0.5406320583646239,0.824893056223951,0.6744523359375814
60,cdot_cos,R,Q-R,342,68,57264,0.1788240588964643,0.259448525416801,0.1985928645407415,0.7296730338146612,780.0,15.584017185929657,0.6990249519134656,12.927346798478087,-0.4232163962620402,0.029,0.9999999999514833,-172.41617968396815,1.698825274667788,342,2026-10-07 19:02:13.348243,5.0,0.7328051299548022,2.3943373018991467,3.094162325481079
60,cdot_cos,S,R-S,343,68,57291,-0.0034691036198453,-0.0086059132695597,-0.1822931625163096,0.2866999803294843,780.0,15.633158042000856,0.6993244777030864,12.951779764498278,-0.2326778593953964,0.027,0.9999999999509088,636.133994030625,1.7037923496272716,343,2026-10-07 19:02:13.375243,5.0,0.4409189771989993,1.646331703501509,1.820031706340712
60,cdot_cos,T,S-T,344,68,57523,-0.3008158073037476,0.0762082350448142,-0.2973467036839022,0.184412514706464,780.0,15.672919097918736,0.6995170502662656,12.974217703533752,-0.1887327058552171,0.232,0.9999999999502776,228.2004913611028,1.7087603137547016,344,2026-10-07 19:02:13.607244,5.0,0.7922776822694086,0.3026004498812353,0.17138386171500208
60,cdot_cos,P,T-P,345,69,57923,0.0369576841092912,0.0021008477292227,0.3377734914130388,0.8440751613922924,818.0,15.77356465074575,0.7003975759354091,13.009418182038676,-0.4790682134979205,0.4,0.9999999999500464,-329.72974873650264,1.7137290137918255,345,2026-10-07 19:02:14.007244,5.0,0.5455056571896452,0.2042595163490235,0.25161388206753177
60,cdot_cos,Q,P-Q,346,69,58030,-0.0178594242272399,-0.0183953051461993,-0.0548171083365311,0.4319043767584718,818.0,15.836326710997955,0.7008475601293556,13.036631570880502,-0.3000389416241574,0.107,0.999999999949488,397.8568009325559,1.7186964358806436,346,2026-10-07 19:02:14.114244,5.0,0.5506329818560364,0.7052412331755882,0.5865613107682813
60,cdot_cos,R,Q-R,347,69,58058,0.1569769671905503,0.2587608732948482,0.1748363914177902,0.7056151305719693,818.0,15.924486274645323,0.7015818786413299,13.069136209391957,-0.4228685162091932,0.028,0.9999999999491532,-167.27015944999633,1.72366351218223,347,2026-10-07 19:02:14.142244,5.0,0.7479138116153953,2.4984656405869616,3.1485558445488566
60,cdot_cos,S,R-S,348,69,58080,-0.0020311645741907,-0.0054243538374184,-0.159008131764741,0.311087368281576,818.0,15.976240786870823,0.7019052913814803,13.093987272766318,-0.249185792254697,0.022,0.9999999999485764,537.0311753140957,1.7286305632033945,348,2026-10-07 19:02:14.164243,5.0,0.498076843335018,2.0874887552956203,2.3524778284318226
60,cdot_cos,T,S-T,349,69,58322,-0.2987266696008253,0.0930728368960367,-0.2966955050266345,0.1849027341683729,818.0,16.016335779878332,0.7020974244388883,13.116376119975994,-0.1935322525518598,0.242,0.9999999999479262,289.66144844422865,1.733598591637887,349,2026-10-07 19:02:14.406244,5.0,0.7500861138370241,0.2921413849116197,0.16568178928722713
60,cdot_cos,P,T-P,350,70,58741,0.0378598320217829,-2.041268138700917e-05,0.3365865016226081,0.8432924531630033,739.0,16.11763721716805,0.7029727875910388,13.151531948947666,-0.4902925542558377,0.419,0.9999999999476852,-339.01392921892494,1.738567414060757,350,2026-10-07 19:02:14.825243,5.0,0.5459259738258675,0.1959170116184179,0.24176954007092302
