record_id,input,event,transition,event_index,k,peak,value_cos,value_sin,value_return,x_input,rr,knowledge,decision,decision_norm,entropy,delta_t,cosine_similarity,delta_h_over_delta_d,frobenius_norm,matrix_size,timestamp,scale,P,zdot,zdot_back
0401,cdot_cos,Q,P-Q,1,0,898,-0.03672754335996338,-0.047972588504424124,-0.08822789113518036,0.08731552843674653,758.0,0.00043370858752186757,0.5001084271451808,0.5001084271451808,,,1.0,,0.004967141530112327,1,2026-10-07 22:31:16.982244,26.6,,,
0401,cdot_cos,R,Q-R,2,0,928,0.14631525962690942,0.3706795123157488,0.1830428029868728,0.9923770414331422,758.0,0.007584407258201045,0.5013407432373949,0.7090028784565313,-1.0339564176734647e-05,,1.0,,0.009934283060224654,2,2026-10-07 22:31:17.012243,26.6,,,
0401,cdot_cos,S,R-S,3,0,971,0.02453143898180231,-0.0748406728244925,-0.12178382064510711,0.037707856170056654,758.0,0.009613377455835698,0.5013875679534082,0.8684287419786961,-6.292589239776757e-06,0.043,0.9999999999999998,0.08642817899425508,0.014901424596048719,3,2026-10-07 22:31:17.055244,26.6,0.5256427396336444,0.04100245778287687,0.04718535343336403
0401,cdot_cos,T,S-T,4,0,1164,-0.23469828310482072,0.007579424062389457,-0.25922972208662304,0.0010112961890827977,758.0,0.011110618627528455,0.501388823756553,1.002777647513364,-5.595597452241757e-06,0.193,1.0,0.5550167559443009,0.019868566154610613,4,2026-10-07 22:31:17.248243,26.6,0.8828846288848462,0.036030022574308596,0.0077577262782008135
0401,cdot_cos,P,T-P,5,1,1542,0.037539679835928035,0.00018006002674438357,0.27223796294074876,0.9992842973518262,762.0,0.023520966169518816,0.5026296997143955,1.123914176073534,-7.750484434839647e-05,0.378,1.0,-0.05795039096509094,0.024835707800911516,5,2026-10-07 22:31:17.626244,26.6,0.39542139679581806,0.020578491838404614,0.032831607253942754
0401,cdot_cos,Q,P-Q,6,1,1649,-0.05737764788321572,-0.05821062612448775,-0.09491732771914375,0.07413772933073705,762.0,0.026667958457362344,0.5027217602261964,1.2314117951535195,-2.8482312807737913e-05,0.107,1.0,0.5325033565606098,0.029802849377156992,6,2026-10-07 22:31:17.733243,26.6,0.17885909147962298,0.08590452959876702,0.02941114287704232
0401,cdot_cos,R,Q-R,7,1,1680,0.15853698095150387,0.3438621677002958,0.2159146288347196,0.9968061496653364,762.0,0.04190453550365496,0.5039595236441127,1.3333515704138534,-0.00018840597556065954,0.031,1.0,-0.12920373993775694,0.03476999091155803,7,2026-10-07 22:31:17.764243,26.6,0.42791752926547993,0.30246673640794386,0.4915024853642779
0401,cdot_cos,S,R-S,8,1,1728,0.04311178213161646,-0.1221769264197751,-0.11542519881988741,0.04434867511818988,762.0,0.045420896114654864,0.5040145916787462,1.4255685423821813,-5.53720625138439e-05,0.048,0.9999999999999998,2.4158100780640988,0.039737132492041784,8,2026-10-07 22:31:17.812243,26.6,0.09048730245239227,0.06582169860162221,0.07325751272916471
0401,cdot_cos,T,S-T,9,1,1908,-0.17304917694255392,0.01785260768249933,-0.21616095907417038,0.003173057598683553,762.0,0.04822341856941069,0.5040185316810212,1.5120555950576986,-4.732460685338049e-05,0.18,0.9999999999999998,2.042500257306709,0.044704274286038154,9,2026-10-07 22:31:17.992243,26.6,0.8436243053591722,0.05849655606359424,0.015569569193087917
0401,cdot_cos,P,T-P,10,2,2304,0.03625763199894467,0.0020354475044428956,0.20930680894149858,0.9961947501494409,748.0,0.06647965629754879,0.5052554847324714,1.5977581320818512,-0.0003775921100110738,0.396,1.0,-0.26700083949870523,0.049671416621073584,10,2026-10-07 22:31:18.388243,26.6,0.417000697634912,0.02862448846481946,0.04610161042459116
0401,cdot_cos,Q,P-Q,11,2,2417,-0.06041618191874771,-0.06655289092402009,-0.09667381391769238,0.07099376129437335,748.0,0.0708940134335477,0.5053436338433693,1.6760352237363192,-0.00010934675794623096,0.113,1.0000000000000002,3.043086303790657,0.05463855835954667,11,2026-10-07 22:31:18.501244,26.6,0.08602112513968115,0.10926700233485641,0.03906510739822048
0401,cdot_cos,R,Q-R,12,2,2446,0.14177030210416608,0.35750393570947253,0.20218648402291378,0.995404906423286,748.0,0.09117399882522634,0.5065795367526555,1.7548429915643762,-0.0005926172459950827,0.029,0.9999999999999998,-0.3910262565268669,0.05960569986909337,12,2026-10-07 22:31:18.530244,26.6,0.44242468948556457,0.4528349082323185,0.6993098410923667
0401,cdot_cos,S,R-S,13,2,2491,0.06905281841577429,-0.1442228771770942,-0.07271748368839179,0.1262770462282242,748.0,0.09715843811102218,0.5067363179374114,1.8270637775707301,-0.0002032143191302474,0.045,0.9999999999999997,2.483735069812889,0.06457284149366402,13,2026-10-07 22:31:18.575244,26.6,0.14716248622455247,0.1079509057040846,0.132987539684352
0401,cdot_cos,T,S-T,14,2,2683,-0.14431565638530136,0.001966741815963765,-0.21336847480107565,0.003416891116023436,748.0,0.10088958033859395,0.5067405602122046,1.8960495604197398,-0.0001332348758446407,0.192,0.9999999999999999,16.495735589137325,0.06953998383465877,14,2026-10-07 22:31:18.767244,26.6,0.5914171496706698,0.06887934080798089,0.019433032435269653
0401,cdot_cos,P,T-P,15,3,3052,0.07237625568339308,0.003246827963646108,0.21669191206869443,0.9968713023999165,747.0,0.12360810498128684,0.507978191610444,1.9673910765554383,-0.0009195301125223777,0.369,1.0,-0.6353226314363746,0.07450712732632997,15,2026-10-07 22:31:19.136243,26.6,0.4252383353008657,0.038180348464789765,0.06156781745987233
0401,cdot_cos,Q,P-Q,16,3,3162,-0.02446338632914618,-0.03268825358577426,-0.09683964201253925,0.0707033879160161,747.0,0.1290666775056088,0.5080659674431903,2.0322638701633307,-0.00024866376335980304,0.11,1.0,7.642950549969415,0.07947426934359801,16,2026-10-07 22:31:19.246243,26.6,0.06734777249734458,0.13526605082743695,0.04962338658474505
0401,cdot_cos,R,Q-R,17,3,3193,0.15951762235070174,0.40195186515523307,0.18398100867984793,0.9925635306213624,747.0,0.15336663616332297,0.5092981460727922,2.0998900516444454,-0.0012372452453796898,0.031,1.0,-0.802303706841016,0.08444141083896553,17,2026-10-07 22:31:19.277244,26.6,0.44977032716471915,0.46908641699812537,0.783869634119812
0401,cdot_cos,S,R-S,18,3,3250,0.004653903126356661,-0.02025228193202999,-0.15486371922434508,0.015994683230001517,747.0,0.15815003535949257,0.509318001153242,2.1608532748421494,-0.0002686282081117349,0.057,1.0000000000000002,48.784342109232064,0.08940855263641606,18,2026-10-07 22:31:19.334244,26.6,0.027165961991643957,0.0799795013722349,0.08391928414332635
0401,cdot_cos,T,S-T,19,3,3418,-0.39087365008139946,-0.15832909126950173,-0.3955275532077561,2.6962598897560698e-05,747.0,0.16248429931975775,0.5093180346233749,2.220065843556458,-0.0002505296184369622,0.168,1.0,540.7385066449573,0.0943756954850132,19,2026-10-07 22:31:19.502244,26.6,0.9303063696397378,0.09157404010663546,0.025799190239673676
0401,cdot_cos,P,T-P,20,4,3799,0.0471069662806185,0.0005660362669282503,0.43798061636201796,0.99999128350292,763.0,0.18891891283532208,0.5105593179066245,2.2832906834376048,-0.0016744396797801944,0.381,0.9999999999999998,-1.147127396749885,0.09934284078915187,20,2026-10-07 22:31:19.883244,26.6,0.4272525332773375,0.04311784020429331,0.06938218770489327
0401,cdot_cos,Q,P-Q,21,4,3911,-0.046197539896923795,-0.05377443761261439,-0.0933045061775423,0.07713684826054219,763.0,0.19534009355542925,0.5106550622078386,2.3401154776279354,-0.0004447605239821098,0.112,0.9999999999999997,12.843366552411059,0.10430998321406151,21,2026-10-07 22:31:19.995244,26.6,0.06298795101901099,0.15267387071126362,0.05733197071524256
0401,cdot_cos,R,Q-R,22,4,3942,0.15261457266137593,0.3679492654338056,0.19881211255829973,0.9949755501263641,763.0,0.22311785987464514,0.5118899796705765,2.4009768291164515,-0.0020950193648242472,0.031,1.0,-1.336331285803881,0.10927712467197524,22,2026-10-07 22:31:20.026243,26.6,0.4548872151820666,0.5426709141070687,0.8960569780392221
0401,cdot_cos,S,R-S,23,4,4001,0.028827582954428676,-0.08437692228324287,-0.12378698970694725,0.0358213012475938,763.0,0.2289856902300675,0.5119344367905019,2.455151311024321,-0.000478137185327716,0.059,1.0,36.36947652501262,0.1142442666451648,23,2026-10-07 22:31:20.085243,26.6,0.033992064476950586,0.09175724332980004,0.09945475178681995
0401,cdot_cos,T,S-T,24,4,4176,-0.21764489150887056,0.013356420473790698,-0.24647247446329923,0.0014193047589341138,763.0,0.23394521458756154,0.5119361982581356,2.5079649344617985,-0.0004138025695369725,0.175,0.9999999999999998,36.52330281745378,0.1192114104479162,24,2026-10-07 22:31:20.260243,26.6,0.8560112461825546,0.09880148660057494,0.02834013918568016
0401,cdot_cos,P,T-P,25,5,4562,0.025182275206212277,0.0013675132374067229,0.24282716671508284,0.9984364047369653,764.0,0.26356621054026874,0.5131752595275735,2.5658762992128494,-0.002655740338953608,0.386,0.9999999999999997,-1.8093841077235728,0.124178558142679,25,2026-10-07 22:31:20.646244,26.6,0.4299073293103883,0.047552977576546515,0.07673833148369741
0401,cdot_cos,Q,P-Q,26,5,4673,-0.06989681006451604,-0.07201521714674439,-0.09507908527072831,0.07384292345461621,764.0,0.27065611327665545,0.513266892476834,2.6171579026986103,-0.0006825602491263436,0.111,0.9999999999999999,21.533521574401476,0.1291457010570311,26,2026-10-07 22:31:20.757244,26.6,0.05552892833621724,0.17105362445938443,0.0638729976251055
0401,cdot_cos,R,Q-R,27,5,4704,0.14628975835661573,0.3400559591319212,0.21618656842113176,0.9968290963278601,764.0,0.3015401151702521,0.5145037850030655,2.67344009142732,-0.003184179390336215,0.031,1.0,-2.0225032394946147,0.13411284246144517,27,2026-10-07 22:31:20.788243,26.6,0.45582781486836604,0.6251160449703921,0.9962581255998915
0401,cdot_cos,S,R-S,28,5,4749,0.05886097131286117,-0.1443702594168433,-0.08742878704375456,0.08902439094302123,764.0,0.30941330806481976,0.5146142404598074,2.7230826053041435,-0.0008667071278364085,0.045,0.9999999999999998,20.981057259256637,0.13907998429661067,28,2026-10-07 22:31:20.833244,26.6,0.06898393524790294,0.1496986931888569,0.1749598421015038
0401,cdot_cos,T,S-T,29,5,4939,-0.14332281238542693,0.011882723113059358,-0.2021837836982881,0.004595422131051224,764.0,0.3150129975572492,0.5146199421108238,2.771313203925426,-0.0006300256343435967,0.19,1.0000000000000004,41.51104527630684,0.14404712960559143,29,2026-10-07 22:31:21.023244,26.6,0.6868292070913309,0.09967792724613622,0.029472049960154997
0401,cdot_cos,P,T-P,30,6,5326,0.02404310671008871,0.0004641693803072996,0.16736591909551565,0.9884782882904346,748.0,0.3472909204183515,0.5158462800489934,2.8254064410567103,-0.0038513325746276374,0.387,0.9999999999999997,-2.6267693757336747,0.1490142802924569,30,2026-10-07 22:31:21.410244,26.6,0.4332615901263926,0.05193209277268303,0.08340548542920495
0401,cdot_cos,Q,P-Q,31,6,5438,-0.06843857416848635,-0.06946368900334322,-0.09248168087857506,0.07870941541021473,748.0,0.3552084373633059,0.5159439214723045,2.872654183570023,-0.0010020229180167353,0.112,1.0,29.181361352458488,0.15398142387204306,31,2026-10-07 22:31:21.522244,26.6,0.05821819331562473,0.1857478545643176,0.07069211557994956
0401,cdot_cos,R,Q-R,32,6,5466,0.1465018784708931,0.35094198180402725,0.21494045263937944,0.9967225802980505,748.0,0.38889843984075867,0.5171802783324436,2.9256134599728827,-0.00451552094914077,0.028,0.9999999999999998,-2.8418154534514244,0.15894856512098426,32,2026-10-07 22:31:21.550244,26.6,0.45928074193125507,0.756021071548591,1.2032143741947428
0401,cdot_cos,S,R-S,33,6,5522,0.06030974557663407,-0.13338477109268135,-0.08619213289425903,0.09172845673325675,748.0,0.39754561737002697,0.5172940500125022,2.9716280817560863,-0.001224917639562093,0.056,0.9999999999999998,28.922868220678904,0.16391570741741976,33,2026-10-07 22:31:21.606244,26.6,0.06812660972808941,0.13141536876668267,0.15441388445121967
0401,cdot_cos,T,S-T,34,6,5695,-0.15545263016223068,0.004339719869648997,-0.21576237573886475,0.003206769877255694,748.0,0.40361696114262713,0.5172980273674092,3.0163399178561945,-0.0008761327590399091,0.173,0.9999999999999998,87.69267231093669,0.16888285365849165,34,2026-10-07 22:31:21.779244,26.6,0.6715976020401544,0.11917208125730028,0.03509447267398935
0401,cdot_cos,P,T-P,35,7,6074,0.05235830964817504,0.00044767120847783056,0.20781093981040571,0.996040897652348,760.0,0.43877915748505286,0.5185333077650904,3.0676844246965156,-0.005334329046335227,0.379,0.9999999999999996,-3.6090561265796017,0.17385000762706795,35,2026-10-07 22:31:22.158243,26.6,0.4335466953677259,0.057248178120682225,0.0927762436475613
0401,cdot_cos,Q,P-Q,36,7,6184,-0.04643211501878055,-0.050402690917352104,-0.09879042466695559,0.06736895957640505,760.0,0.44701108015810426,0.5186168500951543,3.111701108167565,-0.0013131496508240843,0.11,0.9999999999999997,48.1334359771245,0.17881715191517936,36,2026-10-07 22:31:22.268243,26.6,0.04678278401426246,0.2023181798133085,0.07483566066410359
0401,cdot_cos,R,Q-R,37,7,6213,0.16745481743963458,0.37541609744469306,0.21388693245841514,0.9966297499734178,760.0,0.48328915704398073,0.5198526181921339,3.1621400353407605,-0.006076685115241708,0.029,0.9999999999999996,-3.854716330726256,0.18378429311379785,37,2026-10-07 22:31:22.297244,26.6,0.45662005616946016,0.7459569177837271,1.250968168478499
0401,cdot_cos,S,R-S,38,7,6263,0.013385020222825035,-0.04993448089759043,-0.15406979721680955,0.01633048129652341,760.0,0.49027658138956043,0.5198728651425947,3.2047115778427835,-0.001224842775856996,0.05,0.9999999999999996,239.63324001736447,0.1887514353752328,38,2026-10-07 22:31:22.347244,26.6,0.019040327891014484,0.1340225210482715,0.13974848691159392
0401,cdot_cos,T,S-T,39,7,6455,-0.30991550484342034,-0.05461012074940836,-0.3233005250662454,0.00018410982681809948,760.0,0.4966914091488079,0.5198730934063183,3.2466064361667204,-0.0011399505078284473,0.192,0.9999999999999999,371.9043336960758,0.19371858397027578,39,2026-10-07 22:31:22.539244,26.6,0.9282351955379555,0.11498983746469013,0.033410561246080495
0401,cdot_cos,P,T-P,40,8,6834,0.07158393891986357,0.004498617699939218,0.38149944376328393,0.9999608427262965,765.0,0.5344326789760014,0.5211127436059333,3.295806384687852,-0.007005464843739727,0.379,0.9999999999999993,-4.731588263957695,0.19868574180515092,40,2026-10-07 22:31:22.918243,26.6,0.432887688721907,0.061234805598536515,0.09958118687913867
0401,cdot_cos,Q,P-Q,41,8,6947,-0.029270679568628277,-0.03860653310960252,-0.10085461848849185,0.06399997252348058,765.0,0.5431073917924986,0.5211920756012778,3.337257623752092,-0.0016826438868832569,0.113,0.9999999999999992,67.09551340216242,0.20365288706733797,41,2026-10-07 22:31:23.031244,26.6,0.0422831134111026,0.20904964141843063,0.07676737005749665
0401,cdot_cos,R,Q-R,42,8,6975,0.16083720054583597,0.37121379993997833,0.19010788011446425,0.9936748080171502,765.0,0.5816778979365668,0.5224236584777646,3.3856922781433534,-0.007807916306914583,0.028,0.9999999999999994,-4.973495927049612,0.20862002809048488,42,2026-10-07 22:31:23.059244,26.6,0.45635003512983185,0.8257327843588057,1.3775180765738644
0401,cdot_cos,S,R-S,43,8,7023,0.02177226886744873,-0.06358520702517972,-0.13906493167838724,0.024147580360069393,765.0,0.5893484277165917,0.5224535841990322,3.4259572730996037,-0.0016165899140660864,0.048,0.9999999999999991,206.88979682352152,0.21358717039857428,43,2026-10-07 22:31:23.107244,26.6,0.021712475956761693,0.15109839025074603,0.15980270375051905
0401,cdot_cos,T,S-T,44,8,7212,-0.25409554584197797,0.01086205246933575,-0.2758678147094267,0.0006498727683087087,765.0,0.5961833434006384,0.5224543895740333,3.4655703737727883,-0.0014583243980829668,0.189,0.9999999999999991,196.51158250541852,0.21855432076556397,44,2026-10-07 22:31:23.296243,26.6,0.8971559361368461,0.12404456579048424,0.036163575047866166
0401,cdot_cos,P,T-P,45,9,7599,0.09114663119979695,0.003695855803307596,0.3452421770417749,0.9998972842024318,760.0,0.6362372735853947,0.5236934025070286,3.5130421568563492,-0.008882032018301171,0.387,0.9999999999999992,-5.991630452373045,0.2235214834871853,45,2026-10-07 22:31:23.683244,26.6,0.43352238302647383,0.06230931298501974,0.1034985276091895
0401,cdot_cos,Q,P-Q,46,9,7712,-0.034755118128699004,-0.04381663277858698,-0.12590174932849596,0.033928367145251284,760.0,0.6444107516510437,0.5237354394822135,3.552146592512652,-0.0018833951919089687,0.113,0.999999999999999,166.48764083544495,0.2284886297094365,46,2026-10-07 22:31:23.796243,26.6,0.024331869195827433,0.21672127003488417,0.07233166429777825
0401,cdot_cos,R,Q-R,47,9,7740,0.15554752276506925,0.36635766782430196,0.19030264089376825,0.993707286134821,760.0,0.6852162806132785,0.5249664832071669,3.5989889046612524,-0.009759986584641417,0.028,0.9999999999999991,-6.39830351519845,0.23345577057797864,47,2026-10-07 22:31:23.824243,26.6,0.44618174234711633,0.8871858532600486,1.4573403200798172
0401,cdot_cos,S,R-S,48,9,7799,0.04261118646091643,-0.10242202266473434,-0.11293633630415281,0.04724069757235445,760.0,0.6940931594336064,0.5250249994077468,3.6374799159642155,-0.0022025069026575758,0.059,0.9999999999999989,129.15192044394863,0.23842291380776137,48,2026-10-07 22:31:23.883244,26.6,0.03234460448443995,0.1370542039500018,0.15045557322589556
0401,cdot_cos,T,S-T,49,9,7973,-0.17626999443079547,0.013550794392174046,-0.2188811808917119,0.0029522254488988735,760.0,0.7013886766793788,0.5250286562533983,3.675200613326785,-0.0018313663749590181,0.174,0.9999999999999988,101.49198600852108,0.24339006522070913,49,2026-10-07 22:31:24.057244,26.6,0.816557687788067,0.14210826229854973,0.041928260033174576
0401,cdot_cos,P,T-P,50,10,8359,0.049784547253460314,0.001673585138485093,0.2260545416842558,0.9975593586682998,731.0,0.7435468347135017,0.5262641511421648,3.721249520994086,-0.010955057779806541,0.386,0.9999999999999987,-7.384645203960674,0.2483572328948126,50,2026-10-07 22:31:24.443244,26.6,0.43481738307506873,0.0669871342934249,0.10921802599513712
0401,cdot_cos,Q,P-Q,51,10,8466,-0.05311724739355631,-0.05556033100406249,-0.10290179464701663,0.06081433009651494,731.0,0.7531027443539028,0.5263394605183492,3.758815611921318,-0.0025719933527522504,0.107,0.9999999999999988,111.31501616119473,0.25332437974717087,51,2026-10-07 22:31:24.550244,26.6,0.038412792653952116,0.2456261245853678,0.08930756673272051
0401,cdot_cos,R,Q-R,52,10,8498,0.15061058194201682,0.37851808044688834,0.20372782933557312,0.9955886801068319,731.0,0.7961108253747704,0.5275721740712108,3.8043770768395784,-0.011979074101984365,0.032,0.9999999999999986,-7.6311976350018895,0.25829152080286905,52,2026-10-07 22:31:24.582243,26.6,0.4559861654415684,0.8160407134166214,1.344002531902113
0401,cdot_cos,S,R-S,53,10,8554,0.03509596468359004,-0.0815880046579509,-0.11551461725842678,0.04424797773025265,731.0,0.8053293500125666,0.5276269531442426,3.841182226198125,-0.0026541701798682227,0.056,0.9999999999999986,170.22748662999575,0.26325866412918353,53,2026-10-07 22:31:24.638243,26.6,0.02979832933078856,0.15002332802163873,0.16461651138921704
0401,cdot_cos,T,S-T,54,10,8732,-0.24336114501643627,-0.11419223075068706,-0.2784571097000263,0.0006066455058660822,731.0,0.8129134381131939,0.5276277041678092,3.8772559754055687,-0.002206498327459684,0.178,0.9999999999999984,596.0822965831657,0.26822581805573004,54,2026-10-07 22:31:24.816243,26.6,0.8163697363993525,0.1457810365303321,0.042607236520378566
0401,cdot_cos,P,T-P,55,11,9090,0.048129150540913074,0.0026771663180581652,0.29149029555734934,0.9995710074248138,733.0,0.8572273990173648,0.5288649948272716,3.9221678041058285,-0.013302351031461431,0.358,0.9999999999999981,-8.967862659549686,0.2731929888095657,55,2026-10-07 22:31:25.174243,26.6,0.4342533361504614,0.07739361995771313,0.12378201369880122
0401,cdot_cos,Q,P-Q,56,11,9202,-0.03889138083210237,-0.0478927408415877,-0.08702053137301544,0.08990903373558641,733.0,0.8683272700029165,0.5289762690207119,3.958495963309038,-0.0034424700822781725,0.112,0.9999999999999982,88.60887366905122,0.278160137322398,56,2026-10-07 22:31:25.286243,26.6,0.05702942935074028,0.2503492157394079,0.09910599094242645
0401,cdot_cos,R,Q-R,57,11,9232,0.15055833846840394,0.40571624082185925,0.1894497193005063,0.9935638163699618,733.0,0.9133056233429921,0.5302057400414354,4.002965589899124,-0.014398539702939028,0.03,0.999999999999998,-8.911206068292646,0.2831272781228515,57,2026-10-07 22:31:25.316243,26.6,0.4672385527431746,0.9037719871562396,1.499278444669187
0401,cdot_cos,S,R-S,58,11,9283,0.024287526938248486,-0.06153317384325511,-0.12627081153015546,0.03360805938476332,733.0,0.9225535892322909,0.5302473215183665,4.038243326823881,-0.0030505481485820045,0.051,0.9999999999999979,272.90977598403896,0.2880944213112846,58,2026-10-07 22:31:25.367244,26.6,0.02423434565875606,0.16846646687055095,0.18133266449605434
0401,cdot_cos,T,S-T,59,11,9458,-0.26678035100795383,-0.08481462264105716,-0.2910678779462023,0.00043383794793282193,733.0,0.9304892029637883,0.5302478582804031,4.07291111870126,-0.002642154467013689,0.175,0.9999999999999978,760.8468068239351,0.2930615774370992,59,2026-10-07 22:31:25.542243,26.6,0.8567848558780619,0.1550197401538903,0.0453463641799853
0401,cdot_cos,P,T-P,60,12,9823,0.0603567913718167,0.00012928743856311224,0.32713714237977054,0.9998337493970597,740.0,0.9768104982861525,0.531484705027756,4.11686286227654,-0.01586933482178542,0.365,0.9999999999999978,-10.694275893986367,0.29802875471181567,60,2026-10-07 22:31:25.907244,26.6,0.4345233231840039,0.07833313195895715,0.1269076584174361
0401,cdot_cos,Q,P-Q,61,12,9936,-0.036298792435143765,-0.04989741937048854,-0.09665558380696046,0.07102575025347506,740.0,0.9876723892938271,0.5315725530685798,4.1517144062690665,-0.0038326849082984974,0.113,0.9999999999999978,137.0167143242068,0.30299590470738214,61,2026-10-07 22:31:26.020243,26.6,0.0432599997858626,0.2555649380174672,0.0961229292714561
0401,cdot_cos,R,Q-R,62,12,9965,0.14935283876215935,0.39246244939498437,0.1856516311973031,0.9928844614957146,740.0,1.0345681742781,0.5328003926598497,4.19527453487322,-0.017028569862376865,0.029,0.9999999999999976,-10.747238521955563,0.30796304527786705,62,2026-10-07 22:31:26.049243,26.6,0.4607377816733552,0.9766429377525659,1.6170960339404499
0401,cdot_cos,S,R-S,63,12,10018,0.026313086853883658,-0.06854128935059568,-0.1230397519082757,0.03651416914718189,740.0,1.0443176796834759,0.5328455400217466,4.229330406331862,-0.0036393146536172344,0.053,0.9999999999999968,296.56783134626954,0.31293018901336317,63,2026-10-07 22:31:26.102243,26.6,0.025246707793463243,0.1701324390846439,0.1839529321769015
0401,cdot_cos,T,S-T,64,12,10207,-0.24528567449055486,-0.007992829287536684,-0.2715987613444385,0.0007279666774593041,740.0,1.0526022128210724,0.5328464400990645,4.262771569587481,-0.0031192928786172133,0.189,0.999999999999997,577.7523382248787,0.317897349492793,64,2026-10-07 22:31:26.291244,26.6,0.8464438347703679,0.14948801792835995,0.043833508664531604
0401,cdot_cos,P,T-P,65,13,10563,0.0488050911480234,-0.0006118142442877143,0.2940907656385783,0.9995996673689385,733.0,1.100824150460396,0.5340821674367774,4.305908145229864,-0.018639602037626445,0.356,0.999999999999997,-12.559655099752026,0.32286453192106485,65,2026-10-07 22:31:26.647244,26.6,0.4348942466537015,0.08339838216975322,0.13545488100933592
0401,cdot_cos,Q,P-Q,66,13,10674,-0.0499324619662963,-0.059999071764639596,-0.0987375531143197,0.06745737696014976,733.0,1.1119818609259366,0.5341655448527456,4.339581460945392,-0.004431701008399496,0.111,0.9999999999999967,170.40466970871142,0.32783168313314703,66,2026-10-07 22:31:26.758244,26.6,0.04051957357376088,0.2701089157656451,0.1005199141039703
0401,cdot_cos,R,Q-R,67,13,10703,0.1421980066392748,0.36881279787194815,0.1921304686055711,0.9940041300132026,733.0,1.1607883297603692,0.5353939116433488,4.382388101033013,-0.019903789930933936,0.029,0.9999999999999963,-12.59565875672718,0.332798823551956,67,2026-10-07 22:31:26.787244,26.6,0.4596252196566958,1.058518020582249,1.6829816839459486
0401,cdot_cos,S,R-S,68,13,10758,0.058156721353357727,-0.12067738322795139,-0.08404128528591706,0.09660772295636576,733.0,1.173375906119707,0.5355132745321414,4.415955652211942,-0.0052718326953700816,0.055,0.9999999999999964,122.58380626991782,0.33776596794326474,68,2026-10-07 22:31:26.842243,26.6,0.06231848008964178,0.19294835619017014,0.22886502471523523
0401,cdot_cos,T,S-T,69,13,10929,-0.202227913277193,-0.009655207715273806,-0.2603846346305507,0.0009807308555694833,733.0,1.1820126489412879,0.5355144862453619,4.448317473990518,-0.0036500640788365017,0.171,0.9999999999999963,1338.4096080192821,0.3427331290660302,69,2026-10-07 22:31:27.013243,26.6,0.641265078442051,0.1714863750573355,0.05050726796246069
0401,cdot_cos,P,T-P,70,14,11296,0.03229858121996197,0.002229358840474575,0.23452649449715496,0.9980508381465832,728.0,1.2320242463893158,0.5367473788585204,4.490750830165096,-0.021654441655653122,0.367,0.9999999999999961,-14.603362356670921,0.3477003200063738,70,2026-10-07 22:31:27.380243,26.6,0.4354216541681739,0.08322803906568134,0.1362713826921743
0401,cdot_cos,Q,P-Q,71,14,11410,-0.07449549705660247,-0.08332691701761057,-0.10679407827656444,0.05516286996083353,728.0,1.243102029615498,0.5368155086139352,4.523287953528264,-0.00491783360140223,0.114,0.9999999999999959,245.6578326510722,0.35266747330309584,71,2026-10-07 22:31:27.494244,26.6,0.03326504478493116,0.27081778964917663,0.09717353707177312
0401,cdot_cos,R,Q-R,72,14,11439,0.12599624284684133,0.3535166667784404,0.2004917399034438,0.9951940369512137,728.0,1.2937707024293281,0.5380443998576364,4.565458204770087,-0.023046294283890788,0.029,0.9999999999999957,-14.751883680031098,0.35763461356745574,72,2026-10-07 22:31:27.523244,26.6,0.4553856408243361,1.3897486170136595,1.7471956142700047
0401,cdot_cos,S,R-S,73,14,11498,0.12515847055021304,-0.21205891691395298,-0.0008377722966282919,0.4944290447747486,728.0,1.3237074494022902,0.5386547626729831,4.602268390161843,-0.014046520587841773,0.059,0.9999999999999958,14.744957375782482,0.36260175919342424,73,2026-10-07 22:31:27.582243,26.6,0.5269171480727483,0.33138868844397723,0.5074024910671545
0401,cdot_cos,T,S-T,74,14,11662,-0.09216571343814554,-0.006176258871450863,-0.21732418398835857,0.0030766783702355933,728.0,1.3328745676657174,0.5386585604103009,4.633716226607441,-0.004365526596692882,0.164,0.9999999999999951,2549.1478690898616,0.36756892289947196,74,2026-10-07 22:31:27.746243,26.6,0.10887002860843495,0.18392028118233827,0.05589706258187316
0401,cdot_cos,P,T-P,75,15,12024,0.05535013119425888,0.0037631678376921873,0.1475158446324044,0.980619582829659,744.0,1.3840333016300972,0.5398687697495893,4.675400780819518,-0.024906296750849412,0.362,0.9999999999999949,-16.97290665946651,0.3725361220978061,75,2026-10-07 22:31:28.108243,26.6,0.4383568513093093,0.08959222408641815,0.14132246951486122
0401,cdot_cos,Q,P-Q,76,15,12136,-0.025552778038314062,-0.03588176041923334,-0.08090290923257294,0.1041428564849186,744.0,1.3977393379042842,0.5399972679276311,4.707587142246009,-0.006831719467546645,0.112,0.9999999999999948,140.6601833484216,0.3775032773304831,76,2026-10-07 22:31:28.220243,26.6,0.07095673625772955,0.2951314815456348,0.1223753238766695
0401,cdot_cos,R,Q-R,77,15,12166,0.15566107108348723,0.40358298177156804,0.1812138491218013,0.9920000541315512,744.0,1.4501427534963194,0.541220992672838,4.749195041152775,-0.026730329485400606,0.03,0.9999999999999943,-16.260691054744413,0.3824704177394015,77,2026-10-07 22:31:28.250243,26.6,0.47500940330250674,1.0469642785689108,1.746780519734507
0401,cdot_cos,S,R-S,78,15,12225,0.015451813594262826,-0.03801219078586789,-0.14020925748922441,0.023440594668553333,744.0,1.4605571946184188,0.5412499028828032,4.78018981652087,-0.005429401404493755,0.059,0.9999999999999942,736.7960352603345,0.3874375640534927,78,2026-10-07 22:31:28.309243,26.6,0.019776610150444296,0.16748835063223041,0.17651595122202438
0401,cdot_cos,T,S-T,79,15,12402,-0.28133782801964374,0.004368298501085382,-0.2967896416139066,0.00037261041543893065,744.0,1.4699063788709226,0.5412503624356836,4.810738557050569,-0.004907140851073204,0.177,0.9999999999999934,1136.453661105152,0.39240473332055315,79,2026-10-07 22:31:28.486243,26.6,0.8990391598395167,0.1780958859721217,0.05282025001414548
0401,cdot_cos,P,T-P,80,16,12768,0.06295006265340554,1.0283524166126524e-05,0.34428789067304927,0.9998946437668853,729.0,1.52360313825255,0.5424833106940881,4.852118351936645,-0.028778395998260237,0.366,0.9999999999999937,-19.36111672526969,0.39737194118655017,80,2026-10-07 22:31:28.852243,26.6,0.4362737982278333,0.09146015663979352,0.14671245732685062
0401,cdot_cos,Q,P-Q,81,16,12876,-0.026826761154503474,-0.03673279625400299,-0.08977682380790901,0.08408745374771935,729.0,1.5368552135312514,0.5425869735923029,4.883282892492062,-0.007260939233782763,0.108,0.999999999999993,207.5714371778684,0.4023390973876524,81,2026-10-07 22:31:28.960243,26.6,0.05164026223866363,0.31163924194060166,0.12270440072871792
0401,cdot_cos,R,Q-R,82,16,12906,0.15281683196201198,0.3827786777106918,0.17964359311651545,0.9916616744880373,729.0,1.5909172145117199,0.5438092121611244,4.924401992237022,-0.030259717955094155,0.03,0.9999999999999929,-18.81693092330292,0.4073062375856756,82,2026-10-07 22:31:28.990243,26.6,0.46764489741012333,1.2101094095422114,1.8020666993489476
0401,cdot_cos,S,R-S,83,16,12949,0.09977297457116967,-0.15742173363050344,-0.05304385739084232,0.1960816418947985,729.0,1.609461778103784,0.5440508238694816,4.956539029642956,-0.010619852342243118,0.043,0.9999999999999923,81.28689518564805,0.41227338097715305,83,2026-10-07 22:31:29.033243,26.6,0.1573387861274323,0.33006574196250266,0.43126892074568013
0401,cdot_cos,T,S-T,84,16,13146,-0.10924500103527715,-0.004022437971735071,-0.2090179756064468,0.003834485519503555,729.0,1.619302868320495,0.5440555485144578,4.986351603254347,-0.005685639563213791,0.197,0.9999999999999919,1044.356306946275,0.41724055862681575,84,2026-10-07 22:31:29.230243,26.6,0.4198583974739495,0.16372092946380065,0.04995477267365979
0401,cdot_cos,P,T-P,85,17,13497,0.04522534744084429,0.0024299050236941252,0.15447034847612146,0.9838397939551612,731.0,1.6739678243125216,0.5452675181611671,5.027118271211229,-0.03219931093660031,0.351,0.9999999999999918,-21.8765143544435,0.4222077722529691,85,2026-10-07 22:31:29.581243,26.6,0.4389263866602942,0.09661574074121382,0.15574061536189882
0401,cdot_cos,Q,P-Q,86,17,13612,-0.05057936696818653,-0.058991913519893656,-0.09580471440903082,0.07253368485435771,731.0,1.6871271183208272,0.545356849695347,5.057431532683167,-0.007910598411293119,0.115,0.9999999999999908,271.8940489300834,0.42717493212737395,86,2026-10-07 22:31:29.696243,26.6,0.046402524626356724,0.2995903182867813,0.11442864355048367
0401,cdot_cos,R,Q-R,87,17,13640,0.13126959456641993,0.36677141646031386,0.18184896153460645,0.9921330156202665,731.0,1.7428735975184813,0.5465784522134751,5.098144576328528,-0.03418305366061842,0.028,0.9999999999999906,-21.506549683266655,0.4321420716757874,87,2026-10-07 22:31:29.724244,26.6,0.46367041887401245,1.3209252382059713,1.9909456856305026
0401,cdot_cos,S,R-S,88,17,13694,0.07343929148928201,-0.139247048149165,-0.05783030307713792,0.17678456909466664,731.0,1.7610989316603616,0.5467960666784438,5.12940194806496,-0.011415627428231137,0.054,0.9999999999999898,104.62276133923916,0.4371092180352063,88,2026-10-07 22:31:29.778244,26.6,0.13609410790671125,0.2616250798004131,0.33750618781259856
0401,cdot_cos,T,S-T,89,17,13885,-0.18215824843382156,-0.014794100207765977,-0.2555975399231036,0.0011137651820143344,731.0,1.7711291061369259,0.5467974376205382,5.1584768829859815,-0.006333161921747564,0.191,0.9999999999999893,3707.279488486871,0.44207639878567545,89,2026-10-07 22:31:29.969243,26.6,0.4481997507413982,0.1754812428935081,0.052514002495101
0401,cdot_cos,P,T-P,90,18,14228,0.08255460125895499,0.005937499470490516,0.26471284969277653,0.9991258305772541,744.0,1.8281327664456817,0.5480269808602858,5.199040620860338,-0.03665854136139156,0.343,0.9999999999999891,-24.663938981007522,0.44704361952159544,90,2026-10-07 22:31:30.312243,26.6,0.4372548301649542,0.10140805690225625,0.16619142947159127
0401,cdot_cos,Q,P-Q,91,18,14339,-0.02707044015458604,-0.03789263314810508,-0.10962504141354103,0.05136699787628917,744.0,1.8406950331718737,0.548090178352543,5.22844727617527,-0.008234622240650039,0.111,0.9999999999999886,449.76340208310756,0.4520107806621746,91,2026-10-07 22:31:30.423244,26.6,0.03168989226019494,0.315204061295341,0.1131735741098377
0401,cdot_cos,R,Q-R,92,18,14369,0.161216363520334,0.41675286335658585,0.18828680367492004,0.9933629530300716,744.0,1.8981080680532474,0.5493120184498762,5.268816000450628,-0.038333874519083794,0.03,0.9999999999999878,-24.63436283039768,0.4569779205278401,92,2026-10-07 22:31:30.453243,26.6,0.4560345064258786,1.1405098147599824,1.9137678293791243
0401,cdot_cos,S,R-S,93,18,14414,0.004486607049598881,-0.022762562294514063,-0.15672975647073512,0.015231941204131147,744.0,1.9091256220574726,0.5493307492033029,5.297554110525617,-0.007490850034292571,0.045,0.9999999999999873,1646.6515671906996,0.4619450648957965,93,2026-10-07 22:31:30.498244,26.6,0.016286373438794948,0.23617356185940963,0.24483453342722702
0401,cdot_cos,T,S-T,94,18,14606,-0.3884543438167446,-0.1852312172865857,-0.39294095086634345,2.888297674283037e-05,744.0,1.9193636886205943,0.5493307847206336,5.325959775294874,-0.006999737627893393,0.192,0.9999999999999861,13827.401937550821,0.46691225023733285,94,2026-10-07 22:31:30.690243,26.6,0.9322432085343336,0.17925495795160484,0.05332326334959193
0401,cdot_cos,P,T-P,95,19,14972,0.06387171107830074,-0.0008929409026881134,0.45232605489504535,0.999994048569884,742.0,1.9779595259108889,0.5505601713489208,5.3661969920572075,-0.040761867726298126,0.366,0.9999999999999865,-27.462581194203054,0.4718794861969586,95,2026-10-07 22:31:31.056243,26.6,0.43680111202416955,0.09948305728067847,0.1600979160937011
0401,cdot_cos,Q,P-Q,96,19,15078,-0.028482480686715144,-0.036373497713364164,-0.09235419176501589,0.07895567806361911,742.0,1.992185286550051,0.5506572128781795,5.395317031514612,-0.010080579388843023,0.106,0.999999999999985,316.16657911128857,0.47684664792534726,96,2026-10-07 22:31:31.162244,26.6,0.047662818974959734,0.3453883112592772,0.13420528904869844
0401,cdot_cos,R,Q-R,97,19,15108,0.16633313643210382,0.3837156688793984,0.19481561711881895,0.994415140083757,742.0,2.0511818478978556,0.5518790795890401,5.435378837787946,-0.042555291125254795,0.03,0.9999999999999849,-26.577949499530177,0.48181378753385334,97,2026-10-07 22:31:31.192243,26.6,0.46621048025745715,1.173791086788286,1.9665520449268246
0401,cdot_cos,S,R-S,98,19,15167,0.015978497831636743,-0.04763789269121079,-0.15035463860046708,0.01799622061886338,742.0,2.062612751757348,0.5519011863430944,5.463543259832515,-0.008388857949911411,0.059,0.9999999999999838,1545.5201198480029,0.4867809364212263,98,2026-10-07 22:31:31.251244,26.6,0.017029044892582657,0.18598684450111458,0.19374413321173584
0401,cdot_cos,T,S-T,99,19,15345,-0.28021283233463945,-0.001841125987400045,-0.2961913301662762,0.0003785857192370068,742.0,2.073128295548987,0.551901651399726,5.49135236012312,-0.0077582658054919035,0.178,0.9999999999999828,1355.946999795995,0.491748122009568,99,2026-10-07 22:31:31.429244,26.6,0.9219354777376314,0.19838041940688614,0.05907608871707362
0401,cdot_cos,P,T-P,100,20,15714,0.0499756674717328,0.001415124987527374,0.33018849980637227,0.9998467082206902,759.0,2.1332361810661995,0.5531295490534929,5.531295766871863,-0.04508077656241553,0.369,0.9999999999999828,-30.39545734323088,0.49671536882806083,100,2026-10-07 22:31:31.798244,26.6,0.4369646352870971,0.10307761674723087,0.1628939986916324
0401,cdot_cos,Q,P-Q,101,20,15826,-0.029929458148258238,-0.0395393222469403,-0.07990512561999104,0.10664520343311717,759.0,2.1491995767084435,0.5532604805485252,5.560199320307516,-0.01218834385365318,0.112,0.999999999999981,251.21864453353686,0.5016825345653632,101,2026-10-07 22:31:31.910244,26.6,0.06729432169411191,0.34095324159583557,0.14253031823432166
0401,cdot_cos,R,Q-R,102,20,15856,0.1544694254244635,0.3758336321267674,0.18439888357272174,0.9926451281989647,759.0,2.2096097071836667,0.5544788237920247,5.599961931668713,-0.04692188982035187,0.03,0.9999999999999806,-28.50883456039054,0.5066496738962494,102,2026-10-07 22:31:31.940243,26.6,0.47699854515987494,1.2039611755913913,2.013671015840772
0401,cdot_cos,S,R-S,103,20,15913,0.008701501392278304,-0.03330271735670792,-0.14576792403218522,0.020284070678038436,759.0,2.221437247243927,0.5545037130862467,5.6275983702186245,-0.009338860107916905,0.057,0.9999999999999798,1510.0078522631022,0.5116168227653011,103,2026-10-07 22:31:31.997243,26.6,0.01787467924473773,0.19826584510495346,0.2075007028115846
0401,cdot_cos,T,S-T,104,20,16083,-0.2917368135428503,-0.043132961371970445,-0.3004383149351286,0.0003381579741804179,759.0,2.2322120135256314,0.554504128016093,5.65485505554625,-0.008550999510128776,0.17,0.9999999999999789,1898.7802513850756,0.5165840100848498,104,2026-10-07 22:31:32.167244,26.6,0.9119805030250386,0.21285934017876934,0.06338097812767278
0401,cdot_cos,P,T-P,105,21,16473,0.043567163305594146,0.0004295331256731708,0.33530397684844443,0.9998662073822739,751.0,2.2938094229047086,0.5557306588089038,5.694545030996159,-0.049651719418417374,0.39,0.999999999999978,-33.50973342796954,0.5215512748595567,105,2026-10-07 22:31:32.557244,26.6,0.4370182184611778,0.09834847619012717,0.15794207533096719
0401,cdot_cos,Q,P-Q,106,21,16585,-0.047008610886196,-0.05437820902900216,-0.09057577419179014,0.08246508867420226,751.0,2.3089238249539306,0.5558317882123732,5.722638877083055,-0.012389168857063024,0.112,0.9999999999999768,368.46405973934736,0.5265184429102963,106,2026-10-07 22:31:32.669244,26.6,0.049406586246529174,0.3441466343183057,0.13495001829662487
0401,cdot_cos,R,Q-R,107,21,16613,0.14987428205761638,0.35690692766541227,0.1968828929438124,0.9947123776931712,751.0,2.370898268992009,0.5570512669731399,5.762183484562666,-0.05162203849678389,0.028,0.9999999999999766,-32.17183513311519,0.5314855811803693,107,2026-10-07 22:31:32.697243,26.6,0.4676653364169565,1.3657873108192427,2.2133730013599466
0401,cdot_cos,S,R-S,108,21,16670,0.05083813262941774,-0.11774420001242149,-0.09903614942819863,0.06695944217646109,751.0,2.385407914359808,0.557133332119254,5.789899801713169,-0.01228296686893962,0.057,0.9999999999999749,479.3639381712167,0.5364527306528774,108,2026-10-07 22:31:32.754244,26.6,0.04065092550350636,0.22468628543516891,0.254555181891212
0401,cdot_cos,T,S-T,109,21,16843,-0.1895669957728364,0.004256927752341842,-0.24040512840225414,0.0016674741518497432,751.0,2.3965125055316183,0.5571353757271704,5.81666446840074,-0.009451074518442256,0.173,0.9999999999999738,1385.7317383177472,0.5414199235236619,109,2026-10-07 22:31:32.927244,26.6,0.7410871288754439,0.21403040571849472,0.06418838827635939
0401,cdot_cos,P,T-P,110,22,17224,0.04059167755954011,0.00184012843762029,0.2301586733323765,0.9978112220125813,728.0,2.4594624347384073,0.5583579149180788,5.856107610690732,-0.05437500979327892,0.381,0.9999999999999736,-36.74641730009112,0.5463871968141455,110,2026-10-07 22:31:33.308243,26.6,0.4377150432141664,0.10288695829027468,0.16522291130390812
0401,cdot_cos,Q,P-Q,111,22,17335,-0.050173073923822406,-0.06279814726103033,-0.09076475148336252,0.08208553560890475,728.0,2.4749123677488076,0.5584584565568547,5.883725365498424,-0.013560188261999631,0.111,0.9999999999999718,405.9494357585041,0.5513543669927389,111,2026-10-07 22:31:33.419244,26.6,0.04929656861634476,0.35449228536842714,0.13918858567928213
0401,cdot_cos,R,Q-R,112,22,17367,0.12904926515121343,0.3690331440552814,0.17922233907503582,0.9915685073463646,728.0,2.538159722090198,0.5596725882603224,5.923018378176873,-0.056363844556208874,0.032,0.9999999999999712,-35.25454130878538,0.5563215065003778,112,2026-10-07 22:31:33.451244,26.6,0.4679392012523727,1.2923816871441145,1.9764798231684533
0401,cdot_cos,S,R-S,113,22,17413,0.06515691735661214,-0.12037742064507813,-0.06389234779460129,0.15452581690063144,728.0,2.557624795726031,0.5598617343770548,5.951412314449606,-0.0176311872782422,0.046,0.9999999999999702,204.7763810703551,0.561288652180897,113,2026-10-07 22:31:33.497243,26.6,0.11115536435716031,0.3358459243332175,0.42315377469201804
0401,cdot_cos,T,S-T,114,22,17597,-0.1577401825255175,-0.014324783689691357,-0.22289709988212963,0.002653912540987497,728.0,2.569057547128854,0.5598649827262663,5.977722677554719,-0.01041839789003129,0.184,0.9999999999999688,2220.4476546629344,0.5662558545897987,114,2026-10-07 22:31:33.681243,26.6,0.5004174040770762,0.20578051220782287,0.062134518493604254
0401,cdot_cos,P,T-P,115,23,17952,0.049263576819994284,0.000929018568879705,0.2070037593455118,0.9959553201563741,716.0,2.63335202421851,0.5610836527622841,6.01695231189777,-0.05941992728628191,0.355,0.9999999999999678,-40.20902126745454,0.5712231297171734,115,2026-10-07 22:31:34.036243,26.6,0.43838186222119374,0.11351716001797703,0.1811112030694525
0401,cdot_cos,Q,P-Q,116,23,18063,-0.037176237326596064,-0.04802000047106653,-0.08643981414659035,0.09118102950867302,716.0,2.649654730741618,0.5611951870442755,6.044257647460263,-0.015299270982479928,0.111,0.999999999999966,395.57932786266014,0.5761903027341078,116,2026-10-07 22:31:34.147244,26.6,0.05591959429332158,0.36461663896763835,0.1468712299379104
0401,cdot_cos,R,Q-R,117,23,18094,0.13968410929913427,0.40405858966933517,0.17686034662573033,0.9910266755020151,716.0,2.7142969180693255,0.5624070276947181,6.083362644199265,-0.06155544992323498,0.031,0.999999999999966,-38.170182625795505,0.5811574416986864,117,2026-10-07 22:31:34.178244,26.6,0.4716795421732287,1.265704519646335,2.085231849280892
0401,cdot_cos,S,R-S,118,23,18153,0.021954844867714655,-0.049528960048405145,-0.11772926443141962,0.04182250547187593,716.0,2.7281284109596906,0.5624581525423842,6.109859964305923,-0.013363366851355724,0.059,0.9999999999999641,942.6352404335499,0.5861245935817321,118,2026-10-07 22:31:34.237243,26.6,0.027152584930236614,0.2151733294937381,0.23443208288754436
0401,cdot_cos,T,S-T,119,23,18326,-0.26917509783354765,-0.06369973473895203,-0.2911299427012623,0.00043312261596782783,716.0,2.7396873709495866,0.562458681995063,6.135700361415239,-0.011219845418195394,0.173,0.9999999999999624,4048.560936507569,0.5910917964118677,119,2026-10-07 22:31:34.410244,26.6,0.8260934938903504,0.22383948436010592,0.06681479762945652
0401,cdot_cos,P,T-P,120,24,18668,0.05385619352093392,0.0022259766187594046,0.32303129135448155,0.9998145671618677,728.0,2.8055768725482872,0.5636804819585168,6.1748108468561185,-0.06482173344055758,0.342,0.999999999999962,-43.871247033628904,0.5960590773220241,120,2026-10-07 22:31:34.752243,26.6,0.4373977609676197,0.11925866202180117,0.19265936139970952
0401,cdot_cos,Q,P-Q,121,24,18781,-0.04139486248153738,-0.05353142363297684,-0.0952510560024713,0.07353068732676972,728.0,2.8212602957724986,0.5637703080891826,6.201473974021201,-0.01565550826279388,0.113,0.99999999999996,547.3488038876295,0.601026254045088,121,2026-10-07 22:31:34.865243,26.6,0.04326088149602646,0.3618063181730547,0.13879135596647207
0401,cdot_cos,R,Q-R,122,24,18812,0.14210388121458797,0.4154683175001153,0.18349874369612534,0.992468242365908,728.0,2.8873451004553976,0.5649823096749756,6.240434176138273,-0.06688333735159574,0.031,0.9999999999999586,-42.26713041409281,0.6059933928254136,122,2026-10-07 22:31:34.896243,26.6,0.4649022438551706,1.286623265641354,2.1317678929967423
0401,cdot_cos,S,R-S,123,24,18869,0.016359098400063523,-0.04218705932646025,-0.12574478281452445,0.03406548886903334,728.0,2.9010309382422625,0.5650238967285713,6.266418752913643,-0.014044454682554955,0.057,0.9999999999999574,1270.560862107169,0.6109605446208839,123,2026-10-07 22:31:34.953243,26.6,0.023231190787554624,0.22342295193546946,0.24010241731342
0401,cdot_cos,T,S-T,124,24,19042,-0.2913173689385028,-0.09013573309025419,-0.3076764673385663,0.0002789513897778082,728.0,2.912815316976041,0.5650242372678715,6.2918442296518124,-0.012146381396111098,0.173,0.9999999999999553,5573.727570684058,0.6159277526001126,124,2026-10-07 22:31:35.126244,26.6,0.8553311594396876,0.22842426576604666,0.06811779614900912
0401,cdot_cos,P,T-P,125,25,19396,0.05440803173213057,-0.003031948773368471,0.34572540067063334,0.9998985959033847,718.0,2.9800657341973147,0.566244500436737,6.330806600829229,-0.07021278206934857,0.354,0.999999999999955,-47.58514569215749,0.6208950510020836,125,2026-10-07 22:31:35.480243,26.6,0.43735672049097,0.11794077295452085,0.18997293000359763
0401,cdot_cos,Q,P-Q,126,25,19498,-0.03838694529625123,-0.04573121323673466,-0.0927949770283818,0.0781072228090813,718.0,2.996317384227842,0.5663397878538715,6.3571490262271375,-0.017207076243124297,0.102,0.9999999999999526,556.2718291693179,0.6258622250815148,126,2026-10-07 22:31:35.582243,26.6,0.04593813161952979,0.4111923051894024,0.15932990226007057
0401,cdot_cos,R,Q-R,127,25,19530,0.1711071488223543,0.40904055319621474,0.20949409411860553,0.9962135883471045,718.0,3.0639489644559528,0.5675546925718634,6.396017242662855,-0.07256457995410381,0.032,0.9999999999999524,-45.56530474462144,0.6308293641845362,127,2026-10-07 22:31:35.614244,26.6,0.4663251036499199,1.2582951611206026,2.1134868821284654
0401,cdot_cos,S,R-S,128,25,19589,0.014563706251288331,-0.04513560319085103,-0.15654344257106598,0.015306458974463396,718.0,3.0768482745395604,0.5675733528427185,6.421360154151441,-0.014023945932171085,0.059,0.9999999999999498,3137.1802947889782,0.6357965178503984,128,2026-10-07 22:31:35.673243,26.6,0.015385435269013864,0.21111785385921295,0.21863237429843516
0401,cdot_cos,T,S-T,129,25,19758,-0.290152448020705,-0.04059146013171891,-0.30471615427199333,0.00030179832927481747,718.0,3.08886087121134,0.5675737207664217,6.446398974125854,-0.013112902460334317,0.169,0.9999999999999476,2476.174989503925,0.6407637290323526,129,2026-10-07 22:31:35.842243,26.6,0.9328817069698457,0.23843591843496353,0.07108045367916835
0401,cdot_cos,P,T-P,130,26,20114,0.06323616389788136,-0.0033216913460247517,0.3533886119185864,0.9999172941140652,719.0,3.157439614970578,0.5687923128322424,6.485230888375861,-0.07578742324373,0.356,0.9999999999999474,-51.43191273051875,0.6457310409091107,130,2026-10-07 22:31:36.198244,26.6,0.4373690833739793,0.11805597741217073,0.1926369206720175
0401,cdot_cos,Q,P-Q,131,26,20222,-0.04085378789744536,-0.04931234614190891,-0.10408995179532672,0.0590340411224023,719.0,3.1729167271288055,0.5688642313117919,6.510949494241795,-0.01733346187377819,0.108,0.9999999999999445,812.780828184108,0.6506982207924635,131,2026-10-07 22:31:36.306243,26.6,0.03430998302848243,0.39042862972518383,0.14330659405766052
0401,cdot_cos,R,Q-R,132,26,20250,0.15624552277530118,0.38764229320178184,0.19709931067274655,0.994742569989658,719.0,3.241772198991218,0.570075641689682,6.54967125765875,-0.07808778880394157,0.028,0.9999999999999439,-50.15173061005115,0.6556653574765929,132,2026-10-07 22:31:36.334244,26.6,0.4593118163812774,1.4985332368274151,2.4591239950861556
0401,cdot_cos,S,R-S,133,26,20309,0.044742205621845846,-0.09463618444216815,-0.11150331715345534,0.048986279728639254,719.0,3.2568345883911407,0.5701352762638002,6.575121546256422,-0.017304871984654805,0.059,0.9999999999999419,1019.2563243383867,0.660632512054196,133,2026-10-07 22:31:36.393243,26.6,0.029823034168891135,0.2321626447206281,0.2552947355919133
0401,cdot_cos,T,S-T,134,26,20487,-0.18981744639089657,-0.009230177127666297,-0.23455965201274243,0.0019474468166895003,719.0,3.269167391068252,0.5701376469909112,6.5998212059276335,-0.014228615968496115,0.178,0.9999999999999396,1297.6002180688665,0.6655997336665559,134,2026-10-07 22:31:36.571244,26.6,0.8055725152490884,0.23070450947856277,0.06928540829837772
0401,cdot_cos,P,T-P,135,27,20833,0.05278645075798927,7.647662492254364e-06,0.24260389714888583,0.9984271056107271,740.0,3.338965393765509,0.5713526576879568,6.638518802651026,-0.08148368706757,0.346,0.9999999999999389,-55.353480642274924,0.6705670527953976,135,2026-10-07 22:31:36.917243,26.6,0.43806814284281836,0.1253898510634097,0.20172833149496278
0401,cdot_cos,Q,P-Q,136,27,20943,-0.03908640074904419,-0.049263314649647234,-0.09187285150703345,0.07989181488677452,740.0,3.3559371680041314,0.5714498430610597,6.664193964081857,-0.02007223907366429,0.11,0.9999999999999359,631.900110409566,0.6755342367972988,136,2026-10-07 22:31:37.027244,26.6,0.046910134025641224,0.3954375021624959,0.15428885671474904
0401,cdot_cos,R,Q-R,137,27,20974,0.14511109875637263,0.37213902632320656,0.1841974995054168,0.9926059158870925,740.0,3.425961644241258,0.5726568487735912,6.702777455691217,-0.0838333670225041,0.031,0.9999999999999358,-52.82587090255789,0.6805013749220955,137,2026-10-07 22:31:37.058244,26.6,0.46740002235164474,1.3983895720967354,2.2588540721653776
0401,cdot_cos,S,R-S,138,27,21027,0.0489459021247445,-0.10984577309646551,-0.09616519663162812,0.07189125817347151,740.0,3.442637321474129,0.572744234913109,6.728222223045713,-0.020218309336813012,0.053,0.9999999999999329,727.9765193514138,0.6854685268520886,138,2026-10-07 22:31:37.111244,26.6,0.043006312657477126,0.2755408059437004,0.31463541948813
0401,cdot_cos,T,S-T,139,27,21216,-0.1985786077662529,-0.006014424058260068,-0.24752450989099742,0.001380191380616087,740.0,3.4551689696712904,0.5727459125357816,6.75257561885889,-0.015258504014822094,0.189,0.9999999999999306,2956.4486717556415,0.690435761201286,139,2026-10-07 22:31:37.300243,26.6,0.7224898743468893,0.2212312085690355,0.06630501691619761
0401,cdot_cos,P,T-P,140,28,21573,0.047287542672332504,-0.0025036795409385795,0.24586615043858542,0.9985576520764788,725.0,3.5262627183132245,0.5739592185221072,6.791177986507003,-0.08754929268372333,0.357,0.9999999999999302,-59.58166322728391,0.6954031003823584,140,2026-10-07 22:31:37.657243,26.6,0.4379216440852216,0.12407843072474135,0.19914215305863886
0401,cdot_cos,Q,P-Q,141,28,21671,-0.04276308837038471,-0.045713947176495594,-0.09005063104271721,0.08352821626313792,725.0,3.5437609692087557,0.5740606700559565,6.8165937657961475,-0.02182054443070081,0.098,0.9999999999999265,647.8832380261517,0.7003702799842002,141,2026-10-07 22:31:37.755244,26.6,0.04918131797939074,0.4546327343054873,0.17855358056664544
0401,cdot_cos,R,Q-R,142,28,21703,0.18876467970165403,0.40128617225082114,0.23152776807203873,0.997889333548899,725.0,3.6153707342371,0.5752722000369956,6.855160433534059,-0.09035687464781714,0.032,0.9999999999999261,-56.57006536341164,0.7053374185075012,142,2026-10-07 22:31:37.787244,26.6,0.46836513145467223,1.3279418550171256,2.237805157135758
0401,cdot_cos,S,R-S,143,28,21743,0.020629860310557593,-0.06080223685879219,-0.16813481939109642,0.01129108827830606,725.0,3.6287492479298518,0.5752859033184975,6.879419841627155,-0.017081202943566243,0.04,0.9999999999999232,5347.308357807593,0.7103045627268215,143,2026-10-07 22:31:37.827244,26.6,0.013707082897071838,0.32586330755122184,0.33446284231879453
0401,cdot_cos,T,S-T,144,28,21933,-0.2721365656629578,-0.031401784611791356,-0.2927664259735154,0.0004146807140364451,725.0,3.6414397988411977,0.5752864065881154,6.903437891375223,-0.016261140282887207,0.19,0.9999999999999204,1629.469833986916,0.715271804296697,144,2026-10-07 22:31:38.017244,26.6,0.9508197028133158,0.22398646289949709,0.06679237321761035
0401,cdot_cos,P,T-P,145,29,22298,0.05427309610842324,0.0016528383410089017,0.32640966177138103,0.9998305015059729,754.0,3.7138641038316607,0.5764993762738934,6.941972809762411,-0.0938171806153039,0.365,0.9999999999999201,-63.93897658099534,0.7202391626277632,145,2026-10-07 22:31:38.382244,26.6,0.43750285712982,0.12447148042225355,0.19842275339852858
0401,cdot_cos,Q,P-Q,146,29,22412,-0.030806281358638755,-0.042781886147791416,-0.085079377467062,0.0942244837438658,754.0,3.732303979549443,0.5766136398048153,6.967250233497096,-0.0241800466664179,0.114,0.9999999999999165,609.4432176830838,0.7252063556005238,146,2026-10-07 22:31:38.496243,26.6,0.0561380141193203,0.39842362091806316,0.16175329577001896
0401,cdot_cos,R,Q-R,147,29,22443,0.14318822235698436,0.38140050312454093,0.1739945037156231,0.9903227564090655,754.0,3.804704689400979,0.5778140800618614,7.005624541511426,-0.09602365367193089,0.031,0.9999999999999157,-59.84771552254943,0.730173493146247,147,2026-10-07 22:31:38.527244,26.6,0.4732239388775245,1.414030804271547,2.335506769404395
0401,cdot_cos,S,R-S,148,29,22502,0.022609862928597863,-0.05698927594820786,-0.1205783594283865,0.03888877992323237,754.0,3.8199738894142787,0.5778612012453117,7.029986061466736,-0.020486188755209224,0.059,0.9999999999999128,1603.0468546360473,0.7351406506125764,148,2026-10-07 22:31:38.586244,26.6,0.025041056283309694,0.23926097545967828,0.25880000022541827
0401,cdot_cos,T,S-T,149,29,22677,-0.22661693189953255,0.0014175707291772348,-0.24922679482813043,0.001319169663704574,754.0,3.832937484505221,0.5778627996464294,7.053715547173309,-0.017457218495721395,0.175,0.9999999999999092,1895.000088508788,0.7401078885462627,149,2026-10-07 22:31:38.761244,26.6,0.8407102716949496,0.2473523568701021,0.07407768623395634
0401,cdot_cos,P,T-P,150,30,23052,0.030024466999067533,0.0013810944020538835,0.2566413988986001,0.9989167019011684,739.0,3.9065472143188145,0.579072688651371,7.092164233919747,-0.1001686863229101,0.375,0.9999999999999089,-68.36285600527742,0.7450752687187858,150,2026-10-07 22:31:39.136243,26.6,0.43791878922175537,0.12112973998896355,0.196292612836249
0401,cdot_cos,Q,P-Q,151,30,23162,-0.06755691360779925,-0.07146543874053451,-0.09758138060686679,0.06941795302633616,739.0,3.9237847894969438,0.5791567326448464,7.116798334350811,-0.02373107320079142,0.11,0.9999999999999051,909.4952531557215,0.7500424621842445,151,2026-10-07 22:31:39.246243,26.6,0.03991541526250221,0.41452394519669666,0.1567052288920845
0401,cdot_cos,R,Q-R,152,30,23193,0.13870143202251878,0.3495763692398749,0.20625834563031803,0.9958746560071478,739.0,3.9977424822620877,0.5803619262074905,7.155183643928162,-0.1029225631034936,0.031,0.9999999999999045,-65.70852380671467,0.7550095993420476,152,2026-10-07 22:31:39.277244,26.6,0.46327804147472046,1.606832163273519,2.3857320246820635
0401,cdot_cos,S,R-S,153,30,23244,0.08753008447539454,-0.17671373233346419,-0.05117134754712424,0.20405218661478022,739.0,4.023408383619902,0.5806087495199401,7.181734881423551,-0.036161020348120014,0.051,0.9999999999999017,270.48313262142983,0.7599767519124074,153,2026-10-07 22:31:39.328243,26.6,0.15783114710846738,0.3820484700969992,0.5032529678002787
0401,cdot_cos,T,S-T,154,30,23429,-0.1325999300629067,-0.004151565446793443,-0.22013001453830125,0.002856042039134447,739.0,4.036711426211982,0.5806122039275017,7.205209250671612,-0.018833844073637328,0.185,0.9999999999998976,5015.961772237538,0.7649440041909042,154,2026-10-07 22:31:39.513243,26.6,0.3985182004784162,0.23621332459696867,0.07190833833556598
0401,cdot_cos,P,T-P,155,31,23791,0.028970593877831845,0.0010244860056863334,0.16157052394073856,0.9865836755813492,737.0,4.11080731372078,0.5818050104625024,7.243415289773334,-0.10595471124187647,0.362,0.9999999999998974,-73.03855622167922,0.7699113914215221,155,2026-10-07 22:31:39.875243,26.6,0.4394434320121558,0.1263973733438034,0.2046847721237533
0401,cdot_cos,Q,P-Q,156,31,23902,-0.06985264156964563,-0.07210896807302232,-0.09882323544747748,0.06731414400767718,737.0,4.128223124512895,0.5818863604071078,7.267759718131501,-0.025182384635903644,0.111,0.9999999999998931,992.8995895174704,0.7748785893460031,156,2026-10-07 22:31:39.986243,26.6,0.04045790754093228,0.4173388461708094,0.15689919632536
0401,cdot_cos,R,Q-R,157,31,23932,0.14308303389801474,0.37184068306407053,0.21293567546766037,0.9965436814968508,737.0,4.2034565375707,0.583090171944851,7.3061003410935905,-0.1099172104931393,0.03,0.9999999999998924,-70.38878030367636,0.7798457254722805,157,2026-10-07 22:31:40.016243,26.6,0.46259802422768515,1.603367578253708,2.507780435260158
0401,cdot_cos,S,R-S,158,31,23984,0.06880726722240353,-0.14359897117268794,-0.07427576667561121,0.12177418205677701,737.0,4.224425179208118,0.5832372059442867,7.331179430372723,-0.030986135949115097,0.052,0.9999999999998888,536.8219245000636,0.7848128795682242,158,2026-10-07 22:31:40.068243,26.6,0.0782925428465067,0.3324825550086602,0.4032431084118796
0401,cdot_cos,T,S-T,159,31,24154,-0.13690076214999694,-0.003364515561967355,-0.20570802937240046,0.004185921999455827,737.0,4.238034723291601,0.5832422598958593,7.354406504479604,-0.020193769821185953,0.17,0.999999999999885,2135.4312507646623,0.7897801272265391,159,2026-10-07 22:31:40.238244,26.6,0.5859971308955353,0.2629796239288156,0.08005614166754656
0401,cdot_cos,P,T-P,160,32,24528,0.059916014136159906,0.0025672646831195853,0.19681677628615685,0.9947031194541888,745.0,4.313838251343915,0.5844427351366319,7.392682297388053,-0.11357114868507322,0.374,0.9999999999998846,-77.78367740745023,0.7947475402358238,160,2026-10-07 22:31:40.612243,26.6,0.43946694132653946,0.1258428506974871,0.2026832300864021
0401,cdot_cos,Q,P-Q,161,32,24640,-0.033345004217157914,-0.04414898181212266,-0.09326101835331782,0.07721923569026619,745.0,4.332165175613321,0.584535886841046,7.416930495130235,-0.027758386444134024,0.112,0.9999999999998794,921.2151595156938,0.7997147426658199,161,2026-10-07 22:31:40.724244,26.6,0.04543750006837502,0.42243617738863776,0.16363325240541038
0401,cdot_cos,R,Q-R,162,32,24669,0.1611811670442893,0.40727581567259413,0.19452617126144722,0.9943722177638924,745.0,4.40846395507897,0.5857348836651375,7.4551895413323725,-0.11673047413138553,0.029,0.9999999999998791,-74.20544066467006,0.8046818776120958,162,2026-10-07 22:31:40.753243,26.6,0.4666382108686304,1.5775490452444039,2.630992395367203
0401,cdot_cos,S,R-S,163,32,24718,0.02413398135883345,-0.06021493318795161,-0.13704718568545585,0.02544516260501377,745.0,4.4236630202374965,0.5857655517398471,7.478555527513481,-0.023496152936222096,0.049,0.999999999999875,3040.1100192266163,0.8096490299143383,163,2026-10-07 22:31:40.802243,26.6,0.01890994102451555,0.2935379915433408,0.31018500323523546
0401,cdot_cos,T,S-T,164,32,24911,-0.28122397783085745,-0.03485252793628878,-0.3053579591896909,0.0002966912714899286,745.0,4.437230678250217,0.5857659093264914,7.501465387902537,-0.02104247831842734,0.193,0.9999999999998709,6861.762476145415,0.8146163032950393,164,2026-10-07 22:31:40.995244,26.6,0.8899359537120112,0.23540971702097963,0.07029874617990084
0401,cdot_cos,P,T-P,165,33,25273,0.04334253440402252,0.001528288643876381,0.32456651223488,0.9998219858035455,758.0,4.514531171007595,0.5869704273790293,7.5397733085412,-0.12101317665791693,0.362,0.99999999999987,-82.99643008990778,0.8195837223761778,165,2026-10-07 22:31:41.357243,26.6,0.4377470020736239,0.13249617626886115,0.21353727281043444
0401,cdot_cos,Q,P-Q,166,33,25384,-0.04971431043968456,-0.05534657413350601,-0.09305684484370708,0.07760712010959821,758.0,4.533157909868873,0.5870638798752389,7.563790734527182,-0.02947048337700127,0.111,0.9999999999998647,979.563917432197,0.8245509275084838,166,2026-10-07 22:31:41.468243,26.6,0.04476851639703119,0.4331746662239145,0.16780845820971343
0401,cdot_cos,R,Q-R,167,33,25415,0.1537355043394073,0.3744378462299333,0.20344981477909185,0.9955560821568746,758.0,4.610695946909304,0.588262144322278,7.602024037572531,-0.12387403548583484,0.031,0.999999999999864,-78.78357097392455,0.8295180637059589,167,2026-10-07 22:31:41.499244,26.6,0.46668856157487615,1.513389604841232,2.5012270013042204
0401,cdot_cos,S,R-S,168,33,25463,0.033227879672502236,-0.09082683567529826,-0.12050762466690507,0.038959166415919934,758.0,4.626988065369029,0.5883090149178078,7.625358128195074,-0.026294326955839244,0.048,0.9999999999998592,2081.896067819085,0.8344852156263843,168,2026-10-07 22:31:41.547244,26.6,0.024451699144740404,0.31353346565627754,0.3394191345776158
0401,cdot_cos,T,S-T,169,33,25653,-0.23130847029842527,0.005493857832064829,-0.2645363499709275,0.0008782795905744118,758.0,4.640795159612306,0.5883100715309755,7.648032714550552,-0.02235626378507209,0.19,0.9999999999998551,3727.0623643762083,0.8394524940933474,169,2026-10-07 22:31:41.737243,26.6,0.838491926091865,0.24278438194499433,0.0726689170698794
0401,cdot_cos,P,T-P,170,34,26031,0.06772827748941564,4.056595218308283e-05,0.2990367477878409,0.999649001480091,753.0,4.719246130508127,0.5895121679712941,7.68630012065639,-0.1281780484027904,0.378,0.9999999999998541,-88.03102735223696,0.8444199439828919,170,2026-10-07 22:31:42.115244,26.6,0.4379790056922531,0.12825124197672688,0.20754225104714485
0401,cdot_cos,Q,P-Q,171,34,26141,-0.02863553365051187,-0.038020651876594924,-0.09636381113992751,0.07153954763242812,753.0,4.737753098546712,0.5895981548070581,7.709998262890697,-0.030549111266131218,0.11,0.9999999999998489,1135.3939968743218,0.8493871517773927,171,2026-10-07 22:31:42.225244,26.6,0.040933648215428144,0.441151051955641,0.16824516398713418
0401,cdot_cos,R,Q-R,172,34,26172,0.1598440108537985,0.38555368812506025,0.18847954450431037,0.9933966693474233,753.0,4.816299361938368,0.5907915981635526,7.748161137899339,-0.13086891644968368,0.031,0.9999999999998479,-84.059125753752,0.8543542874996244,172,2026-10-07 22:31:42.256243,26.6,0.464605279313869,1.5154008810741475,2.5337504319889117
0401,cdot_cos,S,R-S,173,34,26222,0.016945460411742788,-0.04567216284213037,-0.14289855044205574,0.021857709760074544,753.0,4.831707953173309,0.5908178455315704,7.770997447319518,-0.025924798309421754,0.05,0.9999999999998429,3998.2720579627594,0.8593214417041672,173,2026-10-07 22:31:42.306243,26.6,0.017456894282207664,0.2937762334236105,0.30817182469881743
0401,cdot_cos,T,S-T,174,34,26396,-0.2794636201037845,-0.008325397578845302,-0.2964090805155273,0.00037640005180466536,753.0,4.845676985280729,0.5908182975190708,7.793430581456004,-0.023574311455566287,0.174,0.9999999999998375,5200.335964233421,0.864288712730206,174,2026-10-07 22:31:42.480243,26.6,0.9051039955152322,0.26888355052509755,0.08028179372080561
0401,cdot_cos,P,T-P,175,35,26784,0.04656099767999217,0.0015171331813742543,0.32602461778377667,0.9998287568515821,755.0,4.925279428756043,0.5920183647366498,7.831668851061754,-0.13551387678027604,0.388,0.9999999999998374,-93.27774618369436,0.8692561895383619,175,2026-10-07 22:31:42.868243,26.6,0.4377804905187851,0.12784576418474855,0.20516093679204575
0401,cdot_cos,Q,P-Q,176,35,26898,-0.04312588161207083,-0.05210289745585171,-0.089686879292063,0.08427190164168662,755.0,4.944885298288094,0.5921194640923648,7.855354517890707,-0.033712996530824275,0.114,0.9999999999998314,1006.9389614749173,0.8742234048071967,176,2026-10-07 22:31:42.982244,26.6,0.04881912677823726,0.4356473523658704,0.17198131168465897
0401,cdot_cos,R,Q-R,177,35,26926,0.14960695690815845,0.36744411389052445,0.19273283852022927,0.9940988740719425,755.0,5.024607025095461,0.5933114745086385,7.893497946215357,-0.13833717581258445,0.028,0.9999999999998304,-87.77119549745353,0.8791905371014755,177,2026-10-07 22:31:43.010243,26.6,0.4694007674374575,1.7461109757164195,2.8472045288345473
0401,cdot_cos,S,R-S,178,35,26975,0.04525583945440222,-0.10953534293868701,-0.10435111745375622,0.05864932179088747,755.0,5.0426675129282135,0.5933817659400323,7.916702358780975,-0.03164513604718196,0.049,0.999999999999825,1517.8527119138807,0.8841576908812743,178,2026-10-07 22:31:43.059244,26.6,0.03433758852763001,0.33005930261243105,0.36858138434188076
0401,cdot_cos,T,S-T,179,35,27159,-0.18624978980949786,0.007698741234365745,-0.2315056292639001,0.0021119071465907197,755.0,5.0569528367514796,0.5933842969973235,7.938943008616838,-0.025110761128193874,0.184,0.9999999999998198,2581.6779974549854,0.8891249790817451,179,2026-10-07 22:31:43.243244,26.6,0.7708803565460057,0.2580198697745139,0.07763762947427219
0401,cdot_cos,P,T-P,180,36,27539,0.06591624158489866,0.00117998389241215,0.25216603139439653,0.9987799180641176,757.0,5.137618825005235,0.594580746807863,7.97714004779296,-0.14299443944139464,0.38,0.9999999999998187,-98.52789249893331,0.894092466564364,180,2026-10-07 22:31:43.623244,26.6,0.4385008874391579,0.13166223735292526,0.2122789164572501
0401,cdot_cos,Q,P-Q,181,36,27647,-0.02746195198636115,-0.03499772757557079,-0.09337819357125982,0.07699743179298611,757.0,5.157016137139703,0.5946729364801343,8.000508480144953,-0.03472008741375491,0.108,0.9999999999998123,1174.4737708686935,0.8990596797244111,181,2026-10-07 22:31:43.731244,26.6,0.04422376029511566,0.4642904570916659,0.17960474198581627
0401,cdot_cos,R,Q-R,182,36,27678,0.17017177341383746,0.3858261441276147,0.1976337254001986,0.9948163932637861,757.0,5.237905563737034,0.5958634360387377,8.038639629482756,-0.14606035547740637,0.031,0.9999999999998117,-93.52398936986363,0.9040268145346704,182,2026-10-07 22:31:43.762244,26.6,0.46659695276575636,1.5500143185528499,2.6093363418494087
0401,cdot_cos,S,R-S,183,36,27737,0.0059704069504948176,-0.021886170535456547,-0.16420136646334266,0.01252089673583442,757.0,5.2531170248899794,0.5958784126742462,8.060896149829981,-0.02772062367488549,0.059,0.9999999999998055,7901.623280815238,0.9089939793156709,183,2026-10-07 22:31:43.821243,26.6,0.013995575361348572,0.2505333114336633,0.25782137547364453
0401,cdot_cos,T,S-T,184,36,27893,-0.30289086609151866,-0.052370619134488684,-0.3088612730420135,0.0002702994339364135,757.0,5.267468494486207,0.5958787359858689,8.08289484387304,-0.026227108930557068,0.156,0.9999999999997993,4619.427943457945,0.9139612458265326,184,2026-10-07 22:31:43.977243,26.6,0.9446455903075975,0.3083198053665796,0.09199659997581563
0401,cdot_cos,P,T-P,185,37,28296,0.02616245550984154,0.0013338916815563437,0.3290533216013602,0.9998420096112474,766.0,5.349312804164352,0.5970740991407401,8.121088206868258,-0.15079233621114016,0.403,0.9999999999997986,-104.20701589552775,0.9189287760939375,185,2026-10-07 22:31:44.380243,26.6,0.43776574506429355,0.12430864846961318,0.20308761706735878
0401,cdot_cos,Q,P-Q,186,37,28407,-0.0788294154482162,-0.07932903981389443,-0.10499187095805775,0.05771537547017562,766.0,5.367661265152715,0.5971430658316654,8.143948224040201,-0.034122872913826895,0.111,0.9999999999997918,1691.6784281205096,0.9238959960819163,186,2026-10-07 22:31:44.491244,26.6,0.03274193878182872,0.45285750523425405,0.16530145034560922
0401,cdot_cos,R,Q-R,187,37,28437,0.15132236381621145,0.3473491397513934,0.23015177926442765,0.9978108214716164,766.0,5.449847170326357,0.5983347853280588,8.182107754723766,-0.1541265817274226,0.03,0.999999999999791,-100.69794878473692,0.9288631292556427,187,2026-10-07 22:31:44.521244,26.6,0.45904598859314144,1.7266268737762789,2.739530172454726
0401,cdot_cos,S,R-S,188,37,28496,0.06901806656501595,-0.16648838538432642,-0.0823042972511955,0.10071599179197778,766.0,5.471258877579292,0.5984550095761416,8.205604307050484,-0.04053481185157416,0.059,0.9999999999997853,944.832441768623,0.9338302950999349,188,2026-10-07 22:31:44.580243,26.6,0.06066876375495638,0.30618632733477813,0.36291029242262635
0401,cdot_cos,T,S-T,189,37,28668,-0.15283382622970268,0.01265821293137379,-0.22185189279471862,0.0027285290987322233,766.0,5.4859771569518605,0.5984582664449414,8.22744356210535,-0.02795549338444115,0.172,0.9999999999997788,3862.3964428823815,0.9387975858980018,189,2026-10-07 22:31:44.752243,26.6,0.6376430585484374,0.28208969691643115,0.08557139170098178
0401,cdot_cos,P,T-P,190,38,29062,0.02241840939379633,-0.0008264515821680894,0.175252235623499,0.9906381783483446,741.0,5.568297733318544,0.5996401506396744,8.265471769197884,-0.15758844473058953,0.394,0.9999999999997782,-109.68329378111083,0.9437651266793589,190,2026-10-07 22:31:45.146244,26.6,0.4392860774517503,0.13103980210566166,0.2089354730118869
0401,cdot_cos,Q,P-Q,191,38,29165,-0.06372688165956732,-0.061686562427920436,-0.08614529105336365,0.09183231864516353,741.0,5.589236521011122,0.5997496530201302,8.288707954250258,-0.04045442247897769,0.103,0.9999999999997703,1069.6938437687577,0.9487323416861997,191,2026-10-07 22:31:45.249243,26.6,0.05527378448554895,0.5060226914834592,0.2032892008988151
0401,cdot_cos,R,Q-R,192,38,29195,0.16991045965577936,0.35724141952924165,0.2336373413153467,0.9980042811982223,741.0,5.6725384077641365,0.6009390451893522,8.32685853976876,-0.16228404432045412,0.03,0.9999999999997697,-102.43015297567415,0.9536994743518876,192,2026-10-07 22:31:45.279244,26.6,0.4720273155850924,1.6810788038413924,2.7767295584338214
0401,cdot_cos,S,R-S,193,38,29241,0.051132097050278484,-0.13394733322671792,-0.11877836260550087,0.040718405739600796,741.0,5.690101249241605,0.6009875470157174,8.349188711177652,-0.034519974787182064,0.046,0.999999999999763,2634.211515480385,0.9586666262631371,193,2026-10-07 22:31:45.325243,26.6,0.02469477821228687,0.35568384926579333,0.3818009016841064
0401,cdot_cos,T,S-T,194,38,29428,-0.13894950105093126,0.006242552789929279,-0.19008159810120975,0.0063295874815270945,741.0,5.7052613218965895,0.6009950863410737,8.37089580223132,-0.02988292720514712,0.187,0.999999999999756,615.048079626292,0.963633942112063,194,2026-10-07 22:31:45.512243,26.6,0.8562663393709812,0.2639167408084272,0.08106990724590424
0401,cdot_cos,P,T-P,195,39,29803,0.04596872014429292,-0.0017910967684255784,0.1849182211952242,0.9927453005963693,732.0,5.788806110303957,0.6021769746257706,8.408946774681388,-0.16594021329494787,0.375,0.9999999999997555,-115.11856733963103,0.9686014808972829,195,2026-10-07 22:31:45.887244,26.6,0.4404679882837031,0.14019097657936422,0.22278610241964714
0401,cdot_cos,Q,P-Q,196,39,29905,-0.03772904272533062,-0.04165296676946644,-0.08369776286962355,0.09740815728302726,732.0,5.810404554331113,0.6022928775638484,8.4321033821024,-0.043287899747728495,0.102,0.9999999999997472,1058.2329972070934,0.9735686984645847,196,2026-10-07 22:31:45.989243,26.6,0.05881203656622867,0.5191253285184667,0.2117494512466225
0401,cdot_cos,R,Q-R,197,39,29935,0.17902858886927644,0.38477000470180184,0.21675763159460706,0.9968767499541967,732.0,5.894707677321724,0.6034783686409044,8.470225666437768,-0.17033045697801147,0.03,0.9999999999997465,-107.16449890603482,0.9785358306788627,197,2026-10-07 22:31:46.019244,26.6,0.4743265309086664,1.671534359781483,2.810104099687057
0401,cdot_cos,S,R-S,198,39,29988,0.02165100601152563,-0.060171308806043544,-0.1573775828577508,0.014975607352742235,732.0,5.910696615918002,0.6034961684862195,8.491946951145108,-0.03258119001684632,0.053,0.999999999999739,7738.790114366231,0.9835029916009479,198,2026-10-07 22:31:46.072243,26.6,0.014583316723518605,0.2917053151460817,0.3016780867222124
0401,cdot_cos,T,S-T,199,39,30169,-0.27738793549754487,-0.0773193133450651,-0.2990389415090705,0.0003509780458837319,732.0,5.925628440727209,0.603496585651651,8.513370145343533,-0.03050675830676599,0.181,0.999999999999732,4972.683624483168,0.9884703086853707,199,2026-10-07 22:31:46.253243,26.6,0.9342613266220159,0.27634584159088826,0.08249626966412932
0401,cdot_cos,P,T-P,200,40,30535,0.052920561282489204,0.0023152105246284226,0.33030849678003404,0.999847196660998,730.0,6.010733810573903,0.6046843706967372,8.551531593210449,-0.1751645244576195,0.366,0.9999999999997309,-121.78783252853152,0.993437855908635,200,2026-10-07 22:31:46.619244,26.6,0.43786729142897324,0.14647689258909688,0.2325283329144649
0401,cdot_cos,Q,P-Q,201,40,30647,-0.029298536119981948,-0.04123001909496138,-0.08221909740247116,0.1009214430245692,730.0,6.032849526102428,0.6048041936214069,8.57458268906951,-0.045922799226773205,0.112,0.9999999999997227,1078.6059978679946,0.998405089722031,201,2026-10-07 22:31:46.731244,26.6,0.05994511155786822,0.47767545791487154,0.19746174579039963
0401,cdot_cos,R,Q-R,202,40,30678,0.1436985498312774,0.41380807190127644,0.17299708595125934,0.9900651550657257,730.0,6.117733113146834,0.6059790175321882,8.612583446997188,-0.1776405997986812,0.031,0.9999999999997218,-112.11705802303062,1.0033722227029174,202,2026-10-07 22:31:46.762244,26.6,0.4764060332883778,1.6379410880096241,2.738180227238918
0401,cdot_cos,S,R-S,203,40,30732,0.000742186438234698,-0.007151027551366813,-0.14295636339304268,0.021824855313113352,730.0,6.134401873559025,0.6060049014405835,8.63424418983856,-0.035174389460294504,0.054,0.999999999999714,5504.0455314010105,1.0083393857693088,203,2026-10-07 22:31:46.816243,26.6,0.01741745536616185,0.29415718736364377,0.3086807483738932
0401,cdot_cos,T,S-T,204,40,30910,-0.33500294007152365,-0.04747863944327071,-0.33574512650975835,0.00013223199953013971,730.0,6.149502089382108,0.6060050582636802,8.655486922641236,-0.031947067962037376,0.178,0.9999999999997065,20579.376160367003,1.0133067074469766,204,2026-10-07 22:31:46.994244,26.6,0.9039141425700504,0.2844627100793315,0.08483267316338931
0401,cdot_cos,P,T-P,205,41,31265,0.03028438817202033,0.002080636615590761,0.365287328243544,0.9999397316339572,722.0,6.235670598347267,0.6071903295465747,8.69364597933654,-0.18361245030086798,0.355,0.9999999999997056,-127.95837081993457,1.0182742599257286,205,2026-10-07 22:31:47.349244,26.6,0.4377934038394465,0.15008612069109373,0.2427281942680527
0401,cdot_cos,Q,P-Q,206,41,31377,-0.0652817597279734,-0.0707138139590908,-0.09556614789999374,0.07296174739502119,722.0,6.2560632350727845,0.6072767649976725,8.716064924457818,-0.043824188624453815,0.112,0.9999999999996968,1617.2561130999525,1.02324149814561,206,2026-10-07 22:31:47.461244,26.6,0.04118211255876385,0.4760616137427113,0.18207711362069492
0401,cdot_cos,R,Q-R,207,41,31405,0.130803559481338,0.3481835911112237,0.1960853192093114,0.9945996122021435,722.0,6.342308399825634,0.6084543630857092,8.754137526344788,-0.18672567145812638,0.028,0.9999999999996958,-121.34996165959586,1.0282086267615305,207,2026-10-07 22:31:47.489243,26.6,0.4651935383988112,1.9185610046987662,3.08018445545891
0401,cdot_cos,S,R-S,208,41,31446,0.04012766278246296,-0.11425298426426257,-0.09067589669887505,0.08226379823128997,722.0,6.363502651335915,0.6085517064695154,8.77666121112224,-0.04627398274132768,0.041,0.9999999999996878,1442.8478158972775,1.033175773490709,208,2026-10-07 22:31:47.530244,26.6,0.04806411792122745,0.4459194778259176,0.5169329636654006
0401,cdot_cos,T,S-T,209,41,31630,-0.2099555195812837,-0.01776110925068983,-0.25008318236374666,0.0012894971019145375,722.0,6.378873797007359,0.6085532322726117,8.797755717565005,-0.03365677482482205,0.184,0.9999999999996798,8269.224218371864,1.0381431119968598,209,2026-10-07 22:31:47.714243,26.6,0.6873726535894582,0.27874510901648236,0.08353883517089032
0401,cdot_cos,P,T-P,210,42,31987,0.10575850656083119,0.021047629406199846,0.31571402614211486,0.9997747316926454,694.0,6.466080851453981,0.6097355794752142,8.835911769394675,-0.1922778013853362,0.357,0.9999999999996789,-134.15773827804017,1.043110686898863,210,2026-10-07 22:31:48.071244,26.6,0.4382535899856933,0.14739261085188263,0.2442774634359151
0401,cdot_cos,Q,P-Q,211,42,32096,-0.017002143300755307,-0.02533576189989434,-0.1227606498615865,0.03677625669267806,694.0,6.484112121155603,0.6097790470937566,8.85755622628559,-0.04008022575006221,0.109,0.9999999999996692,3501.401289942051,1.0480779256551278,211,2026-10-07 22:31:48.180243,26.6,0.022430731618951687,0.4815398336355798,0.16542449267543577
0401,cdot_cos,R,Q-R,212,42,32123,0.1556308631510903,0.4635626485493966,0.1726330064518456,0.9899694432825576,694.0,6.571056535186537,0.6109484822755409,8.895548149408055,-0.19461680019157204,0.027,0.9999999999996687,-132.14633598223685,1.0530450523815018,212,2026-10-07 22:31:48.207244,26.6,0.45200787625108646,1.9178645233466598,3.220163482627181
0401,cdot_cos,S,R-S,213,42,32175,0.0001442927470174235,-0.0011754774120825299,-0.15548657040407288,0.01573600464521372,694.0,6.587676805416323,0.6109670607028461,8.916774671066156,-0.037497375650173644,0.052,0.9999999999996597,8457.089610437564,1.058012214760598,213,2026-10-07 22:31:48.259244,26.6,0.015144095505946734,0.3098300553566661,0.31962058134203347
0401,cdot_cos,T,S-T,214,42,32349,-0.2307175247215363,-0.03850928863683427,-0.23086181746855372,0.002148307485145169,694.0,6.603278860943631,0.610969597037953,8.937718667827003,-0.0352862709539946,0.174,0.9999999999996511,871.7715140345858,1.0629795479389417,214,2026-10-07 22:31:48.433243,26.6,0.9392609864312436,0.2983173124797439,0.08966698578912377
0401,cdot_cos,P,T-P,215,43,32681,0.06137254907549731,0.005277305497023069,0.2920900737970336,0.9995777944417692,705.0,6.691491230159274,0.6121490650535402,8.97587130930851,-0.20085229589023257,0.332,0.9999999999996504,-140.3734757943466,1.0679471065917638,215,2026-10-07 22:31:48.765243,26.6,0.4385342717721653,0.16718560441822572,0.26569990727603415
0401,cdot_cos,Q,P-Q,216,43,32794,-0.021490839796405717,-0.03387306864011771,-0.08286338887190303,0.09937699136496622,705.0,6.7142901022773325,0.61226625500165,8.998443693095782,-0.05233881954389803,0.113,0.999999999999641,1267.2885238173135,1.0729143556150396,216,2026-10-07 22:31:48.878243,26.6,0.0585695897970962,0.4881483461624482,0.2017599302483056
0401,cdot_cos,R,Q-R,217,43,32823,0.13330365918905604,0.4347931478193023,0.15479449898546177,0.9839763116342336,705.0,6.801812756391987,0.6134259025194935,9.036332079358289,-0.20235375721754012,0.029,0.9999999999996398,-129.3625307391814,1.0778814847832212,217,2026-10-07 22:31:48.907244,26.6,0.47647029396648555,1.8331354457043116,3.0180225556777502
0401,cdot_cos,S,R-S,218,43,32875,0.01655567380071274,-0.0378246664855474,-0.1167479853883433,0.04288110186378167,705.0,6.8206119581281826,0.6134764101318261,9.05787491992918,-0.04380384362556876,0.052,0.9999999999996312,3139.1290593559775,1.0828486482828816,218,2026-10-07 22:31:48.959244,26.6,0.0267949079476971,0.3311015676146906,0.36152311031144835
0401,cdot_cos,T,S-T,219,43,33061,-0.31957190667197966,-0.23701581976496952,-0.3361275804726924,0.0001308937617355282,705.0,6.836247319423915,0.6134765643016312,9.07862838178673,-0.03652389677657758,0.186,0.9999999999996219,47220.31556162137,1.0878160078222041,219,2026-10-07 22:31:49.145243,26.6,0.8192875953513935,0.28197934071697345,0.08406108223512102
0401,cdot_cos,P,T-P,220,44,33386,0.04882459416962795,-0.0005381722199565488,0.3683965008416076,0.9999445152532696,706.0,6.925508272874897,0.6146536569396855,9.116791415350917,-0.20987538924152388,0.325,0.9999999999996212,-147.27090023389152,1.0927835749069585,220,2026-10-07 22:31:49.470243,26.6,0.43780861448490416,0.1678270784406412,0.2746490875414819
0401,cdot_cos,Q,P-Q,221,44,33497,-0.05767037348358431,-0.07321500826486126,-0.10649496765321226,0.05557902465245754,706.0,6.945334920410332,0.6147190430373086,9.138460089912643,-0.0469840960808348,0.111,0.9999999999996112,2491.2221264478612,1.0977508258250825,221,2026-10-07 22:31:49.581243,26.6,0.031212227801284086,0.4912664916154988,0.17861844626518172
0401,cdot_cos,R,Q-R,222,44,33527,0.13227886206822623,0.41463703896231174,0.18994923555181054,0.9936482295533913,706.0,7.034569434013537,0.6158873223781022,9.176519007700604,-0.21288320601454863,0.03,0.9999999999996101,-142.0029475322458,1.1027179561085318,222,2026-10-07 22:31:49.611244,26.6,0.45872867248653904,1.8915329677463049,2.9744837867735185
0401,cdot_cos,S,R-S,223,44,33574,0.0550695230417448,-0.10273913151061294,-0.07720933902648143,0.11367215705195058,706.0,7.05882689847511,0.6160208872075553,9.1991581643277,-0.0583322334925329,0.047,0.9999999999996014,1157.123272307472,1.10768511310592,223,2026-10-07 22:31:49.658243,26.6,0.07068688694358732,0.4266913727206053,0.5161162651398453
0401,cdot_cos,T,S-T,224,44,33767,-0.22585248090409085,-0.041280901598966836,-0.28092200394583566,0.0005681678716102766,706.0,7.074678423049274,0.6160215547610949,9.219771004582892,-0.038226824464981754,0.193,0.9999999999995921,30118.04722192793,1.1126524932837027,224,2026-10-07 22:31:49.851244,26.6,0.5909934881985934,0.2748798877131602,0.08213225167960708
0401,cdot_cos,P,T-P,225,45,34092,0.0686710192714736,0.002336484585267548,0.29452350017556445,0.9996042472600303,689.0,7.16493053513239,0.6171953338794798,9.257934701518995,-0.21902804461383818,0.325,0.9999999999995914,-154.0334270025488,1.1176200794241131,225,2026-10-07 22:31:50.176243,26.6,0.43802879010840023,0.17282958808480203,0.27769880640958666
0401,cdot_cos,Q,P-Q,226,45,34199,-0.021744355426826806,-0.033824027372743926,-0.0904153746983004,0.08278849690442142,689.0,7.187017655304396,0.6172924867089661,9.279945768626122,-0.054019733288390305,0.107,0.9999999999995813,1698.4406135974943,1.1225873291752335,226,2026-10-07 22:31:50.283243,26.6,0.047141893008593665,0.5214651816555279,0.20642168385052007
0401,cdot_cos,R,Q-R,227,45,34230,0.13257423186834003,0.4252564160020743,0.15431858729516684,0.9837754863836027,689.0,7.276524084006673,0.6184462342804342,9.317836954751582,-0.22035910628305652,0.031,0.9999999999995806,-144.1731077994824,1.127554460777577,227,2026-10-07 22:31:50.314244,26.6,0.4700783449442345,1.7426989901866383,2.887304151686365
0401,cdot_cos,S,R-S,228,45,34274,0.006461653631763842,-0.02482837307791051,-0.12611257823657618,0.03374503049484252,689.0,7.295064992695967,0.6184857860054803,9.338935484966678,-0.04598571047124286,0.044,0.9999999999995709,4408.743123303658,1.1325216138217349,228,2026-10-07 22:31:50.358243,26.6,0.022552622554546826,0.39237534987041583,0.4213842883930513
0401,cdot_cos,T,S-T,229,45,34464,-0.3390865169813632,-0.20606434543802402,-0.34554817061312704,0.00010188322772421154,689.0,7.3110531147952695,0.6184859054179417,9.359395010672186,-0.039748175771362255,0.19,0.9999999999995604,52235.20752071023,1.1374889994207797,229,2026-10-07 22:31:50.548243,26.6,0.8547670411225201,0.2822607280578908,0.08414801104895966
0401,cdot_cos,P,T-P,230,46,34781,0.01922624482251517,0.0011835702821063423,0.3583127618038784,0.9999274469122839,702.0,7.402324069357966,0.6196571808167786,9.397571464778455,-0.22830535162995994,0.317,0.9999999999995596,-160.98449266999208,1.1424565915053593,230,2026-10-07 22:31:50.865243,26.6,0.4378411689108691,0.17613719397006974,0.28792099231134444
0401,cdot_cos,Q,P-Q,231,46,34892,-0.08606324027340383,-0.095220442121112,-0.105289485095919,0.05728634454473926,702.0,7.422724095772294,0.6197242417455117,9.41899821139459,-0.0514124712639639,0.111,0.9999999999995486,2637.7934768847017,1.147423852441977,231,2026-10-07 22:31:50.976243,26.6,0.03204350033246238,0.503292023488664,0.183784021750703
0401,cdot_cos,R,Q-R,232,46,34923,0.11318433399143953,0.3699382585576752,0.19924757426484335,0.9950331265671504,702.0,7.514054898572449,0.6208883232948222,9.457094435996998,-0.23163239633494015,0.031,0.9999999999995483,-154.81726789477102,1.152390983800982,232,2026-10-07 22:31:51.007244,26.6,0.4593040685215335,2.2116515656275797,2.94615492903727
0401,cdot_cos,S,R-S,233,46,34975,0.09646203950204672,-0.16220770763725295,-0.016722294489392803,0.39059471920737515,702.0,7.559846492841204,0.6213448977101321,9.484423488768806,-0.11714733874790861,0.052,0.9999999999995411,250.74786003794924,1.1573581510192732,233,2026-10-07 22:31:51.059244,26.6,0.37633556291135245,0.5974484389191109,0.880607582091434
0401,cdot_cos,T,S-T,234,46,35159,-0.14085602329920063,-0.024590284205696943,-0.23731806280124734,0.0018099210897298786,702.0,7.576189536220037,0.6213470128653893,9.504786903664792,-0.04198220358369784,0.184,0.9999999999995312,35536.462351680544,1.1623255388103095,234,2026-10-07 22:31:51.243244,26.6,0.16689261236428427,0.2945606763069421,0.08882088792844003
0401,cdot_cos,P,T-P,235,47,35483,0.07237443850024684,0.00043681979864122533,0.2132304617994475,0.9965705850222208,706.0,7.668244821722158,0.622510947310407,9.542917490203097,-0.23787883936412196,0.324,0.9999999999995306,-168.30555760160644,1.1672931646962574,235,2026-10-07 22:31:51.567244,26.6,0.4388865438325466,0.17438785554190495,0.28412125154975837
0401,cdot_cos,Q,P-Q,236,47,35592,-0.030452940483828628,-0.04441995875327379,-0.10282737898407547,0.060927486973288564,706.0,7.689192866611191,0.6225820613009817,9.564292671596318,-0.054528795675274175,0.109,0.999999999999519,2578.2555894719408,1.1722604283877032,236,2026-10-07 22:31:51.676243,26.6,0.03465045574625075,0.5177295230356127,0.19218389806452
0401,cdot_cos,R,Q-R,237,47,35623,0.13941990432423743,0.4143770585131498,0.16987284480806605,0.9892135303157479,706.0,7.781109857743922,0.6237359219100975,9.602298081644872,-0.24073128377989877,0.031,0.9999999999995186,-161.37346801994377,1.1772275597644914,237,2026-10-07 22:31:51.707244,26.6,0.4614014116522088,1.7977305265232006,2.965064230088093
0401,cdot_cos,S,R-S,238,47,35674,0.020936000243104626,-0.04824821622790655,-0.1184839040811328,0.04102545322903631,706.0,7.8006521592556295,0.6237837455342897,9.62327255334058,-0.05154759434014017,0.051,0.9999999999995076,3955.862664850337,1.1821947265968147,238,2026-10-07 22:31:51.758244,26.6,0.02547448409545806,0.3522028406810833,0.383182382582501
0401,cdot_cos,T,S-T,239,47,35856,-0.3098064076035333,-0.07631506421031209,-0.3307424078466379,0.000151050081554977,706.0,7.817034547493392,0.6237839216098454,9.64347105271966,-0.043312174888886966,0.182,0.9999999999994971,46772.07701502763,1.187162120767678,239,2026-10-07 22:31:51.940243,26.6,0.826842556088803,0.30128509256818975,0.09001312218551069
0401,cdot_cos,P,T-P,240,48,36189,0.0833550009878043,0.002249172268412512,0.3931614085913376,0.9999712858975995,685.0,7.9103199329504505,0.6249488460664778,9.68167164069047,-0.24805538745669614,0.333,0.9999999999994962,-175.75664361935148,1.1921297816625591,240,2026-10-07 22:31:52.273243,26.6,0.43806274317663224,0.17127893219211038,0.28013629266383816
0401,cdot_cos,Q,P-Q,241,48,36296,-0.022796743609400264,-0.036262776042297204,-0.10615174459720456,0.05606019329554606,685.0,7.931106316333338,0.6250141111636583,9.702834205374044,-0.05567015966598282,0.107,0.9999999999994841,2947.7505757568742,1.1970970466471818,241,2026-10-07 22:31:52.380243,26.6,0.031561880193926896,0.5285638051616197,0.19426526526062998
0401,cdot_cos,R,Q-R,242,48,36328,0.12779306799737794,0.42166761812807113,0.1505898116067782,0.9821139979172705,685.0,8.023432587255037,0.626156746225105,9.740718997651209,-0.24872907714255962,0.032,0.9999999999994831,-168.95938518826418,1.202064179433054,242,2026-10-07 22:31:52.412243,26.6,0.4601597637327081,1.8703628809626227,2.8851959663031
0401,cdot_cos,S,R-S,243,48,36387,0.059454259829471334,-0.0755513914009477,-0.0683388081679066,0.1396965870640309,685.0,8.050809540714946,0.6263191615140261,9.763355501782092,-0.07429449288922454,0.059,0.999999999999473,1074.003472284159,1.2070313617359358,243,2026-10-07 22:31:52.471244,26.6,0.09557152034168909,0.3743213887771456,0.46401616033743476
0401,cdot_cos,T,S-T,244,48,36562,-0.15697377222234635,-0.03574185385366442,-0.21642803205181768,0.0031506664005844674,685.0,8.06760251113074,0.6263228242416601,9.783481314799987,-0.04569715131793919,0.175,0.999999999999461,7807.662602610972,1.2119987535680115,244,2026-10-07 22:31:52.646244,26.6,0.5348326383308519,0.31681460257246385,0.09595983094739731
0401,cdot_cos,P,T-P,245,49,36874,0.07291352456730275,0.004261922308108415,0.2298872967896491,0.9977953998589476,706.0,8.161694651615308,0.6274820556404445,9.821653863421057,-0.257481457521819,0.312,0.9999999999994608,-182.69372829787605,1.216966397265237,245,2026-10-07 22:31:52.958244,26.6,0.4393220417262079,0.1866542517657576,0.3015773733479738
0401,cdot_cos,Q,P-Q,246,49,36989,-0.02225818285745259,-0.037240586475099396,-0.09517170742475534,0.07367460409128838,706.0,8.184074764232573,0.6275675923596179,9.84301942522639,-0.06167655429758388,0.115,0.9999999999994488,2289.1327270479883,1.2219336822113451,246,2026-10-07 22:31:53.073244,26.6,0.041806409465727334,0.5015330977653537,0.19460967493273837
0401,cdot_cos,R,Q-R,247,49,37020,0.12055925041447299,0.4365420305181338,0.1428174332719256,0.9780961107383351,706.0,8.27704726410134,0.628702410078057,9.88084037986977,-0.2577066236802612,0.031,0.9999999999994472,-172.74145988159273,1.2269008130107357,247,2026-10-07 22:31:53.104243,26.6,0.4673525209180077,1.831241820714616,2.9991128989924656
0401,cdot_cos,S,R-S,248,49,37078,0.008998557865403035,-0.02662101427950896,-0.11156069254906996,0.048915228817623155,706.0,8.29761175711688,0.6287591259086847,9.901715034830561,-0.05739145099212213,0.058,0.999999999999436,3531.909353552391,1.2318679951729654,248,2026-10-07 22:31:53.162244,26.6,0.03049077159533367,0.32151471068391374,0.35456022440585777
0401,cdot_cos,T,S-T,249,49,37249,-0.3041189262303001,-0.22137217326608705,-0.31311748409570317,0.00024137315058800097,706.0,8.314342970540674,0.6287594057652598,9.921662518407832,-0.04679857994377481,0.171,0.9999999999994238,37851.07083225337,1.2368353891520227,249,2026-10-07 22:31:53.333244,26.6,0.7974387365606349,0.3273204965063347,0.09784335335552188
0401,cdot_cos,P,T-P,250,50,37580,0.06597583294789866,0.004500667311738606,0.3700947591781988,0.9999469658031951,701.0,8.409555366922046,0.6299180361318225,9.959885216602833,-0.2677671869381606,0.331,0.9999999999994234,-190.7153595930065,1.2418030879515005,250,2026-10-07 22:31:53.664243,26.6,0.43813569684203435,0.1796621274068657,0.2876507443545989
0401,cdot_cos,Q,P-Q,251,50,37695,-0.02195655457588251,-0.035429431076219854,-0.08793238752378117,0.08794397074657617,701.0,8.433279298884019,0.6300198647652228,9.981398588652823,-0.06718603132067646,0.115,0.9999999999994101,1969.7912946457873,1.246770378338964,251,2026-10-07 22:31:53.779244,26.6,0.0505163009114592,0.5128355834440543,0.2062950605388945
0401,cdot_cos,R,Q-R,252,50,37722,0.12876219773419745,0.4359190792946302,0.15071875231007997,0.9821741469825855,701.0,8.527507551114178,0.6311563176360856,10.01930276720702,-0.26838039319760476,0.027,0.9999999999994093,-177.0371363699176,1.2517375010401943,252,2026-10-07 22:31:53.806243,26.6,0.4725266277558831,2.1043924565922354,3.48993526778369
0401,cdot_cos,S,R-S,253,50,37765,0.0002436956258868809,-0.002687371753826375,-0.12851850210831056,0.03171943944034684,701.0,8.54691649154,0.6311929953573705,10.0397460410153,-0.055648535244777295,0.043,0.9999999999993968,5800.029295723318,1.2567046556014694,253,2026-10-07 22:31:53.849244,26.6,0.0218670243465246,0.42215534270861377,0.4513707075772346
0401,cdot_cos,T,S-T,254,50,37959,-0.30772018440303045,-0.07979590988075218,-0.30796388002891734,0.00027682747643511483,701.0,8.563812910587119,0.6311933154509637,10.059572975717233,-0.04854772832698147,0.194,0.9999999999993838,22183.53340690183,1.2616721038031622,254,2026-10-07 22:31:54.043243,26.6,0.8639292044865551,0.2913754555080423,0.08709494354185408
0401,cdot_cos,P,T-P,255,51,38281,0.06945502882585368,0.002515030498801888,0.37717521322888414,0.9999560696267363,714.0,8.65997016827712,0.6323488018348986,10.09780758070788,-0.2777459063908232,0.322,0.9999999999993839,-198.35645079894792,1.2666398055797514,255,2026-10-07 22:31:54.365243,26.6,0.4381437952054027,0.1850280920022341,0.2986250238819898
0401,cdot_cos,Q,P-Q,256,51,38394,-0.024479940788503903,-0.038844381306455816,-0.09393496961435759,0.07595145711951146,714.0,8.682971001836558,0.6324365046717754,10.118991290525852,-0.06688983326676205,0.113,0.9999999999993698,2404.2104067894893,1.2716070975117266,256,2026-10-07 22:31:54.478244,26.6,0.04275415851154242,0.5222795990402586,0.20354719964104467
0401,cdot_cos,R,Q-R,257,51,38425,0.12317572484737871,0.40660560950454694,0.14765566563588262,0.9806901400737492,714.0,8.778005357660218,0.6335681405352975,10.156877234716966,-0.2778945777731458,0.031,0.9999999999993692,-186.4599305377629,1.2765742275400545,257,2026-10-07 22:31:54.509243,26.6,0.46799493269766396,1.8701368751902097,3.065624381408399
0401,cdot_cos,S,R-S,258,51,38474,0.011107971957419083,-0.03157818892095096,-0.11206775288995963,0.048291546042944326,714.0,8.79891948809835,0.6336238270817175,10.177512964965253,-0.06155820274564714,0.049,0.9999999999993564,3884.8948073738034,1.281541394637472,258,2026-10-07 22:31:54.558244,26.6,0.02976748128764325,0.38760775745905873,0.4268189885333187
0401,cdot_cos,T,S-T,259,51,38660,-0.2788620965169481,-0.045467132668641094,-0.2899700684743672,0.00044668781444878676,714.0,8.815990917891206,0.6336243421552491,10.1972260515445,-0.05035624551687879,0.186,0.9999999999993425,21748.26804608848,1.2865088378687177,259,2026-10-07 22:31:54.744244,26.6,0.8005516883895363,0.30686086574713783,0.09178188060674808
0401,cdot_cos,P,T-P,260,52,38995,0.042957620099499556,-0.001359024031378901,0.32181971661644765,0.9998084948746483,702.0,8.913071730156286,0.6347764491827899,10.235470126789789,-0.2878346721378567,0.335,0.9999999999993422,-206.1253173048422,1.2914765864329107,260,2026-10-07 22:31:55.079243,26.6,0.43821242604247246,0.18513726641092737,0.2897934694480004
0401,cdot_cos,Q,P-Q,261,52,39104,-0.03103813302485616,-0.043641323604519985,-0.07399575312435572,0.1225729953781015,702.0,8.940032886386527,0.634917587607313,10.257415227776903,-0.08048315402201843,0.109,0.9999999999993285,1469.135841755595,1.2964438756224153,261,2026-10-07 22:31:55.188244,26.6,0.07605227110789574,0.5679685486207006,0.24735005715817615
0401,cdot_cos,R,Q-R,262,52,39131,0.149509750590005,0.4089158701837554,0.18054788361486115,0.9918582390565198,702.0,9.036888873755599,0.6360588222649345,10.29551920691563,-0.2907465833454129,0.027,0.9999999999993275,-184.2420644336315,1.3014109969640637,262,2026-10-07 22:31:55.215244,26.6,0.48520464748875614,2.1668508110317233,3.5872587914470935
0401,cdot_cos,S,R-S,263,52,39189,0.026245170175858312,-0.057581523206118146,-0.12326458041414667,0.03630435423950375,702.0,9.05704283018224,0.6361005652085379,10.315825380826247,-0.06088985394709424,0.058,0.999999999999314,5506.481085338295,1.3063781838050808,263,2026-10-07 22:31:55.273243,26.6,0.022938020823245163,0.32237820029712044,0.3474820073558884
0401,cdot_cos,T,S-T,264,52,39358,-0.2603264086999312,-0.04579086356647703,-0.2865715788757895,0.0004889291107588436,702.0,9.074284744990065,0.6361011273679024,10.335427761370145,-0.05219952094632075,0.169,0.9999999999993,15458.842366615274,1.3113456025029928,264,2026-10-07 22:31:55.442244,26.6,0.8466372071305917,0.3409344608193923,0.1020231645433399
0401,cdot_cos,P,T-P,265,53,39697,0.030136163830981395,0.002227483445528371,0.29046257253091257,0.9995591233395689,719.0,9.172278677939195,0.6372496184754028,10.373680113410906,-0.29815498022757836,0.339,0.9999999999992991,-214.15530139936615,1.3163133816146504,265,2026-10-07 22:31:55.781244,26.6,0.4382679168604019,0.1780656869473174,0.2890676488174931
0401,cdot_cos,Q,P-Q,266,53,39808,-0.06875806358124524,-0.07543398669717807,-0.09889422741222664,0.06719568237494306,719.0,9.195013280740346,0.6373267701694882,10.394493219612503,-0.06962330618227756,0.111,0.9999999999992842,2962.1083082419846,1.3212806803377353,266,2026-10-07 22:31:55.892244,26.6,0.03753798511654916,0.5438158099131216,0.20481624145181104
0401,cdot_cos,R,Q-R,267,53,39839,0.1272536879132116,0.3712831895879949,0.19601175149445682,0.9945890910682708,719.0,9.293005787739908,0.6384678931868428,10.43265956669666,-0.3016570715102872,0.031,0.999999999999284,-203.33808169598004,1.3262478095226689,267,2026-10-07 22:31:55.923244,26.6,0.4633849389434095,2.301485481532159,3.1610486128890956
0401,cdot_cos,S,R-S,268,53,39894,0.1016275170975045,-0.16994557943158708,-0.02562617081570709,0.33589176877437504,719.0,9.33770538059534,0.6388529203855176,10.458481282090029,-0.13859972692155192,0.055,0.9999999999992735,423.4956521253128,1.331214991698479,268,2026-10-07 22:31:55.978244,26.6,0.3083677435667719,0.5657836445518911,0.8127198700987619
0401,cdot_cos,T,S-T,269,53,40071,-0.13995539605193674,-0.015601587375954134,-0.24158291314944125,0.0016161266914074565,719.0,9.355241988640616,0.6388547724941047,10.478005600553708,-0.05455718368967056,0.177,0.9999999999992589,45376.68245498749,1.3361824391152861,269,2026-10-07 22:31:56.155244,26.6,0.2142849280776677,0.32791261282182144,0.09907688161172952
0401,cdot_cos,P,T-P,270,54,40416,0.0555705645366658,-0.0009226522723741273,0.19552596058860255,0.9945191031013637,721.0,9.453786445534265,0.639993723418277,10.516178367255494,-0.3080552904134494,0.345,0.9999999999992586,-222.5715799897251,1.3411502568457088,270,2026-10-07 22:31:56.500243,26.6,0.4391570965301284,0.17608260959984834,0.2856361069381121
0401,cdot_cos,Q,P-Q,271,54,40523,-0.04357394577138892,-0.052197608014999605,-0.09914451030805471,0.06677958637057259,721.0,9.476738989264511,0.6400701449743017,10.536893101912941,-0.07220768323907045,0.107,0.999999999999242,3086.1398202634255,1.3461175531423355,271,2026-10-07 22:31:56.607244,26.6,0.03814960875899128,0.569514868557612,0.21450975448828682
0401,cdot_cos,R,Q-R,272,54,40552,0.15058800395474367,0.37288589548134055,0.1941619497261326,0.994317740509127,721.0,9.575662627405594,0.6412071855003676,10.575068566790764,-0.31277802668246213,0.029,0.9999999999992415,-211.5758743232787,1.3510846776349332,272,2026-10-07 22:31:56.636243,26.6,0.4634110574574021,2.08395339633811,3.411159935899389
0401,cdot_cos,S,R-S,273,54,40605,0.04229333804676895,-0.10609508436881501,-0.10829466590797472,0.05311903181155846,721.0,9.597608286252122,0.6412678846518034,10.595493104497773,-0.06982309064585177,0.053,0.9999999999992266,4002.6084432754365,1.3560518568316904,273,2026-10-07 22:31:56.689243,26.6,0.030820394228464457,0.37333594273070986,0.41406903484015295
0401,cdot_cos,T,S-T,274,54,40785,-0.22567843214682135,-0.019326591371684455,-0.2679717701935903,0.0008016399039158671,721.0,9.615236237335049,0.6412688006515777,10.614896209857836,-0.05620142245118525,0.18,0.9999999999992114,14870.820471288873,1.3610193212989385,274,2026-10-07 22:31:56.869244,26.6,0.7847639531371032,0.3262669634751426,0.09793306157181744
0401,cdot_cos,P,T-P,275,55,41137,0.03840898572628602,-0.003717944953368365,0.26408741787310736,0.9991111788571202,710.0,9.715064393103173,0.642409639639711,10.65316761069183,-0.31976712514168104,0.352,0.9999999999992106,-231.02795874968183,1.3659871777280805,275,2026-10-07 22:31:57.221244,26.6,0.4385670153385593,0.17193269876919492,0.28360271525035285
0401,cdot_cos,Q,P-Q,276,55,41238,-0.07806330510765871,-0.07278248276640609,-0.11647229083394472,0.04318309565722567,710.0,9.736276857268562,0.6424589121729741,10.673338294344767,-0.06836856788997886,0.101,0.9999999999991933,5102.204831017774,1.3709544653588792,276,2026-10-07 22:31:57.322243,26.6,0.02529604401168028,0.6007574326269992,0.21002439767711903
0401,cdot_cos,R,Q-R,277,55,41267,0.15874390525599488,0.3579331007202545,0.2368072103636536,0.9981653620486045,710.0,9.836417394493827,0.6435969922356735,10.711598043331596,-0.3243098863354261,0.029,0.9999999999991925,-224.88867596748702,1.3759215891280916,277,2026-10-07 22:31:57.351244,26.6,0.4542136799854323,2.120636261685376,3.4531219732849943
0401,cdot_cos,S,R-S,278,55,41322,0.056477584013398856,-0.13817660508417162,-0.10226632124259602,0.06178699250556147,710.0,9.859273760446314,0.6436673869117251,10.732089345255186,-0.07448004997421735,0.055,0.9999999999991772,3548.9876560830367,1.3808887740453095,278,2026-10-07 22:31:57.406244,26.6,0.03493315640484462,0.3696240374317645,0.4155702900452176
0401,cdot_cos,T,S-T,279,55,41508,-0.20199512415989349,-0.013175440963461786,-0.2584727081732923,0.0010318454142431818,710.0,9.877076038611321,0.6436685624531312,10.751393990809394,-0.05813041138619985,0.186,0.9999999999991608,13908.177545330745,1.38585626299855,279,2026-10-07 22:31:57.592243,26.6,0.7548336237766489,0.3184325066495556,0.09571117293014583
0401,cdot_cos,P,T-P,280,56,41847,0.036141569649180846,-0.0029028597957461615,0.23813669380907432,0.9982289959431275,708.0,9.977730652919949,0.6448049932680339,10.789660740647395,-0.3301709675566188,0.339,0.9999999999991602,-239.38153788422102,1.3908241124822456,280,2026-10-07 22:31:57.931243,26.6,0.43870044659809215,0.18000846150954242,0.29691626639713137
0401,cdot_cos,Q,P-Q,281,56,41950,-0.08040987959788237,-0.08261509270337178,-0.11655144924706322,0.04309617887713926,708.0,9.99912177551479,0.644854019337931,10.809732931214738,-0.07059491873386141,0.103,0.999999999999142,5294.653423527525,1.395791409545678,281,2026-10-07 22:31:58.034244,26.6,0.02529928323342523,0.5939604659731653,0.207680801891672
0401,cdot_cos,R,Q-R,282,56,41980,0.14199743961519218,0.34779298183851837,0.22240731921307455,0.9973113792056162,708.0,10.10008650891042,0.6459877064486338,10.847988142543626,-0.3347615156385857,0.03,0.999999999999141,-233.0154364557907,1.400758534991107,282,2026-10-07 22:31:58.064243,26.6,0.4542449112484948,2.421189444267835,3.3654911131876615
0401,cdot_cos,S,R-S,283,56,42039,0.1129865731393161,-0.20997460906493168,-0.029010866475876085,0.31611384451576924,708.0,10.14439314217086,0.6463467052662639,10.873244426992654,-0.14789822624357235,0.059,0.9999999999991296,520.5122697299116,1.405725731045398,283,2026-10-07 22:31:58.123244,26.6,0.2826746685189724,0.5287199206042393,0.750959885770174
0401,cdot_cos,T,S-T,284,56,42210,-0.11888732132652848,-0.009474630643666531,-0.23187389446584455,0.002091363264442163,708.0,10.16247545954172,0.6463490798013846,10.89247820544721,-0.06054572912224071,0.171,0.9999999999991125,36787.19946569004,1.4106931967784795,284,2026-10-07 22:31:58.294244,26.6,0.23627653097123488,0.34621572430994396,0.10574454602842086
0401,cdot_cos,P,T-P,285,57,42555,0.034117194622466054,0.003290073532061828,0.15300451594899453,0.983208033215609,737.0,10.262798919884862,0.6474646135797295,10.93047075048814,-0.3373909473079726,0.345,0.9999999999991112,-248.1728689528984,1.4156610867313388,285,2026-10-07 22:31:58.639244,26.6,0.4401906887456917,0.18154731633749674,0.2907926386757707
0401,cdot_cos,Q,P-Q,286,57,42672,-0.05630231508681164,-0.06624495132586357,-0.0904195097092777,0.08278014514714205,737.0,10.287743107814594,0.6475584616039395,10.951217643455898,-0.08439236720760743,0.117,0.9999999999990937,2695.8327810323217,1.4206284238726332,286,2026-10-07 22:31:58.756243,26.6,0.04989249817111191,0.5401149022044388,0.21319818743360558
0401,cdot_cos,R,Q-R,287,57,42701,0.12473974897064143,0.3710937867901628,0.18104206405745307,0.9919637093134858,737.0,10.3891858070007,0.6486821654590897,10.989383239499329,-0.34481269075411036,0.029,0.9999999999990918,-231.75173988495388,1.4255955464149965,287,2026-10-07 22:31:58.785243,26.6,0.46989239244069453,2.20452354768128,3.498024109865752
0401,cdot_cos,S,R-S,288,57,42744,0.0416706458328732,-0.08495916494549842,-0.08306910313776822,0.09888831332243735,737.0,10.415605473580108,0.6487940968587116,11.010411388801572,-0.09034493822979262,0.043,0.9999999999990757,2273.42598577365,1.4305627046024505,288,2026-10-07 22:31:58.828243,26.6,0.059807491757277814,0.5180371959759819,0.6144108506838936
0401,cdot_cos,T,S-T,289,57,42929,-0.22810773734023834,-0.01652937333708068,-0.26977838317311154,0.0007640561012442977,737.0,10.433737005854635,0.6487949616279535,11.029524831102213,-0.06213547446400027,0.185,0.9999999999990581,32620.799167658868,1.435530215648031,289,2026-10-07 22:31:59.013243,26.6,0.6350831588546915,0.3262694775695674,0.09800828256501092
0401,cdot_cos,P,T-P,290,58,43292,0.06395680498910604,0.00027322245096247157,0.29206454232934437,0.9995775077301322,717.0,10.536325180280848,0.6499254591058887,11.067842392879982,-0.3530736813012131,0.363,0.9999999999990571,-257.3541405581758,1.4404981749471182,290,2026-10-07 22:31:59.376243,26.6,0.43866662141618623,0.17605575354725173,0.28261205076091717
0401,cdot_cos,Q,P-Q,291,58,43401,-0.026100976359750432,-0.035869049104445175,-0.09005778134885647,0.08351365751015706,717.0,10.56155348292994,0.6500198350047625,11.088518727111566,-0.08734565439516034,0.109,0.9999999999990382,2815.6343947682467,1.4454654980327828,291,2026-10-07 22:31:59.485244,26.6,0.04772699412482095,0.585260735827327,0.2314523178815763
0401,cdot_cos,R,Q-R,292,58,43428,0.15666411444683415,0.40048295241542686,0.18276509080658457,0.9923209550580776,717.0,10.663912020691205,0.6511403220505343,11.126701775944742,-0.3560007371069801,0.027,0.9999999999990364,-239.76634422110604,1.4504326146751134,292,2026-10-07 22:31:59.512243,26.6,0.47017630094297563,2.2633018919771892,3.7910569541209433
0401,cdot_cos,S,R-S,293,58,43484,0.008384567436070954,-0.030548651993844537,-0.14827954701076318,0.018998090154175726,717.0,10.683771785096708,0.6511617576508173,11.14610497192521,-0.06946760768163786,0.056,0.9999999999990181,13367.161434360654,1.4553998063979525,293,2026-10-07 22:31:59.568243,26.6,0.016168323877428795,0.34005179271068275,0.3546386500982633
0401,cdot_cos,T,S-T,294,58,43669,-0.3326776141939997,-0.20434743898414226,-0.3410621816300707,0.0001147942879055346,717.0,10.701997821474801,0.6511618871716869,11.165111670039032,-0.06386671241504856,0.185,0.9999999999989997,43243.18763865951,1.4603673284873413,294,2026-10-07 22:31:59.753243,26.6,0.9160387358466997,0.32898205085797716,0.09851911555726338
0401,cdot_cos,P,T-P,295,59,44009,0.0669116523590141,-0.000695504946158471,0.3995892665530138,0.9999757985665246,705.0,10.80549514391416,0.6522892976755664,11.203447890206812,-0.36418448681405285,0.34,0.9999999999989986,-266.3783718224884,1.4653352532968584,295,2026-10-07 22:32:00.093244,26.6,0.43839678295539025,0.18543003489044754,0.304403889527523
0401,cdot_cos,Q,P-Q,296,59,44118,-0.04357951213467139,-0.053225947808736934,-0.11049116449368548,0.05025588335995834,705.0,10.828090245200306,0.652345913162247,11.223395093707156,-0.07996732118064301,0.109,0.9999999999989782,5020.131103650248,1.4703025816980126,296,2026-10-07 22:32:00.202244,26.6,0.028605210428428063,0.5765229776839087,0.20729450721235324
0401,cdot_cos,R,Q-R,297,59,44149,0.13217394431365118,0.398546767937607,0.17575345644832258,0.9907610207009827,705.0,10.931177153049251,0.6534611686607316,11.261557572367122,-0.36640693724686973,0.031,0.9999999999989764,-256.8376631681678,1.4752697078234347,297,2026-10-07 22:32:00.233243,26.6,0.457603262315384,2.0006748523394675,3.325384124159535
0401,cdot_cos,S,R-S,298,59,44203,0.0014239168338438175,-0.012376682092279651,-0.13075002747980735,0.02994615249064534,705.0,10.952132086045353,0.6534948515504768,11.281081942262778,-0.0749023822497505,0.054,0.9999999999989572,8654.380820700479,1.4802368954879697,298,2026-10-07 22:32:00.287244,26.6,0.020408723626638137,0.36540159737587896,0.38805431474261864
0401,cdot_cos,T,S-T,299,59,44385,-0.2378258725097745,-0.03297361315908383,-0.23924978934361832,0.001719425077113702,705.0,10.970640525565846,0.6534967854819623,11.300027540210916,-0.06627664977229046,0.182,0.9999999999989374,4460.205825331094,1.4852044208494515,299,2026-10-07 22:32:00.469243,26.6,0.8779660247063951,0.33747374028152616,0.10169472264007431
0401,cdot_cos,P,T-P,300,60,44714,0.05860771585142434,0.0007868398650667168,0.2964335883611988,0.9996238451544268,718.0,11.074972527507828,0.654620257088453,11.338367375520855,-0.37512000820876745,0.329,0.9999999999989367,-274.90090239236935,1.490172339661321,300,2026-10-07 22:32:00.798244,26.6,0.43897236879797374,0.19588260456244583,0.31711854693611546
0401,cdot_cos,Q,P-Q,301,60,44825,-0.03808998294052142,-0.0494642108580106,-0.09669769879194576,0.07095186987833749,718.0,11.099531279367936,0.6546999340956053,11.358631597902704,-0.08880626369189062,0.111,0.9999999999989159,3593.4299586488487,1.4951396789169868,301,2026-10-07 22:32:00.909244,26.6,0.03979450401464664,0.5786085288143091,0.221250016757724
0401,cdot_cos,R,Q-R,302,60,44856,0.13523437401501706,0.38999248383346147,0.1733243569555385,0.9901504184270804,718.0,11.203423620904605,0.6558109377495128,11.396791360517968,-0.3772817986613123,0.031,0.9999999999989141,-259.6530929082291,1.50010680447232,302,2026-10-07 22:32:00.940243,26.6,0.4655128568512086,2.059451995483168,3.351365856021589
0401,cdot_cos,S,R-S,303,60,44903,0.03234905330345646,-0.06985259380078908,-0.1028853207115606,0.0608393635037388,718.0,11.227217303087892,0.6558791475006974,11.416831938986512,-0.08689256192710759,0.047,0.9999999999988947,4257.29799172418,1.5050739744089012,303,2026-10-07 22:32:00.987243,26.6,0.03536847679404396,0.4506656899808032,0.5062485570912159
0401,cdot_cos,T,S-T,304,60,45091,-0.242820413005197,-0.124118336490102,-0.27516946630865347,0.0006620496050949826,718.0,11.2457861957628,0.6558798897189948,11.435669030516546,-0.06794007717107316,0.188,0.9999999999988745,25534.919878669163,1.510041527638655,304,2026-10-07 22:32:01.175244,26.6,0.7565710470596825,0.3291743301401912,0.09877070571759763
0401,cdot_cos,P,T-P,305,61,45432,0.05846534312813159,0.0010235341912629675,0.3012857561333286,0.9996693769954703,713.0,11.350986851220604,0.6569997410658339,11.474019770666798,-0.38642810009011463,0.341,0.9999999999988729,-284.4020537350808,1.5150095026001917,305,2026-10-07 22:32:01.516243,26.6,0.438592550120176,0.19079865959076633,0.30850632099062625
0401,cdot_cos,Q,P-Q,306,61,45545,-0.03716521856481617,-0.054619666074269164,-0.09563056169294776,0.07284594017615426,713.0,11.375910881603703,0.6570812765882671,11.494240880300667,-0.09206894139529048,0.113,0.9999999999988515,3610.1952855711447,1.519976853122727,306,2026-10-07 22:32:01.629244,26.6,0.040878123400910314,0.5732862043721542,0.22056664055839906
0401,cdot_cos,R,Q-R,307,61,45574,0.13161978474819439,0.4060989365465618,0.16878500331301055,0.9889003620324988,713.0,11.48054953340871,0.6581872215712744,11.532384789524087,-0.38813519192358636,0.029,0.9999999999988496,-267.704320809183,1.5249439724589682,307,2026-10-07 22:32:01.658243,26.6,0.4663627262505727,2.2613360276764576,3.6082293725864742
0401,cdot_cos,S,R-S,308,61,45621,0.04459122411089167,-0.08707030036014526,-0.08702856063730272,0.08989155912585532,713.0,11.507068371208938,0.6582876675391176,11.55291471387619,-0.09891661309144843,0.047,0.9999999999988299,2879.3448362568615,1.52991114307477,308,2026-10-07 22:32:01.705244,26.6,0.05372576850047198,0.48183337201583665,0.5642305914941871
0401,cdot_cos,T,S-T,309,61,45811,-0.2069638132724967,-0.02693586171413184,-0.25155503738338836,0.0012400484688296263,713.0,11.5258418703782,0.6582890530857385,11.571678615778096,-0.07016396263915112,0.19,0.9999999999988092,20751.846252588693,1.5348787141082656,309,2026-10-07 22:32:01.895243,26.6,0.663788115722383,0.32825611906816515,0.09880789036453606
0401,cdot_cos,P,T-P,310,62,46145,0.03844131637574975,0.002012427129668918,0.24540512964824643,0.9985398814299921,714.0,11.63180569645484,0.6594038756646899,11.610016527396532,-0.39754603758264834,0.334,0.9999999999988075,-293.66293895071203,1.5398466940815314,310,2026-10-07 22:32:02.229243,26.6,0.4388896222660653,0.19571151055235447,0.31725696430132005
0401,cdot_cos,Q,P-Q,311,62,46259,-0.05951864089330507,-0.07083031613589492,-0.09795995726905482,0.06877024503701035,714.0,11.656577159427172,0.6594805896689406,11.630080498206663,-0.09345000006008612,0.114,0.9999999999987853,3964.022481851251,1.5448140535628845,311,2026-10-07 22:32:02.343244,26.6,0.03861539691422481,0.5729259885303228,0.21729353484501668
0401,cdot_cos,R,Q-R,312,62,46287,0.12717203149741002,0.38050402781894904,0.1866906723907151,0.9930770885740876,714.0,11.762432821839754,0.6605874453321297,11.668314409902676,-0.4009451730616387,0.028,0.9999999999987836,-277.80963971003376,1.5497811692829089,312,2026-10-07 22:32:02.371244,26.6,0.464438681730978,2.4767127404565135,3.780559371877918
0401,cdot_cos,S,R-S,313,62,46334,0.06465694089186651,-0.12294631533550898,-0.06251509060554351,0.15937290153608263,714.0,11.795273072892737,0.6607649149454916,11.690138416444334,-0.12509257671950108,0.047,0.9999999999987639,1554.3652297225817,1.5547483407138434,313,2026-10-07 22:32:02.418243,26.6,0.11022984661781916,0.5504154687039826,0.69872874580815
0401,cdot_cos,T,S-T,314,62,46513,-0.20282720764321427,-0.02779445685427375,-0.2674841485350808,0.0008120969909496462,714.0,11.814171875897928,0.6607658191400554,11.708813903017857,-0.07214592245289371,0.179,0.9999999999987428,58556.704925755716,1.5597158930576476,314,2026-10-07 22:32:02.597243,26.6,0.48004144394184345,0.3513354383298489,0.10557990505693471
0401,cdot_cos,P,T-P,315,63,46859,0.06194910279362902,-0.0005231429792692883,0.2647763104368433,0.9991273036925199,712.0,11.921051159814823,0.6618773647346858,11.747171820288248,-0.4095272105423009,0.346,0.9999999999987411,-303.52447053831867,1.564683933321652,315,2026-10-07 22:32:02.943244,26.6,0.4387475065514148,0.18864847900004228,0.3088996644996954
0401,cdot_cos,Q,P-Q,316,63,46971,-0.04578916966086017,-0.057795472437123414,-0.10773827245448919,0.053868379053702606,712.0,11.944716623365958,0.6619372435780995,11.76686815670287,-0.09116938242729646,0.112,0.9999999999987176,5316.699688333296,1.5696512934737263,316,2026-10-07 22:32:03.055244,26.6,0.030441819663634993,0.5812027216599173,0.21129878170655925
0401,cdot_cos,R,Q-R,317,63,47001,0.13081998125405006,0.39178011095139137,0.17660915091491022,0.9909670601391536,712.0,12.051240569466644,0.6630378523873074,11.805067765238176,-0.411954152937987,0.03,0.9999999999987152,-291.461205677201,1.574618414300526,317,2026-10-07 22:32:03.085243,26.6,0.45900670369383306,2.2142239087781235,3.5507982033562278
0401,cdot_cos,S,R-S,318,63,47059,0.040421843138517384,-0.07979628797719798,-0.09039813811553268,0.08282331903759547,712.0,12.077570057892645,0.6631297595736021,11.825312014300943,-0.102372639484142,0.058,0.9999999999986939,3368.4146575998907,1.5795856190757083,318,2026-10-07 22:32:03.143244,26.6,0.04860324528383816,0.39194214109681574,0.45395669700000996
0401,cdot_cos,T,S-T,319,63,47245,-0.19686732044530958,-0.02355998849405294,-0.23728916358382696,0.00181131042461339,712.0,12.096705857833875,0.6631317694064909,11.843926602081565,-0.07454259811349308,0.186,0.9999999999986707,13846.942960268167,1.5845532036065293,319,2026-10-07 22:32:03.329243,26.6,0.6884282838966718,0.3410338745699626,0.10288064484532283
0401,cdot_cos,P,T-P,320,64,47571,0.0704438402637835,0.0013391515965537329,0.2673111607090931,0.9991841606090842,698.0,12.204434659232671,0.6642395649047339,11.882293237804827,-0.4211694430881783,0.326,0.9999999999986698,-312.8978638425946,1.5895212093083926,320,2026-10-07 22:32:03.655244,26.6,0.43910775904886007,0.20118372486325817,0.33045644600857677
0401,cdot_cos,Q,P-Q,321,64,47684,-0.040812401877580944,-0.05741736266755962,-0.11125624214136445,0.04929336526409986,698.0,12.22787764644472,0.66429416982738,11.901823530128794,-0.09213853205406972,0.113,0.9999999999986451,6025.663897862938,1.5944885785041136,321,2026-10-07 22:32:03.768243,26.6,0.028126425779055924,0.5767474710072159,0.20746006382343624
0401,cdot_cos,R,Q-R,322,64,47714,0.11869322040478048,0.4071282575013463,0.15950562228236143,0.9858368807103752,698.0,12.334779587680302,0.6653853106337035,11.939927674559113,-0.4217190754020507,0.03,0.999999999998643,-302.0513406133682,1.5994556986006243,322,2026-10-07 22:32:03.798244,26.6,0.45771122699440564,2.27637075736243,3.5633980411860833
0401,cdot_cos,S,R-S,323,64,47758,0.043104561204746636,-0.07198644079062166,-0.07558865920003384,0.1180883992680941,698.0,12.364459891886465,0.6655158945955553,11.960800432183646,-0.11771456327425164,0.044,0.9999999999986214,2328.0386642961926,1.604422862349937,323,2026-10-07 22:32:03.842243,26.6,0.07558053416166517,0.5552658509318974,0.6745523683218932
0401,cdot_cos,T,S-T,324,64,47948,-0.23295706371617497,-0.05949379276478756,-0.2760616249209216,0.0006465332274211697,698.0,12.383642982562309,0.6655166094721372,11.979314172571621,-0.0762322063521804,0.19,0.9999999999985979,58027.29865625892,1.6093904716065357,324,2026-10-07 22:32:04.032243,26.6,0.5803302767922957,0.3363271002862249,0.10096363513601933
0401,cdot_cos,P,T-P,325,65,48269,0.07958774127342907,0.004706705379706308,0.312544804989604,0.9997549227081055,703.0,12.49226418999523,0.6666211351863915,12.0176988212741,-0.4331664185162448,0.321,0.9999999999985965,-323.15609094264255,1.6143584862560978,325,2026-10-07 22:32:04.353244,26.6,0.4386682987452645,0.2072099832678223,0.3383838237785726
0401,cdot_cos,Q,P-Q,326,65,48382,-0.025206647884367495,-0.0396428983770303,-0.10479438915779657,0.058001721737246124,703.0,12.51667179182025,0.6666851593202646,12.037329742543811,-0.09784534859450975,0.113,0.9999999999985713,5237.416730798629,1.6193258618889874,326,2026-10-07 22:32:04.466244,26.6,0.032482567531132774,0.5839235408079098,0.21599647632761157
0401,cdot_cos,R,Q-R,327,65,48410,0.1294227658517392,0.40933599912283447,0.1546294137361067,0.9839069274772975,703.0,12.624230910217818,0.6677702886069575,12.075400388633241,-0.4327506517925707,0.028,0.9999999999985693,-308.6317061985618,1.6242929752014703,327,2026-10-07 22:32:04.494244,26.6,0.4612112882414786,2.355639788490769,3.8413970856274102
0401,cdot_cos,S,R-S,328,65,48455,0.023470244875758512,-0.04714646819098779,-0.1059525209759807,0.05634128191399059,703.0,12.648587619975734,0.6678323724263014,12.094974581712505,-0.0985011939935809,0.045,0.9999999999985455,5383.8417373679495,1.6292601426733528,328,2026-10-07 22:32:04.539244,26.6,0.03359579471240623,0.48504738549787085,0.5412602168425689
0401,cdot_cos,T,S-T,329,65,48646,-0.2765673718336134,-0.05905616171207588,-0.3000376167093719,0.0003417802937813089,703.0,12.667885174912627,0.6678327490244681,12.11340485385081,-0.07817619892166591,0.191,0.9999999999985208,53969.97880429091,1.634227767626751,329,2026-10-07 22:32:04.730243,26.6,0.7710596404393212,0.3370580489441312,0.10103431904132346
0401,cdot_cos,P,T-P,330,66,48972,0.05767826527928724,0.00459418352500942,0.3342456371129007,0.9998623878819048,729.0,12.777343794672392,0.6689335493522146,12.151797526734194,-0.4449370172613232,0.326,0.9999999999985187,-333.17651629925234,1.639195821460065,330,2026-10-07 22:32:05.056243,26.6,0.4385426183464938,0.20921522874761406,0.3357626372998937
0401,cdot_cos,Q,P-Q,331,66,49083,-0.03207653178064887,-0.04507109576180135,-0.08975479705993611,0.08413258974701,729.0,12.804293504056071,0.6690260912236088,12.171879449878007,-0.1101193426911594,0.111,0.9999999999984936,3618.012792760732,1.6441631969776078,331,2026-10-07 22:32:05.167244,26.6,0.04781105916736162,0.6117896268719439,0.24279017462773894
0401,cdot_cos,R,Q-R,332,66,49114,0.13820722514856923,0.38810954070771086,0.1702837569292181,0.9893295360819087,729.0,12.913161091837964,0.6701133248285511,12.210062520041967,-0.44646112591271425,0.031,0.9999999999984914,-309.35558070741615,1.6491303190691995,332,2026-10-07 22:32:05.198244,26.6,0.47078646236416105,2.1307814482539924,3.5118576703836304
0401,cdot_cos,S,R-S,333,66,49173,0.02065476755723537,-0.05162582348252201,-0.11755245759133386,0.04201137972202062,729.0,12.936401953847819,0.6701594535150871,12.229279102805586,-0.09579262430191146,0.059,0.999999999998467,7601.961554603006,1.6540975321286888,333,2026-10-07 22:32:05.257244,26.6,0.02571438766650147,0.36202317699479025,0.3939129154212708
0401,cdot_cos,T,S-T,334,66,49350,-0.249721279273481,-0.016654835252489203,-0.27037604683071637,0.0007520143566112506,729.0,12.955879826723349,0.6701602792004389,12.247642739877158,-0.08041517852367633,0.177,0.9999999999984411,18623.856830577373,1.659065124738823,334,2026-10-07 22:32:05.434243,26.6,0.8259461821420654,0.366495329629226,0.11004447952276987
0401,cdot_cos,P,T-P,335,67,49701,0.04742808070042091,-0.00048811674309348516,0.2971493599739019,0.9996309365977356,715.0,13.066141300536565,0.6712569093687609,12.28603562372269,-0.45672443870611357,0.351,0.99999999999844,-343.1505634741212,1.664033283682523,335,2026-10-07 22:32:05.785243,26.6,0.4387038730410014,0.19450277428369478,0.3141352530291046
0401,cdot_cos,Q,P-Q,336,67,49811,-0.04724832228982334,-0.06121941911794738,-0.09467640299024425,0.07457882630684019,715.0,13.092420774270503,0.6713386503648301,12.305858093417555,-0.10941205993659615,0.11,0.999999999998413,4248.937442304045,1.6690006617811812,336,2026-10-07 22:32:05.895243,26.6,0.04182120022444477,0.6194638351909728,0.2389043066721638
0401,cdot_cos,R,Q-R,337,67,49839,0.1382894468412583,0.3665766123313333,0.18553776913108164,0.9928630318171259,715.0,13.202423344278579,0.6724258729409104,12.344115602476487,-0.45959093149356894,0.028,0.9999999999984109,-322.0857249115028,1.6739677731794722,337,2026-10-07 22:32:05.923244,26.6,0.46676190516173455,2.5871026726400626,3.928663214574143
0401,cdot_cos,S,R-S,338,67,49888,0.07802566243770365,-0.14882761331719316,-0.06026378440355465,0.16756041649465128,715.0,13.237298523938346,0.6726091759640647,12.365786715065061,-0.14646939440060786,0.049,0.9999999999983887,1708.218073574365,1.6789349549367492,338,2026-10-07 22:32:05.972243,26.6,0.11791455971876204,0.5582638172314978,0.7117383604034183
0401,cdot_cos,T,S-T,339,67,50065,-0.14124056679327293,-0.01214337986198938,-0.21926622923097658,0.0029222301455296006,715.0,13.257133198367265,0.6726123722759814,12.384124657274507,-0.08347402099127718,0.177,0.9999999999983622,19708.769059814837,1.6839025600037412,339,2026-10-07 22:32:06.149244,26.6,0.47016555239248653,0.36816825368305056,0.11206030750801857
