record_id,input,event,transition,event_index,k,peak,value_cos,value_sin,value_return,x_input,rr,knowledge,decision,decision_norm,entropy,delta_t,cosine_similarity,delta_h_over_delta_d,frobenius_norm,matrix_size,timestamp,scale,P,zdot,zdot_back
0413,cdot_cos,Q,P-Q,1,0,1383,-0.031181933303560217,-0.026365162958429972,-0.07678014529617025,0.12791692797705262,815.0,0.0006353814853592055,0.5001588453659959,0.5001588453659959,,,1.0,,0.004967141530112327,1,2026-10-08 00:01:17.467244,25.0,,,
0413,cdot_cos,R,Q-R,2,0,1413,0.05169051974275102,0.10112774597109328,0.08287245304631123,0.8881330482123396,815.0,0.007137343563487221,0.5012617133302766,0.7088911132900516,-9.113800632645431e-06,,0.9999999999999998,,0.009934283060224654,2,2026-10-08 00:01:17.497243,25.0,,,
0413,cdot_cos,S,R-S,3,0,1463,0.04176230100308148,-0.08905623866266096,-0.009928218739669536,0.4382652436512191,815.0,0.012511970482813004,0.5018059395282941,0.869153382802841,-1.904472048969486e-05,0.05,1.0,-0.018247779862904694,0.014901424598384946,3,2026-10-08 00:01:17.547244,25.0,0.5936575481229992,0.08290999649547989,0.10749253838651565
0413,cdot_cos,T,S-T,4,0,1689,-0.04669649455998879,-0.0036621166193283403,-0.08845879556307026,0.09872520742800434,815.0,0.015428343213035212,0.5019285333373987,1.0038570666759414,-1.4694418260244533e-05,0.226,1.0000000000000002,0.03548549687152477,0.01986856618942085,4,2026-10-08 00:01:17.773243,25.0,0.7437492422966432,0.03327315659469091,0.012904304116027467
0413,cdot_cos,P,T-P,5,1,2085,0.05528154668131575,-0.007271000971362365,0.10197804124130454,0.9275366257571004,802.0,0.027551437263613296,0.5030803053547238,1.1249217609263222,-9.396059022669051e-05,0.396,1.0000000000000002,-0.0688210607430251,0.024835707913106877,5,2026-10-08 00:01:18.169244,25.0,0.43015449897967273,0.020549777503131507,0.03061387386509617
0413,cdot_cos,Q,P-Q,6,1,2159,-0.02250050462192244,-0.01620317605808629,-0.07778205130323819,0.12514870177244622,802.0,0.031703766995515366,0.5032357069824451,1.2326707024952013,-4.4369516507118124e-05,0.074,0.9999999999999998,0.31911553596146286,0.029802849467362575,6,2026-10-08 00:01:18.243244,25.0,0.3270365183962697,0.1243717585244928,0.05611256394462257
0413,cdot_cos,R,Q-R,7,1,2216,0.06169983881785121,0.10556032844168671,0.08420034343977364,0.8913890345823828,802.0,0.04595845752523823,0.5043425568334434,1.3343649810159932,-0.00019962705996210762,0.057,1.0000000000000002,-0.14026974238191317,0.03476999103335918,7,2026-10-08 00:01:18.300243,25.0,0.45944411523156264,0.18420156263758947,0.25008228999513793
0413,cdot_cos,S,R-S,8,1,2259,0.018643109740139878,-0.058550962744387605,-0.04305672907771133,0.2541844321988314,802.0,0.05270274513620057,0.5046581737641354,1.4273888674566921,-0.00011998565971001165,0.043,0.9999999999999998,0.25233564016194293,0.03973713260855599,8,2026-10-08 00:01:18.343244,25.0,0.514912829332016,0.12874828409837516,0.1568438979293567
0413,cdot_cos,T,S-T,9,1,2509,-0.0813296254392258,-0.001282719222965653,-0.09997273517936567,0.07590597796939484,802.0,0.05703080995769849,0.5047524243502344,1.514257273121916,-8.564036728163181e-05,0.25,1.0000000000000002,0.3644040196449954,0.04470427465023924,9,2026-10-08 00:01:18.593244,25.0,0.6696226536959154,0.04527338667242185,0.0173122592859917
0413,cdot_cos,P,T-P,10,2,2887,0.05662825541886404,0.002247781352144826,0.13795788085808985,0.9691997230524857,822.0,0.0753394384724115,0.5059558238122381,1.5999727988591332,-0.0004369876099837042,0.378,0.9999999999999998,-0.2919622733726749,0.049671417181294045,10,2026-10-08 00:01:18.971244,25.0,0.44752581176369677,0.032107705890429536,0.04843552517119842
0413,cdot_cos,Q,P-Q,11,2,3013,-0.01636408110832321,-0.015734458850215825,-0.07299233652718726,0.1388579012215432,822.0,0.08130423561086322,0.5061282303432829,1.6786374362404655,-0.0001684720443644105,0.126,1.0,1.5574558805405965,0.054638559013587856,11,2026-10-08 00:01:19.097243,25.0,0.20314635119000632,0.0953931136453775,0.047339659828981986
0413,cdot_cos,R,Q-R,12,2,3038,0.05005825147308141,0.11910399066324541,0.06642233258140462,0.8403129359032631,822.0,0.09937850311104662,0.5071715337088628,1.756893729544622,-0.0005888064632400942,0.025,0.9999999999999999,-0.4028880120041124,0.05960570047625332,12,2026-10-08 00:01:19.122243,25.0,0.48974259215343424,0.545514852791081,0.722970700007336
0413,cdot_cos,S,R-S,13,2,3097,0.013697441783416617,-0.03871300814685863,-0.03636080968966479,0.2872003678220404,822.0,0.10857997825041728,0.5075280978496158,1.829918581013033,-0.00034500086612859206,0.059,0.9999999999999999,0.6837636465534971,0.06457284217805069,13,2026-10-08 00:01:19.181243,25.0,0.49327861822671476,0.12128213649217619,0.155957205752045
0413,cdot_cos,T,S-T,14,2,3307,-0.10052145225708935,-0.014245539680726753,-0.11421889404050596,0.05439913280874881,822.0,0.11368979521712341,0.507595634446461,1.8992489556630374,-0.00020477176193082558,0.21,1.0000000000000002,2.076342468353043,0.06953998481307624,14,2026-10-08 00:01:19.391244,25.0,0.5041876066138423,0.06654817220544101,0.02433246174621969
0413,cdot_cos,P,T-P,15,3,3709,0.05485410681556779,-0.004295798951167193,0.15537555907265713,0.9798538253654113,777.0,0.1365302105767025,0.5088120744333089,1.9706206914771265,-0.001030328378306955,0.402,1.0000000000000002,-0.6786661284584982,0.07450712898200558,15,2026-10-08 00:01:19.793243,25.0,0.44876503904548043,0.03665035256978215,0.056816953630793754
0413,cdot_cos,Q,P-Q,16,3,3821,-0.02953504930923444,-0.02462162791380976,-0.08438915612480223,0.10815481327088625,777.0,0.14315667868322826,0.5089463371440662,2.0357853500698084,-0.00033411787603145987,0.112,0.9999999999999998,5.185434573370138,0.07947427107975705,16,2026-10-08 00:01:19.905244,25.0,0.12446544049765185,0.12920855681353668,0.05916489380826569
0413,cdot_cos,R,Q-R,17,3,3848,0.04812943545707811,0.10208435822766469,0.07766448476631255,0.8745291447986556,777.0,0.16547292730293472,0.5100319230841945,2.102915493001593,-0.0012415621479654258,0.027,0.9999999999999999,-0.8359027492809205,0.08444141248250585,17,2026-10-08 00:01:19.932243,25.0,0.48148070319782904,0.6471420799268791,0.826527726655795
0413,cdot_cos,S,R-S,18,3,3897,0.027123945567314383,-0.060629591260889,-0.021005489889763727,0.37165176024005786,777.0,0.17810235099927973,0.5104932403479217,2.1658393937043,-0.0007821655301488872,0.049,0.9999999999999996,0.9958366051704715,0.08940855421047773,18,2026-10-08 00:01:19.981244,25.0,0.5558041025493566,0.20601067752554525,0.2577433407417349
0413,cdot_cos,T,S-T,19,3,4106,-0.05117399607298162,-0.009468735038713377,-0.078297941640296,0.12374343932974498,777.0,0.18566197370043816,0.5106468344685272,2.2258579491035806,-0.0004956873254697494,0.209,0.9999999999999998,1.8651638718309576,0.09437569792086367,19,2026-10-08 00:01:20.190243,25.0,0.5610521856234343,0.07930667555257495,0.03617044354621256
0413,cdot_cos,P,T-P,20,4,4486,0.05539934838535863,0.0022513532623242368,0.10657334445834024,0.9348889580929286,819.0,0.21125254138025606,0.5118071800672667,2.2888712945132226,-0.0018307085361917229,0.38,0.9999999999999997,-1.1505375744711566,0.0993428442093393,20,2026-10-08 00:01:20.570244,25.0,0.482276613599793,0.044574732365135386,0.06734359915741554
0413,cdot_cos,Q,P-Q,21,4,4612,-0.01895281550159813,-0.018747271187425793,-0.07435216388695676,0.13484250506557255,819.0,0.21953877029794105,0.5119745308153478,2.34616204526885,-0.0006433676953653389,0.126,0.9999999999999996,7.094924011039006,0.10430998703612535,21,2026-10-08 00:01:20.696243,25.0,0.15794491414757447,0.13022957840209243,0.0657637215689285
0413,cdot_cos,R,Q-R,22,4,4638,0.04481384476770778,0.10733578764633078,0.06376666026930591,0.8312014941346493,819.0,0.24407039513758336,0.5130060602063068,2.4062117140891455,-0.002049599107636355,0.026,0.9999999999999994,-1.3632490015274419,0.10927712833229891,22,2026-10-08 00:01:20.722244,25.0,0.5035356753882921,0.7135694084540756,0.9435240322939348
0413,cdot_cos,S,R-S,23,4,4697,0.01045788202966834,-0.028608367713562493,-0.03435596273803944,0.29756941311603424,819.0,0.256644379537553,0.5133753203612961,2.462061549126091,-0.0011345848614214365,0.059,0.9999999999999993,2.477966371003334,0.11424427035138852,23,2026-10-08 00:01:20.781244,25.0,0.4464289894149832,0.1664024886250536,0.2131183796605021
0413,cdot_cos,T,S-T,24,4,4928,-0.09728504365219257,-0.016231341048773266,-0.1077429256818609,0.06335365708889153,819.0,0.2637058887953397,0.5134539353778808,2.515400300914887,-0.0006621605607601076,0.231,0.9999999999999993,6.009339197333183,0.11921141582235505,24,2026-10-08 00:01:21.012243,25.0,0.4899466200028753,0.07959569304984863,0.030569304146262778
0413,cdot_cos,P,T-P,25,5,5305,0.05335403546564748,-0.0035783662000025166,0.15063907911784005,0.9773785833973158,800.0,0.29341758972658305,0.5146666694678232,2.5733333534625316,-0.002982563375612343,0.377,0.9999999999999991,-1.9133648786621236,0.12417856479404718,25,2026-10-08 00:01:21.389244,25.0,0.4593285905434202,0.053472902769382345,0.07881087780170655
0413,cdot_cos,Q,P-Q,26,5,5416,-0.0048127243774649334,-0.005664433159788904,-0.05816675984311241,0.1893607825364406,800.0,0.30402445748345397,0.5149016093315624,2.62549336214575,-0.0011417777221261124,0.111,0.9999999999999989,7.8351354435542655,0.1291457079838004,26,2026-10-08 00:01:21.500243,25.0,0.1994463166685359,0.1702250494949885,0.09555736717901729
0413,cdot_cos,R,Q-R,27,5,5444,0.058276192342482505,0.1154592770251328,0.06308891671994744,0.8288108558021812,800.0,0.3312075507144705,0.5159298358332514,2.6808500757321587,-0.003110819053023396,0.028,0.9999999999999988,-1.914987921107742,0.13411284920543803,27,2026-10-08 00:01:21.528243,25.0,0.5310147065187928,0.6823381097359679,0.9708247582505903
0413,cdot_cos,S,R-S,28,5,5499,-0.0001584059861284837,-0.002452126022560994,-0.05843459832861099,0.18833506775683992,800.0,0.3422353916286682,0.5161634666799123,2.7312803467830937,-0.0013378941719078023,0.055,0.9999999999999989,7.588573625675863,0.13907999130979953,28,2026-10-08 00:01:21.583244,25.0,0.26576022737748356,0.16361035740092691,0.20050619843995768
0413,cdot_cos,T,S-T,29,5,5706,-0.1339349462817796,-0.022871778600456798,-0.13377654029565111,0.03407857813459485,800.0,0.34920469002857246,0.5162057406204345,2.779852997418729,-0.0008681038756003887,0.207,0.9999999999999984,11.11299988846208,0.14404713787883627,29,2026-10-08 00:01:21.790244,25.0,0.582067826664875,0.0962348045363898,0.033668108212098015
0413,cdot_cos,P,T-P,30,6,6105,0.045383126398159626,-0.003519429282891547,0.1793180726799392,0.9888262550906375,781.0,0.38207660070673355,0.5174322605926138,2.8340932228550084,-0.004329779115678396,0.399,0.9999999999999986,-2.8223553783042274,0.1490142908321158,30,2026-10-08 00:01:22.189243,25.0,0.4495519366110949,0.053364090431172344,0.08238574104802276
0413,cdot_cos,Q,P-Q,31,6,6217,-0.03325415269096701,-0.028100740869758924,-0.07863727908912663,0.12282650416128305,781.0,0.391789234192648,0.5175845977267552,2.881789093850651,-0.001353785090389096,0.112,0.999999999999998,19.535578387122133,0.15398143473657702,31,2026-10-08 00:01:22.301243,25.0,0.11099428611599446,0.18379336309418573,0.08671994183852183
0413,cdot_cos,R,Q-R,32,6,6245,0.05306976903706329,0.10946518872950713,0.0863239217280303,0.8964230873587021,781.0,0.42324631403983115,0.5186962970892938,2.934189369374477,-0.004617127308479496,0.028,0.9999999999999979,-2.9354538898346485,0.15894857581536367,32,2026-10-08 00:01:22.329243,25.0,0.49322461108690346,0.9310404258254404,1.1234671373993983
0413,cdot_cos,S,R-S,33,6,6297,0.05223877200347118,-0.09203737938551222,-0.0008309970335921152,0.49480645533213236,781.0,0.44392749803887266,0.5193098528916404,2.98320799998888,-0.0032293705364372224,0.052,0.9999999999999978,2.2618264984773955,0.16391571802238328,33,2026-10-08 00:01:22.381243,25.0,0.6506848825446424,0.2934115338118151,0.3977150769046444
0413,cdot_cos,T,S-T,34,6,6525,-0.03179179862136704,-0.005222455883103493,-0.08403057062483821,0.10902256081338543,781.0,0.4537611135562599,0.5194450321764676,3.028859012281003,-0.00158952056481959,0.228,0.9999999999999974,12.130926522609025,0.16888286772459699,34,2026-10-08 00:01:22.609244,25.0,0.3564136578465734,0.0925300707275649,0.04312989262011957
0413,cdot_cos,P,T-P,35,7,6886,0.046328221565971134,0.004258386617534215,0.07812002018733817,0.8757734478987775,857.0,0.48612121029064226,0.5205308164766791,3.0795018609941947,-0.0054756411851509396,0.361,0.9999999999999972,-3.579090819027838,0.17385002379554368,35,2026-10-08 00:01:22.970243,25.0,0.49178649723838186,0.06086439511919917,0.08964015715895385
0413,cdot_cos,Q,P-Q,36,7,7018,-0.020806938813413247,-0.021989233248323293,-0.06713516037938438,0.15731023407686287,857.0,0.4977052068323217,0.5207258295236079,3.1243550042431325,-0.0020517034410058076,0.132,0.9999999999999963,17.5574803740949,0.17881716966676212,36,2026-10-08 00:01:23.102243,25.0,0.1884680415410936,0.16369681845010714,0.08775754955817776
0413,cdot_cos,R,Q-R,37,7,7047,0.039768974487549374,0.09964094034136205,0.060575913300962625,0.8197120510925353,857.0,0.5293371703614705,0.5217418998112613,3.173632107910129,-0.0058475925940192275,0.029,0.9999999999999958,-3.7358529219273233,0.1837843106467746,37,2026-10-08 00:01:23.131244,25.0,0.5224964574706844,0.8893513345873701,1.0907573630740972
0413,cdot_cos,S,R-S,38,7,7095,0.026775990593188814,-0.05933301033804586,-0.012992983894360561,0.4195004085949451,857.0,0.5492875842383892,0.5222618205492966,3.2194381092558713,-0.00387297830699974,0.048,0.9999999999999958,3.797914071443321,0.18875145283647765,38,2026-10-08 00:01:23.179244,25.0,0.6005893355279486,0.3160603111881944,0.4156336224358052
0413,cdot_cos,T,S-T,39,7,7324,-0.0595770207614579,-0.0010485624228960477,-0.08635301135464671,0.10350940872890059,857.0,0.5596789602355372,0.5223901007440457,3.262325163700233,-0.002073978764141528,0.229,0.9999999999999952,14.023985123947005,0.1937186052725096,39,2026-10-08 00:01:23.408243,25.0,0.42003609122855284,0.10310542567559058,0.045377187760471664
0413,cdot_cos,P,T-P,40,8,7743,0.05451629091412691,-0.006849766345484416,0.11409331167558481,0.9454391425686947,840.0,0.5965098691978097,0.5235616536652127,3.311294677519672,-0.0076623200540784035,0.419,0.9999999999999953,-4.7700288983704375,0.19868576951766237,40,2026-10-08 00:01:23.827244,25.0,0.48223314759587366,0.05731875064360566,0.08790193069754769
0413,cdot_cos,Q,P-Q,41,8,7851,-0.02547717913969055,-0.01762598979248395,-0.07999347005381746,0.1192200631492059,840.0,0.6077120732748788,0.5237093685803267,3.3533761967027793,-0.002427263592207079,0.108,0.9999999999999937,35.4402699133729,0.20365291519363155,41,2026-10-08 00:01:23.935244,25.0,0.11569788193034455,0.21902596032628122,0.10372411182471358
0413,cdot_cos,R,Q-R,42,8,7875,0.05932262570117194,0.09165517058690757,0.08479980484086248,0.8928314626769165,840.0,0.6438194766282864,0.5248154625607155,3.4011929751427057,-0.008129269562865719,0.024,0.9999999999999933,-5.155082725117133,0.20862005563628822,42,2026-10-08 00:01:23.959244,25.0,0.4958822565212629,1.0727533336369355,1.5044751397253198
0413,cdot_cos,S,R-S,43,8,7933,0.01286530940284795,-0.054360274535689014,-0.04645731629832399,0.23840701590983163,840.0,0.6592042332894517,0.5251107749557338,3.4433816731126528,-0.0036060416480513825,0.058,0.9999999999999928,15.316756056023575,0.21358719864845518,43,2026-10-08 00:01:24.017244,25.0,0.2852620325594591,0.2260162893892734,0.26525442519250403
0413,cdot_cos,T,S-T,44,8,8165,-0.07615340784394367,0.005033642503692551,-0.08901871724679163,0.09748665929272561,840.0,0.6700373661974421,0.5252315256618791,3.483991846531534,-0.0025902113231909317,0.232,0.999999999999992,8.412624300826291,0.21855435418411714,44,2026-10-08 00:01:24.249243,25.0,0.6755821726265762,0.10923065542378795,0.0466945383965107
0413,cdot_cos,P,T-P,45,9,8583,0.061176430729918164,-0.0037532642522777786,0.13732983857386183,0.9687275523144294,821.0,0.7098872574060893,0.5264312660615363,3.531408345250144,-0.009888985586025733,0.418,0.9999999999999919,-6.0836279789529994,0.2235215243478088,45,2026-10-08 00:01:24.667244,25.0,0.4780351186954004,0.0634901206625029,0.09533466796327064
0413,cdot_cos,Q,P-Q,46,9,8693,-0.005211950418697913,-0.005709682409015997,-0.06638838114861607,0.15980099311108126,821.0,0.7231151070712946,0.5266291459109654,3.5717727156646117,-0.003408686856469597,0.11,0.9999999999999902,32.748654035529746,0.2284886712365276,46,2026-10-08 00:01:24.777244,25.0,0.14940224924040837,0.22679194276553172,0.12025317877459357
0413,cdot_cos,R,Q-R,47,9,8719,0.0632910050260472,0.10987786465196073,0.06850295544474512,0.8471698311364613,821.0,0.7597814848145062,0.5276780459910534,3.617578496122209,-0.009775310837841552,0.026,0.9999999999999891,-6.069809796218227,0.23345581150887962,47,2026-10-08 00:01:24.803244,25.0,0.5213694765140333,0.9746662306729211,1.4102452978158342
0413,cdot_cos,S,R-S,48,9,8773,0.0008931370407425997,-0.017402663542114807,-0.062397867985304604,0.17365429540772603,821.0,0.7737977510662865,0.527893021421852,3.657350209066471,-0.0038642876076477846,0.054,0.9999999999999882,27.49627344964284,0.23842295442492545,48,2026-10-08 00:01:24.857243,25.0,0.2166105885027645,0.2148009896310711,0.2595604861440779
0413,cdot_cos,T,S-T,49,9,8984,-0.13364209003506564,-0.01297999296388548,-0.13453522707580823,0.033459719020512924,821.0,0.7829799916946619,0.5279344417133462,3.695541166254644,-0.0025698166463289005,0.211,0.9999999999999872,31.25209684966003,0.2433901112549524,49,2026-10-08 00:01:25.068243,25.0,0.6042778704903596,0.12300068471075731,0.04351772809656621
0413,cdot_cos,P,T-P,50,10,9404,0.050511056061404505,-0.00464669892359853,0.18415314609647015,0.9900858502500499,819.0,0.825704040014226,0.5291599074297282,3.741725671002383,-0.012352306490377362,0.42,0.9999999999999869,-7.982671170051403,0.24835728796279835,50,2026-10-08 00:01:25.488243,25.0,0.45295770027720283,0.06622565188447066,0.10172392457039074
0413,cdot_cos,Q,P-Q,51,10,9514,-0.024756634578943695,-0.020135434095608903,-0.0752676906403482,0.13219461727510706,819.0,0.8386095392776173,0.5293235033027315,3.780126013544868,-0.0038600968409793776,0.11,0.9999999999999846,51.90968142103946,0.253324435990056,51,2026-10-08 00:01:25.598243,25.0,0.11080325598028465,0.2419609820890244,0.117322720576284
0413,cdot_cos,R,Q-R,52,10,9541,0.06199685682682712,0.10680691234016161,0.08675349140577081,0.8974159758464042,819.0,0.8789354560738114,0.5304339214195188,3.82501350702615,-0.012444140923210221,0.027,0.9999999999999838,-7.730461123118232,0.2582915760571075,52,2026-10-08 00:01:25.625243,25.0,0.5016733436038197,1.1111403356247853,1.4935524739331159
0413,cdot_cos,S,R-S,53,10,9594,0.03027402613220739,-0.07908575636405223,-0.03172283069461973,0.3115096967220232,819.0,0.8986111174013557,0.5308192982252904,3.8644229258927827,-0.006283212001390769,0.053,0.9999999999999827,15.986766275372508,0.2632587191329857,53,2026-10-08 00:01:25.678244,25.0,0.37510918847980235,0.31720518339969656,0.3712388929725336
0413,cdot_cos,T,S-T,54,10,9824,-0.0388090922105861,0.0013352558459358247,-0.06908311834279349,0.15096172260474394,819.0,0.9125592055141792,0.5310060437336284,3.902081677667217,-0.004538216689238247,0.23,0.9999999999999809,9.344242481026317,0.26822588152742877,54,2026-10-08 00:01:25.908243,25.0,0.6807832967083991,0.11970514586703043,0.060643861360102407
0413,cdot_cos,P,T-P,55,11,10223,0.043942688170686146,-0.003394436660859521,0.08275178038127225,0.8878329680797589,838.0,0.9536754845001897,0.5321041501497711,3.946190109741129,-0.01378067350249109,0.399,0.9999999999999806,-8.416722348020246,0.27319306374067587,55,2026-10-08 00:01:26.307244,25.0,0.5113594463001518,0.06836267539295407,0.1030483182606778
0413,cdot_cos,Q,P-Q,56,11,10334,-0.03234223490918549,-0.024065396181464135,-0.07628492307987164,0.12930440459704587,838.0,0.9671126204777566,0.5322640531907099,3.9830995899539348,-0.004635094542126972,0.111,0.9999999999999777,57.194528050676745,0.2781602133150845,56,2026-10-08 00:01:26.418243,25.0,0.13902299223855225,0.25044905317532096,0.12105527907717932
0413,cdot_cos,R,Q-R,57,11,10361,0.0533987619101699,0.09090497701762555,0.08574099681935539,0.8950621531399451,838.0,1.009275174305111,0.5333707396748063,4.0268609196716705,-0.014960453837532518,0.027,0.9999999999999768,-9.329976866787288,0.2831273530971458,57,2026-10-08 00:01:26.445244,25.0,0.5014873600664698,1.171224226709848,1.5615760676797905
0413,cdot_cos,S,R-S,58,11,10415,0.02404007977048206,-0.07255209500155611,-0.02935868213968784,0.32432478924517055,838.0,1.0303587287200884,0.5337716658340286,4.065084040214769,-0.007719599570220798,0.054,0.9999999999999756,18.060318841149623,0.28809449660405356,58,2026-10-08 00:01:26.499244,25.0,0.39141647087130255,0.3230868616981544,0.3904361928699527
0413,cdot_cos,T,S-T,59,11,10642,-0.05194781909127984,0.0030502485383029406,-0.0759878988617619,0.13014271844382103,838.0,1.0441685553685116,0.5339325343636987,4.101213761166323,-0.0051426514783681635,0.227,0.9999999999999737,16.018969634004513,0.2930616627814922,59,2026-10-08 00:01:26.726244,25.0,0.6058679148512752,0.12937614735682565,0.06083624074195255
0413,cdot_cos,P,T-P,60,12,11061,0.05717213345943747,-0.004012986550748079,0.1091199525507173,0.9386587129102666,841.0,1.0890954996200872,0.5350925929751924,4.1448095616988665,-0.017198534518244886,0.419,0.9999999999999727,-10.392477518315555,0.29802885576441657,60,2026-10-08 00:01:27.145243,25.0,0.49609732188945277,0.07228160566323524,0.10722421062428548
0413,cdot_cos,Q,P-Q,61,12,11172,-0.006168550475128504,-0.006659040655905768,-0.06334068393456598,0.1702979517040585,841.0,1.1047405409143027,0.5353030185132385,4.180850413647326,-0.006158783909222176,0.111,0.9999999999999695,52.46392957591438,0.30299600694648077,61,2026-10-08 00:01:27.256243,25.0,0.16653976297412018,0.25702646067580637,0.1409463179659055
0413,cdot_cos,R,Q-R,62,12,11199,0.05677991837672291,0.09617348922917142,0.06294846885185142,0.8283120998908041,841.0,1.1461553738901162,0.5363263265742749,4.223037911879089,-0.01672235434191449,0.027,0.9999999999999679,-10.322962199665502,0.30796314638507616,62,2026-10-08 00:01:27.283243,25.0,0.5316852820060746,1.0855365720229642,1.5338827028079074
0413,cdot_cos,S,R-S,63,12,11251,0.00203985959981986,-0.026359230521801693,-0.05474005877690305,0.2028620644852944,841.0,1.1633595158035428,0.5365768988376545,4.258947294650988,-0.00712701995727214,0.052,0.9999999999999659,38.2936812527737,0.3129302898698719,63,2026-10-08 00:01:27.335244,25.0,0.26019292366879765,0.28899529136797164,0.33084888295051085
0413,cdot_cos,T,S-T,64,12,11462,-0.0895517904900226,-8.955254658075764e-05,-0.09159165008984246,0.09197198162580823,841.0,1.1762108841923853,0.5366904952104629,4.293524158236382,-0.005392934520953362,0.211,0.9999999999999633,15.26532400153114,0.31789745775134753,64,2026-10-08 00:01:27.546243,25.0,0.7250260797618451,0.144301678481782,0.06090695918882696
0413,cdot_cos,P,T-P,65,13,11902,0.051078638016598905,-0.0023141945890109727,0.1406304285066215,0.9711328978376947,817.0,1.2242548241228548,0.5378897255733062,4.336605819987934,-0.020678428728766112,0.44,0.9999999999999624,-12.746086724798827,0.32286466269228736,65,2026-10-08 00:01:27.986243,25.0,0.4774957664941471,0.07392244115253975,0.1091907725692489
0413,cdot_cos,Q,P-Q,66,13,12015,-0.007185380080531521,-0.008236630211344388,-0.05826401809713043,0.18898782789830568,817.0,1.2412626324066203,0.5381230519101825,4.371732587626752,-0.007518113173909637,0.113,0.9999999999999579,56.40304361282358,0.3278318157668553,66,2026-10-08 00:01:28.099244,25.0,0.17369034852431803,0.26524390248120194,0.15051157773243778
0413,cdot_cos,R,Q-R,67,13,12045,0.0550189907172737,0.10863403414198941,0.06220437079780522,0.825650444546283,817.0,1.2841999460836064,0.5391422113553813,4.4130694497803615,-0.01943527162403847,0.03,0.9999999999999559,-11.69312466883342,0.3327989553039191,67,2026-10-08 00:01:28.129244,25.0,0.5416302557553409,1.0131021991695688,1.4312437892328722
0413,cdot_cos,S,R-S,68,13,12104,0.00022749523226812198,-0.007941237923935083,-0.05479149548500558,0.20265419941156954,817.0,1.3020487643567944,0.5393923122593917,4.4479432106681545,-0.008272946785925306,0.059,0.9999999999999533,44.631285449698304,0.3377661002320809,68,2026-10-08 00:01:28.188244,25.0,0.2594331523033449,0.25865842406002076,0.3025223436133553
0413,cdot_cos,T,S-T,69,13,12322,-0.09971722747955493,-0.01419429743325053,-0.09994472271182304,0.07595511540660567,817.0,1.3147216401226889,0.5394860453717141,4.481307918539189,-0.005943035839478198,0.218,0.9999999999999502,24.856861025086957,0.3427332734492591,69,2026-10-08 00:01:28.406244,25.0,0.6756767252571907,0.1436417952229865,0.05813245764171783
0413,cdot_cos,P,T-P,70,14,12719,0.04463405733160333,-0.0033875664854482457,0.14435128481115828,0.973629429143643,799.0,1.3646765870740165,0.5406873121482441,4.523714889166221,-0.023978108887198164,0.397,0.999999999999949,-15.013378709945352,0.34770048033927997,70,2026-10-08 00:01:28.803244,25.0,0.47135326558970975,0.08200374906210743,0.12583110063306707
0413,cdot_cos,Q,P-Q,71,14,12830,-0.03138944175282464,-0.025249193559358094,-0.07602349908442797,0.13004199799871077,799.0,1.3798326168780022,0.5408477228578897,4.5572642350547135,-0.007451203620255269,0.111,0.9999999999999438,103.02868993877344,0.3526676347984147,71,2026-10-08 00:01:28.914243,25.0,0.10882456341096208,0.28271586658192127,0.13654080904491595
0413,cdot_cos,R,Q-R,72,14,12858,0.056403404018373085,0.10789513179844928,0.08779284577119773,0.8997834829754913,799.0,1.427439509455203,0.541957399125051,4.598661351605312,-0.023931499370529307,0.028,0.9999999999999419,-14.851444730302179,0.3576347736529112,72,2026-10-08 00:01:28.942244,25.0,0.5022564094610438,1.3287786127764236,1.700246163471459
0413,cdot_cos,S,R-S,73,14,12911,0.03998996887852895,-0.08539181450629911,-0.016413435139844133,0.39883158652426237,799.0,1.454244219193482,0.5424491338337313,4.6346877590285755,-0.013829305307194263,0.053,0.9999999999999388,20.543992288947912,0.36260191794155994,73,2026-10-08 00:01:28.995244,25.0,0.48167204772189415,0.3975689587190875,0.5057492403448842
0413,cdot_cos,T,S-T,74,14,13139,-0.03725255042830002,-0.0031429063973589994,-0.07724251930682897,0.12663297069633864,799.0,1.4695818190794263,0.5426052472118856,4.667667159965212,-0.00802839334181706,0.228,0.9999999999999358,37.15832706945621,0.36756909852028463,74,2026-10-08 00:01:29.223244,25.0,0.48551283927020017,0.13912735737733395,0.06727017493835266
0413,cdot_cos,P,T-P,75,15,13518,0.04565302772276233,0.0022044768931158668,0.08290557815106235,0.8882152985158585,842.0,1.5176862941575462,0.5437000039332505,4.708580511143124,-0.025716627990080582,0.379,0.999999999999934,-16.15722863634181,0.37253631212220134,75,2026-10-08 00:01:29.602243,25.0,0.5026741459372364,0.08562703444642404,0.1269247363538783
0413,cdot_cos,Q,P-Q,76,15,13647,-0.02215275209854799,-0.021589109342152846,-0.06780577982131032,0.15510048636299373,842.0,1.5344871111898157,0.5438911277690407,4.7415333250439025,-0.00917623740941392,0.129,0.9999999999999277,86.54279311776025,0.37750347267022205,76,2026-10-08 00:01:29.731244,25.0,0.1648821564170937,0.24647811687712684,0.13023889172301972
0413,cdot_cos,R,Q-R,77,15,13672,0.044970531931113535,0.10254855085763172,0.06712328402966153,0.8426504025895339,842.0,1.581277648311845,0.5449292632907312,4.781735293327667,-0.02607871983745601,0.025,0.9999999999999256,-16.281576032113577,0.38247061051618025,77,2026-10-08 00:01:29.756243,25.0,0.5230212763702958,1.4557863340123367,1.8716214848811674
0413,cdot_cos,S,R-S,78,15,13729,0.02184184908114897,-0.0501837688001814,-0.023128682849964565,0.35934294864831573,842.0,1.6072764278904326,0.545371851418091,4.816594189797817,-0.014826557564878022,0.057,0.9999999999999218,25.42355200466489,0.38743775615395504,78,2026-10-08 00:01:29.813244,25.0,0.4681720572944204,0.34076840400145025,0.4561189399752219
0413,cdot_cos,T,S-T,79,15,13938,-0.08936429760669119,-0.005796763470349038,-0.11120614668784017,0.05840610406742248,842.0,1.6201252463680103,0.5454437810923461,4.848010790195462,-0.007416488945026846,0.209,0.9999999999999171,103.01824242333151,0.3924049377344887,79,2026-10-08 00:01:30.022244,25.0,0.36819804587517924,0.1579060201184022,0.06147760037118509
0413,cdot_cos,P,T-P,80,16,14360,0.04498076157141451,-0.0027142760390544063,0.13434505917810569,0.9663861879520468,839.0,1.6732811442999247,0.5466336504695357,4.889240451867231,-0.03129586535309506,0.422,0.999999999999916,-20.068905768858862,0.39737217178901413,80,2026-10-08 00:01:30.444243,25.0,0.46625612704364217,0.08289445677789804,0.12596184344055555
0413,cdot_cos,Q,P-Q,81,16,14472,-0.02672654484025166,-0.02077436991409772,-0.07170730641166617,0.14274413632097163,839.0,1.6900881678885562,0.5468093603079323,4.921284747472719,-0.010104778037195243,0.112,0.999999999999908,120.60273635945005,0.40233933071058614,81,2026-10-08 00:01:30.556243,25.0,0.12280772489630876,0.2984110453898183,0.1500627106127813
0413,cdot_cos,R,Q-R,82,16,14501,0.053431750724387286,0.09732440515052898,0.08015829556463895,0.881211952708021,839.0,1.740125218467244,0.5478938217589501,4.961390089061556,-0.030668619024287802,0.029,0.9999999999999055,-18.962260915583936,0.4073064690861054,82,2026-10-08 00:01:30.585243,25.0,0.5114439166438771,1.2661293522518378,1.7254155371961306
0413,cdot_cos,S,R-S,83,16,14549,0.01630558734314945,-0.05949649893771,-0.03712616338123784,0.2832993607523954,839.0,1.7635236703191628,0.5482423673826119,4.994726192792437,-0.014646381162830497,0.048,0.9999999999999012,45.96883958297219,0.4122736128606143,83,2026-10-08 00:01:30.633244,25.0,0.3348949636640241,0.41052385936487845,0.48746774691497496
0413,cdot_cos,T,S-T,84,16,14779,-0.06375019719615296,0.00043339165197062905,-0.08005578453930241,0.11905657429616827,839.0,1.7795355089662723,0.5483888296007868,5.026067167945797,-0.010134852365434672,0.23,0.9999999999998958,30.803362489070015,0.4172408053261719,84,2026-10-08 00:01:30.863244,25.0,0.6407282059451846,0.15202471522246083,0.06961668977004144
0413,cdot_cos,P,T-P,85,17,15199,0.051406968157339444,-0.004371239842047386,0.11515716535349241,0.9467949452961545,815.0,1.8334550393214948,0.5495532669338345,5.06663133476107,-0.034786496917721246,0.42,0.9999999999998935,-21.17043472641421,0.42220805098342834,85,2026-10-08 00:01:31.283243,25.0,0.4923056267173852,0.08470758949836864,0.1283798341791011
0413,cdot_cos,Q,P-Q,86,17,15309,-0.02097273345883076,-0.016244814531294498,-0.0723797016161702,0.14069946800056096,815.0,1.850689884144902,0.5497262633744784,5.097952269249354,-0.011337354447761343,0.11,0.9999999999998845,135.54696491263027,0.42717521156629723,86,2026-10-08 00:01:31.393243,25.0,0.12639945130759234,0.3133714490850617,0.15668040748552003
0413,cdot_cos,R,Q-R,87,17,15337,0.06044762215353324,0.10758309097500951,0.08142035561236399,0.8844751633249474,815.0,1.9023967581202084,0.550813489084712,5.137646841354241,-0.03463479965689364,0.028,0.9999999999998819,-21.428342790134547,0.43214234921687866,87,2026-10-08 00:01:31.421243,25.0,0.5103492288401805,1.3127783588095323,1.8466740705466562
0413,cdot_cos,S,R-S,88,17,15391,0.013028515309273764,-0.04486056637665027,-0.04741910684425948,0.2340687261598442,815.0,1.9242054722382358,0.5511011332002597,5.169787523212743,-0.014892504159660837,0.054,0.9999999999998755,68.6344494120478,0.4371094949737007,88,2026-10-08 00:01:31.475244,25.0,0.2656293986046957,0.3324768630840726,0.4038650762597672
0413,cdot_cos,T,S-T,89,17,15618,-0.09154731079463836,-0.005841575516961681,-0.10457582610391213,0.0682176675278675,815.0,1.9383042593332882,0.5511849586109281,5.199869148629942,-0.009717636287278113,0.227,0.9999999999998689,61.73388034867021,0.44207669257246085,89,2026-10-08 00:01:31.702244,25.0,0.5871216072571964,0.1550081463062552,0.06210919425133221
0413,cdot_cos,P,T-P,90,18,16014,0.03970682434669129,-0.005785590152648505,0.13125413514132966,0.9637835527167413,823.0,1.9945791706612757,0.5523689364468296,5.2402325315082985,-0.039474795624696815,0.396,0.9999999999998666,-25.133206412399332,0.4470439430968661,90,2026-10-08 00:01:32.098243,25.0,0.4705623491565772,0.09229080243764039,0.14210836193936224
0413,cdot_cos,Q,P-Q,91,18,16121,-0.03933320816468751,-0.026890255202818573,-0.0790400325113788,0.12174579958724077,823.0,2.0113985748638994,0.5525184553899085,5.270690900897227,-0.012016710422781332,0.107,0.9999999999998562,183.6428524472957,0.45201110497017155,91,2026-10-08 00:01:32.205244,25.0,0.10177489307540732,0.3346522380060455,0.1571906934824648
0413,cdot_cos,R,Q-R,92,18,16146,0.057714646145013565,0.09028632542511386,0.09704785430970107,0.9188032180283299,823.0,2.0661947495945694,0.5536465515598383,5.310391946150214,-0.03982998805031317,0.025,0.9999999999998531,-24.655059000211164,0.4569782412190084,92,2026-10-08 00:01:32.230243,25.0,0.4974302545966344,1.6633640571205088,2.1918469892268
0413,cdot_cos,S,R-S,93,18,16205,0.03444097907393832,-0.10109952543989253,-0.023273667071075248,0.3585089340497583,823.0,2.094566777719925,0.5540865756050755,5.34341820388379,-0.021039524291998978,0.059,0.9999999999998471,42.70326579127724,0.4619453891691841,93,2026-10-08 00:01:32.289243,25.0,0.40938343384924536,0.3920454317783589,0.4808818326331431
0413,cdot_cos,T,S-T,94,18,16418,-0.03875202062769325,0.0022653411663030336,-0.07319299970163157,0.13825912286033515,823.0,2.1124561105444157,0.5542562484567607,5.373714488800319,-0.013412490215414016,0.213,0.9999999999998395,44.951410911241304,0.46691258900495614,94,2026-10-08 00:01:32.502244,25.0,0.5662885051987635,0.16978027788105352,0.08398747804925305
0413,cdot_cos,P,T-P,95,19,16837,0.04609001069815579,-0.004995088980943502,0.08484203132584904,0.8929324301821925,841.0,2.1668931760972536,0.5553517570364844,5.41290019253669,-0.041495566974887356,0.419,0.9999999999998366,-25.634739224548373,0.4718798607009804,95,2026-10-08 00:01:32.921243,25.0,0.5082545177839874,0.08679743361596762,0.12992139750080645
0413,cdot_cos,Q,P-Q,96,19,16944,-0.025772348925482566,-0.017889374512068273,-0.07186235962363835,0.14227045314345035,841.0,2.1851923599145966,0.5555262544422187,5.4430243646661784,-0.01418483799553396,0.107,0.9999999999998248,156.510802349361,0.4768470250353917,96,2026-10-08 00:01:33.028243,25.0,0.14582521152477307,0.34384999847051956,0.1710204095078782
0413,cdot_cos,R,Q-R,97,19,16969,0.061254893291261665,0.09541626868397417,0.08702724221674424,0.89804430564947,841.0,2.240477075769945,0.5566274050531866,5.48214509660253,-0.043557406453482564,0.025,0.9999999999998213,-26.674433238636997,0.4818141607167496,97,2026-10-08 00:01:33.053244,25.0,0.5094917911786906,1.5613187415098029,2.211388634213929
0413,cdot_cos,S,R-S,98,19,17027,0.012703453445321162,-0.053607481161509,-0.0485514398459405,0.22903184818514455,841.0,2.2632582969900867,0.556908147330761,5.513110321256851,-0.018262983884716158,0.058,0.999999999999813,90.09837345238226,0.48678130897398986,98,2026-10-08 00:01:33.111244,25.0,0.2503211970764085,0.33127914754803933,0.39277967620934345
0413,cdot_cos,T,S-T,99,19,17237,-0.08309937086962645,0.00941918068320324,-0.0958028243149476,0.08354936045654361,841.0,2.2789054568855174,0.5570105512875517,5.542185954631181,-0.012650265785674597,0.21,0.9999999999998038,54.80958231439741,0.49174851376844064,99,2026-10-08 00:01:33.321243,25.0,0.6416682789767901,0.1790238581051857,0.07451028521633639
0413,cdot_cos,P,T-P,100,20,17678,0.0527650617589762,-0.0022162255955261545,0.13586443262860265,0.9675984468661563,854.0,2.3384483173942647,0.5581961526328991,5.581962518830267,-0.04890842807467872,0.441,0.999999999999801,-30.582085986398717,0.496715807405392,100,2026-10-08 00:01:33.762244,25.0,0.4764712289381561,0.0890900505818124,0.13501782428287382
0413,cdot_cos,Q,P-Q,101,20,17790,-0.017358256748654093,-0.013566895173021851,-0.07012331850763029,0.14765876811262418,854.0,2.357482881498676,0.5583770213888944,5.611620712381077,-0.015899680450630452,0.112,0.9999999999997873,182.50110386617519,0.5016829760083185,101,2026-10-08 00:01:33.874244,25.0,0.12542295833481573,0.3306221730779058,0.16995146521795695
0413,cdot_cos,R,Q-R,102,20,17818,0.05686802632688676,0.09714592152539533,0.07422628307554086,0.8647899414619977,854.0,2.4125076841637156,0.5594359990690572,5.650027756105399,-0.046663784252254724,0.028,0.9999999999997828,-29.050757516340777,0.5066501121510432,102,2026-10-08 00:01:33.902244,25.0,0.5172279894261383,1.4082563891872029,1.965171523751419
0413,cdot_cos,S,R-S,103,20,17868,0.010507071875297903,-0.04326172718956919,-0.04636095445158886,0.238844699892407,854.0,2.4363452392931593,0.5597283812400186,5.680623769695546,-0.020546756404314515,0.05,0.9999999999997731,89.32496725796902,0.5116172576806697,103,2026-10-08 00:01:33.952243,25.0,0.2805222517730748,0.39739983384673216,0.47675110258887266
0413,cdot_cos,T,S-T,104,20,18097,-0.08663577620296582,0.006757210296013292,-0.09714284807826373,0.08101978553804519,854.0,2.452247667548389,0.5598275523554554,5.709144358247356,-0.013818756966977526,0.229,0.9999999999997625,67.84232896541768,0.5165844765159091,104,2026-10-08 00:01:34.181243,25.0,0.6145441957149673,0.16812687656209813,0.06944291814510735
0413,cdot_cos,P,T-P,105,21,18532,0.051523706562033804,-0.0050552680240239,0.13815948276499962,0.9693498213712443,840.0,2.5133473487586,0.5610136986801426,5.7486809376527,-0.05389881262941453,0.435,0.9999999999997593,-33.79014446047181,0.5215517827175601,105,2026-10-08 00:01:34.616243,25.0,0.47539146771044755,0.09242815798274154,0.1404590372648537
0413,cdot_cos,Q,P-Q,106,21,18641,-0.01972213676847861,-0.014624221128350344,-0.07124584333051241,0.14416167371065883,840.0,2.532660164993374,0.5611900431285475,5.777806427452614,-0.01731109199121866,0.109,0.9999999999997438,207.47872115710308,0.5265189525946007,106,2026-10-08 00:01:34.725244,25.0,0.12080929664218186,0.3529019018446242,0.1771818003190254
0413,cdot_cos,R,Q-R,107,21,18668,0.06369006397872366,0.10200056851554837,0.08341220074720226,0.889466678573273,840.0,2.5902799633607283,0.5622777316585118,5.816247411268304,-0.052406488483710253,0.027,0.9999999999997384,-32.2660352901236,0.5314860876515318,107,2026-10-08 00:01:34.752243,25.0,0.5118741158455693,1.486202737311457,2.134066606198308
0413,cdot_cos,S,R-S,108,21,18725,0.009367782879419587,-0.041343262545312204,-0.05432228109930408,0.2045562676974543,840.0,2.6129151128081927,0.5625277899923984,5.845961608682309,-0.020907035532927984,0.057,0.9999999999997273,125.96841889328628,0.5364532365349223,108,2026-10-08 00:01:34.809243,25.0,0.22165266821831017,0.3447140575890508,0.39710788504323447
0413,cdot_cos,T,S-T,109,21,18937,-0.08387945363488097,0.004643174303327307,-0.09324723651430056,0.08857328412397836,840.0,2.62957736592588,0.5626360559149104,5.874094219030531,-0.015505530028722112,0.212,0.9999999999997148,49.891095728730384,0.5414204550019565,109,2026-10-08 00:01:35.021244,25.0,0.7058447690046801,0.18727558076766285,0.07859553357399732
0413,cdot_cos,P,T-P,110,22,19372,0.06004371744506756,-0.007349766116520921,0.14392317107994854,0.9733532344442198,842.0,2.6923199590536817,0.5638254210523805,5.913452305096958,-0.05923501158734788,0.435,0.999999999999711,-36.767078654786516,0.5463877767894781,110,2026-10-08 00:01:35.456243,25.0,0.4779557744935247,0.09384961262255767,0.14423584627080832
0413,cdot_cos,Q,P-Q,111,22,19479,-0.016724244981068816,-0.011792460309039058,-0.07676796242613637,0.1279509080818245,842.0,2.7112265289075053,0.5639817132433791,5.941917584172211,-0.018121990316423434,0.107,0.999999999999693,263.05230612132874,0.5513549483334841,111,2026-10-08 00:01:35.563244,25.0,0.10344850360549421,0.3641497144412284,0.17669691452171543
0413,cdot_cos,R,Q-R,112,22,19503,0.06730452624938575,0.10271977505199777,0.08402877123045457,0.8909730694315562,842.0,2.7702479979441046,0.5650696838788213,5.980136985183466,-0.05735530847473143,0.024,0.999999999999688,-36.061008339955876,0.5563220812931112,112,2026-10-08 00:01:35.587244,25.0,0.5045744505821985,1.653775521948712,2.459227876524972
0413,cdot_cos,S,R-S,113,22,19562,-0.001489189369077764,-0.015692822658637563,-0.06879371561846352,0.15189140146393965,842.0,2.7906077539610434,0.5652550968321193,6.008745658846055,-0.020069553707376078,0.059,0.9999999999996746,201.0957384807437,0.5612892317047825,113,2026-10-08 00:01:35.646244,25.0,0.15601130579977382,0.3185941890893578,0.3450806104565906
0413,cdot_cos,T,S-T,114,22,19774,-0.09275664850268472,0.00964870064360897,-0.09126745913360695,0.09265107875282914,842.0,2.807842112256649,0.5653681865058845,6.036481939655792,-0.017102528524661008,0.212,0.99999999999966,26.236039807442925,0.5662564568929084,114,2026-10-08 00:01:35.858243,25.0,0.8407301050587815,0.19170376787104149,0.08129414290379895
0413,cdot_cos,P,T-P,115,23,20214,0.04870116857842361,0.0021404897793640943,0.14145781708110833,0.9717071521037797,921.0,2.871890151538365,0.5665538377704087,6.075614680719744,-0.0644398565781537,0.44,0.9999999999996559,-39.92516979475367,0.5712237969476716,115,2026-10-08 00:01:36.298244,25.0,0.4796987182900274,0.09613228857319846,0.1455637256402641
0413,cdot_cos,Q,P-Q,116,23,20343,-0.02031053352357462,-0.017426412618545214,-0.06901170210199822,0.15119070480183136,921.0,2.8924385262010635,0.5667382485261604,6.103959521575819,-0.020979909685495145,0.129,0.9999999999996364,235.66926297495107,0.5761909821936987,116,2026-10-08 00:01:36.427244,25.0,0.1259962606888201,0.30568403491101664,0.1592897260674297
0413,cdot_cos,R,Q-R,117,23,20368,0.05030510693130346,0.08940966713242833,0.07061564045487809,0.8538835614444343,921.0,2.9507566325454073,0.5677794013871771,6.141475051769145,-0.06032306638607488,0.025,0.9999999999996296,-37.78806952723629,0.5811581147237898,117,2026-10-08 00:01:36.452243,25.0,0.5208946284662129,1.691526407036008,2.3327242537737547
0413,cdot_cos,S,R-S,118,23,20425,0.007091720517706494,-0.04127666829375779,-0.04321338641359697,0.2534426905244097,921.0,2.977014846552864,0.5680883130359725,6.171020462346997,-0.02754938886047825,0.057,0.9999999999996158,106.09401637456665,0.5861252646427364,118,2026-10-08 00:01:36.509243,25.0,0.3043327635588107,0.38470812901431745,0.46067042118344803
0413,cdot_cos,T,S-T,119,23,20652,-0.08426079690043757,0.018382421803218012,-0.09135251741814407,0.09247246896900779,921.0,2.9946133592530395,0.5682010110358942,6.198343084413378,-0.01859931208115721,0.227,0.9999999999995994,79.41646511512253,0.5910925050299263,119,2026-10-08 00:01:36.736243,25.0,0.6180383793651001,0.18202555190764538,0.07752648766597202
0413,cdot_cos,P,T-P,120,24,21135,0.04790916625940407,-0.00483113995655273,0.13216996315984164,0.9645742918100372,857.0,3.059654447118935,0.569376133482252,6.237204948950079,-0.06964521573447502,0.483,0.9999999999995945,-43.43879551575892,0.5960598854795562,120,2026-10-08 00:01:37.219244,25.0,0.4804932977434702,0.08879408018931946,0.13466063740351006
0413,cdot_cos,Q,P-Q,121,24,21243,-0.022544741739926488,-0.015804810541958238,-0.07045390799933056,0.14662163023348312,857.0,3.080388440715922,0.569554691753192,6.265103694513852,-0.02251398135933596,0.108,0.9999999999995718,263.9543613804042,0.6010270625515638,121,2026-10-08 00:01:37.327244,25.0,0.12326476337525136,0.3822329562243989,0.19198142219432632
0413,cdot_cos,R,Q-R,122,24,21270,0.06334364061866747,0.09605332388867857,0.08588838235859396,0.8954077326698984,857.0,3.142216765663405,0.5706447400543675,6.3029792843634,-0.06799654404273703,0.027,0.999999999999565,-41.725272755667234,0.6059941951615214,122,2026-10-08 00:01:37.354244,25.0,0.5122742201294379,1.55195528434463,2.289937961017886
0413,cdot_cos,S,R-S,123,24,21325,-0.0013260277691780615,-0.012378416090761865,-0.06466966838784553,0.16565471856675826,857.0,3.164194026070532,0.5708463294501355,6.330994176145607,-0.024492458365125647,0.055,0.9999999999995473,215.80542722437357,0.6109613443217521,123,2026-10-08 00:01:37.409244,25.0,0.16927617489722493,0.3796559463954145,0.3995865528568565
0413,cdot_cos,T,S-T,124,24,21535,-0.07893571025271778,0.00755702564774532,-0.07760968248353972,0.1256212658695688,857.0,3.1839789197669006,0.5709991854647052,6.358379965790232,-0.02219323454147614,0.21,0.9999999999995292,15.041762210808491,0.615928582817862,124,2026-10-08 00:01:37.619244,25.0,0.9015856676915514,0.2044145829317403,0.09421377950651662
0413,cdot_cos,P,T-P,125,25,21992,0.047132839663493506,-0.0044701207205013705,0.1260685499162113,0.95897619515869,861.0,3.250048150901863,0.572165619798119,6.397008312115247,-0.07506268212156114,0.457,0.9999999999995245,-45.325695639764454,0.6208959675893826,125,2026-10-08 00:01:38.076244,25.0,0.4944361237635954,0.09470080764301855,0.14457162173952393
0413,cdot_cos,Q,P-Q,126,25,22102,-0.02725613706557618,-0.019571083235708445,-0.07438897672906969,0.13473517648461422,861.0,3.2705354579526196,0.5723294386881062,6.424384409872753,-0.023586924086428842,0.11,0.9999999999994988,314.22357970537763,0.6258631486889823,126,2026-10-08 00:01:38.186244,25.0,0.11277220618033977,0.38223855166462145,0.18624824591596836
0413,cdot_cos,R,Q-R,127,25,22129,0.0628509329579037,0.09657697046714549,0.09010707002347988,0.904881176148081,861.0,3.3341406322680798,0.5734292334183916,6.4622217002621305,-0.07412409228534869,0.027,0.999999999999492,-45.95145512818006,0.6308302804906599,127,2026-10-08 00:01:38.213243,25.0,0.505710254193768,1.686904010168643,2.3557471968688963
0413,cdot_cos,S,R-S,128,25,22182,0.02017823419503442,-0.07383469240522111,-0.04267269876286928,0.25600878454267234,861.0,3.3616282745017263,0.5737402558499928,6.491132441320639,-0.03246923843273836,0.053,0.9999999999994738,133.92877689935244,0.63579742896369,128,2026-10-08 00:01:38.266243,25.0,0.2772315808289053,0.47368458820313236,0.5186347591254061
0413,cdot_cos,T,S-T,129,25,22413,-0.04311439172751153,0.0060240672662474366,-0.06329262592254595,0.17046777974971156,861.0,3.384351198617612,0.5739473230639492,6.518790932771393,-0.027038904121984106,0.231,0.9999999999994548,26.224983699717235,0.6407646886537575,129,2026-10-08 00:01:38.497243,25.0,0.8180481243040059,0.18874926646996112,0.0983676368653052
0413,cdot_cos,P,T-P,130,26,22853,0.04815013293597072,-0.003174475929377093,0.09126452466348225,0.9073427537709042,898.0,3.4488304356108483,0.5750490343372756,6.556570313276305,-0.07766601983966444,0.44,0.9999999999994478,-45.95316118062699,0.6457320827034563,130,2026-10-08 00:01:38.937243,25.0,0.5210773914778167,0.09826703369699809,0.14654372043917396
0413,cdot_cos,Q,P-Q,131,26,22966,-0.019989636741396286,-0.015060963367409093,-0.06813976967736701,0.154009447814972,898.0,3.47082618827097,0.5752359615986945,6.583879247004859,-0.026826354476812544,0.113,0.9999999999994201,271.97566035552205,0.650699268966431,131,2026-10-08 00:01:39.050244,25.0,0.15029747157383314,0.3778094051590826,0.19465267840815725
0413,cdot_cos,R,Q-R,132,26,22993,0.059356004293703996,0.09052529578996353,0.07934564103510028,0.8790687627221235,898.0,3.534215361176801,0.5763025081454032,6.621214500867429,-0.07821259488417343,0.027,0.9999999999994114,-48.180026053187056,0.6556663999525697,132,2026-10-08 00:01:39.077244,25.0,0.5184004679990246,1.6316366724288638,2.3477471446604037
0413,cdot_cos,S,R-S,133,26,23042,0.0034687637165773722,-0.036089049631062665,-0.05588724057712662,0.1982638229654084,898.0,3.5589345685821288,0.5765429575718469,6.649020526993245,-0.03087871547661115,0.049,0.9999999999993912,196.855863237571,0.6606335462017962,133,2026-10-08 00:01:39.126244,25.0,0.2159093475478904,0.44299119430716133,0.5044736205168926
0413,cdot_cos,T,S-T,134,26,23272,-0.08769793187888203,0.02143074562516953,-0.0911666955954594,0.09286306802027207,898.0,3.577628498218903,0.5766555671296768,6.6752735882974505,-0.023493329961966708,0.23,0.9999999999993676,65.58400243256128,0.6656008140239521,134,2026-10-08 00:01:39.356243,25.0,0.7302553952359423,0.19134665052783928,0.08127795494249598
0413,cdot_cos,P,T-P,135,27,23751,0.051801306536621516,-0.003685633834527507,0.13949923841550355,0.9703294580253604,902.0,3.646954027824935,0.5778317499375015,6.71380113042934,-0.08813276778502863,0.479,0.9999999999993618,-54.956965356948736,0.670568253413987,135,2026-10-08 00:01:39.835244,25.0,0.4802576643775047,0.09811071449003013,0.14472970690194573
0413,cdot_cos,Q,P-Q,136,27,23863,-0.005417254366053588,-0.005223285374186831,-0.0572185609026751,0.19302639443883518,902.0,3.6716185627003517,0.578065621685517,6.741348793373633,-0.031758931199773716,0.112,0.9999999999993318,241.0459453252286,0.6755354421386432,136,2026-10-08 00:01:39.947244,25.0,0.16947419772732303,0.3908988655829155,0.22021906138765057
0413,cdot_cos,R,Q-R,137,27,23890,0.06399228605579628,0.09452237952716888,0.06940954042184987,0.850081257400629,902.0,3.734515373715508,0.5790951664914497,6.778138317681244,-0.08190275762224028,0.027,0.9999999999993212,-48.704851050209626,0.6805025720911783,137,2026-10-08 00:01:39.974244,25.0,0.5421372295616166,1.5958540485134212,2.3295115190798596
0413,cdot_cos,S,R-S,138,27,23941,-0.000635548180518171,-0.00255152252788973,-0.06462783423631445,0.165799319950348,902.0,3.7577946813200764,0.5792958884193339,6.805189010521895,-0.03066249670130407,0.051,0.9999999999992971,255.27983644363104,0.6854697198242379,138,2026-10-08 00:01:40.025243,25.0,0.18803911004859616,0.37479297196915184,0.456457011854285
0413,cdot_cos,T,S-T,139,27,24173,-0.15023164326168503,-0.026181043784581807,-0.14959609508116686,0.02320515083049084,902.0,3.7727442568563614,0.5793239792229063,6.830132176464221,-0.019791044667615047,0.232,0.9999999999992691,387.0110730596762,0.6904369977829953,139,2026-10-08 00:01:40.257244,25.0,0.5773470720610194,0.18722021510349765,0.06443782558743515
0413,cdot_cos,P,T-P,140,28,24653,0.0492411242157144,-0.0028598284003082427,0.19947276747739945,0.9932189500738096,857.0,3.8446648611280994,0.5805258284520125,6.868877540372773,-0.0962347359506365,0.48,0.9999999999992631,-63.605059130315766,0.6954044584937243,140,2026-10-08 00:01:40.737243,25.0,0.4518766012243567,0.10189472496271632,0.14983459223278744
0413,cdot_cos,Q,P-Q,141,28,24742,-0.004558898578965133,-0.0033941386667495116,-0.05380002279467953,0.20668891939712822,857.0,3.870563192820569,0.5807758138033307,6.896334246555144,-0.035092952747004524,0.089,0.9999999999992302,244.58146399873863,0.7003716331561021,141,2026-10-08 00:01:40.826244,25.0,0.1751205028402584,0.5028449793544463,0.2909924909266257
0413,cdot_cos,R,Q-R,142,28,24793,0.062717847632134,0.10835606466746704,0.06727674621109914,0.8431584255785871,857.0,3.934171267453191,0.581795163132274,6.932893097549067,-0.08713126385454378,0.051,0.9999999999992194,-51.05051784502898,0.7053387802115035,142,2026-10-08 00:01:40.877243,25.0,0.5503282268603391,0.8589027915883746,1.2472171496592501
0413,cdot_cos,S,R-S,143,28,24842,-0.000355770725389874,-0.0019060447582661645,-0.06307361835752388,0.17124341562210155,857.0,3.9581712775625832,0.5820021054616766,6.959736539460297,-0.033239961090395384,0.049,0.9999999999991918,260.4170104768126,0.7103059264979676,143,2026-10-08 00:01:40.926244,25.0,0.19764543991976086,0.4401252300283386,0.48979612468147865
0413,cdot_cos,T,S-T,144,28,25071,-0.0932953608828789,0.002578959140028306,-0.09293959015748902,0.08919614431944682,857.0,3.977303539995968,0.5821098847920443,6.985322242901176,-0.026641019371698924,0.229,0.9999999999991627,61.226412301750585,0.7152732114197269,144,2026-10-08 00:01:41.155244,25.0,0.7805952226437697,0.199102633409804,0.0835469975256975
0413,cdot_cos,P,T-P,145,29,25510,0.05197966131197909,-0.005562722544772914,0.145275022194858,0.9742159159614899,861.0,4.0493602836642735,0.583286556887084,7.02370398714534,-0.10140833507284973,0.439,0.9999999999991555,-63.54133493633073,0.7202406623075714,145,2026-10-08 00:01:41.594244,25.0,0.47840881605546653,0.10693849099766088,0.1641383682649328
0413,cdot_cos,Q,P-Q,146,29,25619,-0.023515814895408767,-0.01681208486224011,-0.07549547620738786,0.13154270003680146,861.0,4.071195535091914,0.5834453636949675,7.0498011481740654,-0.03108569819951355,0.109,0.9999999999991179,442.8187796893907,0.725207855058033,146,2026-10-08 00:01:41.703244,25.0,0.10411925547966992,0.41256927249135183,0.20032340759303446
0413,cdot_cos,R,Q-R,147,29,25646,0.06426242699233797,0.09879476953144643,0.08777824188774674,0.8997505562094363,861.0,4.139300385067388,0.5845311345227372,7.087067411015568,-0.09795757504820121,0.027,0.9999999999991075,-61.58931068911531,0.7301749830052056,147,2026-10-08 00:01:41.730243,25.0,0.5052703634776106,1.7607186159446109,2.5224018509434796
0413,cdot_cos,S,R-S,148,29,25699,0.01217218300884891,-0.053469922353677014,-0.05209024398348906,0.21378556395098514,861.0,4.166274340352923,0.5847889992974018,7.114269274273794,-0.03923980709434812,0.053,0.9999999999990795,227.70759608490408,0.7351421328821227,148,2026-10-08 00:01:41.783243,25.0,0.2239387534963525,0.46380463906073677,0.5089425525572648
0413,cdot_cos,T,S-T,149,29,25930,-0.06239515254491353,0.009025792855596928,-0.07456733555376244,0.13421618865491838,861.0,4.188463676807826,0.5849508650302143,7.1402393343295545,-0.032466880174532635,0.231,0.9999999999990491,41.84287064427867,0.7401094294047523,149,2026-10-08 00:01:42.014244,25.0,0.8117114653213136,0.20260509127521514,0.09605773357100893
0413,cdot_cos,P,T-P,150,30,26371,0.05002619710983457,-0.0029998954725157048,0.1124213496547481,0.9432424004232247,894.0,4.259877892522073,0.5860879034392026,7.178085738496565,-0.10557752337769043,0.441,0.9999999999990407,-64.29918516843368,0.7450769033188372,150,2026-10-08 00:01:42.455244,25.0,0.5003321859827181,0.10724964420667665,0.1619369970844588
0413,cdot_cos,Q,P-Q,151,30,26483,-0.02014810631419937,-0.015247010345043227,-0.07017430342403394,0.14749842164338642,894.0,4.283057862998115,0.5862656238768285,7.204157068381104,-0.034648190216829335,0.112,0.9999999999990009,399.10622609526644,0.7500441021371912,151,2026-10-08 00:01:42.567244,25.0,0.12910496485566264,0.4063465116064892,0.20696402210752213
0413,cdot_cos,R,Q-R,152,30,26512,0.05827920636423476,0.091149719105722,0.07842731267843413,0.8766068298938533,894.0,4.350899511121926,0.5873213800660796,7.240988806631813,-0.1024090936529912,0.029,0.9999999999989885,-64.18234070143208,0.7550112308834838,152,2026-10-08 00:01:42.596244,25.0,0.5159895255727652,1.6452411303104657,2.339367176683141
0413,cdot_cos,S,R-S,153,30,26560,0.006800816501463392,-0.04210627528001803,-0.05147838986277137,0.21636784979281168,894.0,4.378481848556122,0.5875818431911015,7.267990540942198,-0.042088666488483084,0.048,0.9999999999989581,231.5891247923495,0.7599783768998016,153,2026-10-08 00:01:42.644243,25.0,0.23855030676628675,0.49991309524544114,0.5746320298790816
0413,cdot_cos,T,S-T,154,30,26788,-0.08137897588427677,0.017217882556981475,-0.08817979238574015,0.09934757926617165,894.0,4.3988911682654885,0.5877014211648266,7.2931873873467215,-0.031311665693408194,0.228,0.9999999999989239,90.12530033208225,0.7649456809615514,154,2026-10-08 00:01:42.872243,25.0,0.7087978983802309,0.20709775008416936,0.08951456012880016
0413,cdot_cos,P,T-P,155,31,27265,0.05308566074881057,-0.0041530961459597514,0.13446463663308733,0.9664831612995592,862.0,4.472918422594503,0.5888641695936844,7.331304477438301,-0.11469612803941617,0.477,0.999999999998916,-71.71324447879127,0.7699132085392885,155,2026-10-08 00:01:43.349244,25.0,0.4833552979542831,0.10402689601264949,0.15519340530191783
0413,cdot_cos,Q,P-Q,156,31,27377,-0.009159018046329582,-0.008399416155850613,-0.06224467879514015,0.17420454284588255,862.0,4.498132827061556,0.5890736450027768,7.357532475581935,-0.03949754748936494,0.112,0.999999999998873,358.98524259172706,0.7748804109385564,156,2026-10-08 00:01:43.461244,25.0,0.14898945569811342,0.41367832839725843,0.22512861131297152
0413,cdot_cos,R,Q-R,157,31,27402,0.06100095707574763,0.09521586876190623,0.07015997512207721,0.8524565307070999,862.0,4.565582368155489,0.5900982298968572,7.393914696223041,-0.10666791237777937,0.025,0.9999999999988588,-65.55861332379011,0.7798475350146181,157,2026-10-08 00:01:43.486243,25.0,0.5327437089656764,1.8825057046933225,2.6979816437573234
0413,cdot_cos,S,R-S,158,31,27459,0.004221058170868434,-0.033444513011614725,-0.056779898904879195,0.19474037611878825,862.0,4.592258112296222,0.5903321829745548,7.420365547886577,-0.04261695431585617,0.057,0.9999999999988248,273.7769414802012,0.7848146894563862,158,2026-10-08 00:01:43.543243,25.0,0.22247390586506333,0.41697421510630484,0.4679955112409305
0413,cdot_cos,T,S-T,159,31,27669,-0.08305851669053783,0.010272892181480591,-0.08727957486140626,0.10137954892280249,862.0,4.613117428677608,0.5904539600200058,7.445346239204955,-0.03349460463031136,0.21,0.9999999999987873,74.91025629467919,0.7897819867655097,159,2026-10-08 00:01:43.753243,25.0,0.7615855188201336,0.2284146080338889,0.09933007800659865
0413,cdot_cos,P,T-P,160,32,28127,0.048856057008516064,-0.006372518948730485,0.1319145736990539,0.9643554724035954,841.0,4.688192247670456,0.5916117865404539,7.483368176582096,-0.12170063605300904,0.458,0.999999999998779,-76.18242445212293,0.7947495204831126,160,2026-10-08 00:01:44.211244,25.0,0.4844317513541608,0.1070647244147378,0.16391881876167602
0413,cdot_cos,Q,P-Q,161,32,28233,-0.026214498459479346,-0.018195614271386235,-0.0750705554679954,0.13276102257650096,841.0,4.711188716241508,0.5917711030888287,7.508739089097352,-0.037667117744796724,0.106,0.9999999999987308,527.4625841785409,0.7997167208616666,161,2026-10-08 00:01:44.317244,25.0,0.1074261498806297,0.4468929771904529,0.21694781670803961
0413,cdot_cos,R,Q-R,162,32,28258,0.06336923725783472,0.0930658832228338,0.08958373571731407,0.9037490947011656,841.0,4.782933558834832,0.5928551106244413,7.545819263047308,-0.11860076467308922,0.025,0.9999999999987187,-74.66151688932533,0.8046838438691518,162,2026-10-08 00:01:44.342243,25.0,0.5054005022190304,2.024770634144275,2.8697937037329524
0413,cdot_cos,S,R-S,163,32,28317,0.015634827945511184,-0.0651912252799755,-0.047734409312323534,0.23265849954948237,841.0,4.812427247948722,0.5931340285100591,7.5726339673649825,-0.04926506800985026,0.059,0.9999999999986829,248.5882054843834,0.8096510011028227,163,2026-10-08 00:01:44.401243,25.0,0.24477868313271028,0.4582426881168888,0.49989303582864314
0413,cdot_cos,T,S-T,164,32,28527,-0.052298692453112514,0.005061924080058031,-0.0679335203986237,0.15468245521035734,841.0,4.8370061960326245,0.5933194331947876,7.598201738001528,-0.041281130719272995,0.21,0.9999999999986448,43.062219826153914,0.8146183083027103,164,2026-10-08 00:01:44.611244,25.0,0.8241489210508915,0.2339681194445556,0.1170426099233473
0413,cdot_cos,P,T-P,165,33,28968,0.04768806546446611,-0.0050257420641550265,0.09998675791757863,0.9241186087399947,860.0,4.910693858115435,0.5944265399174038,7.635552954705134,-0.12491341291728764,0.441,0.9999999999986343,-75.54130102325335,0.8195858496538376,165,2026-10-08 00:01:45.052243,25.0,0.5119532159263237,0.11101526439392363,0.16709220426941138
0413,cdot_cos,Q,P-Q,166,33,29075,-0.02284242483646513,-0.01574544764711115,-0.07053049030093124,0.14638223569569023,860.0,4.934921659228065,0.5946018200907969,7.660914692553131,-0.04147719525281489,0.107,0.9999999999985844,476.01628894650526,0.8245530548889378,166,2026-10-08 00:01:45.159244,25.0,0.1337722333338845,0.4514946072385926,0.22642804778159095
0413,cdot_cos,R,Q-R,167,33,29102,0.06354108109380224,0.09439451068712264,0.08638350593026738,0.8965613136548998,860.0,5.007313704064494,0.595674847742526,7.697821709598949,-0.12504298048411022,0.027,0.9999999999985708,-77.87850117062139,0.8295201789861034,167,2026-10-08 00:01:45.186244,25.0,0.5125810202373268,1.8647954124338086,2.6811868457936514
0413,cdot_cos,S,R-S,168,33,29158,0.009856304223571472,-0.0439677548320099,-0.05368477687023077,0.20716173648584205,860.0,5.035620611499491,0.5959226545920204,7.7240466091431195,-0.04938009377932592,0.056,0.9999999999985322,305.330086150355,0.8344873341395569,168,2026-10-08 00:01:45.242244,25.0,0.2160479684086878,0.4361256204379723,0.5054804899106622
0413,cdot_cos,T,S-T,169,33,29386,-0.08451686656764848,0.010705923165555825,-0.09437317079121996,0.08632708347621022,860.0,5.056159773553547,0.5960259046090958,7.748342996856788,-0.036000925302236274,0.228,0.999999999998488,129.5803028035049,0.8394546700900606,169,2026-10-08 00:01:45.470243,25.0,0.6896065807974763,0.21496015460411108,0.09008404409673602
0413,cdot_cos,P,T-P,170,34,29828,0.04904373960943102,-0.002763323815680863,0.1335606061770795,0.9657432754037374,894.0,5.1336424419989655,0.5971803836227563,7.7862859963498305,-0.13700325083957274,0.442,0.9999999999984788,-87.48736386042106,0.8444222358355398,170,2026-10-08 00:01:45.912243,25.0,0.47843938240788264,0.11931381208644658,0.17530015485388878
0413,cdot_cos,Q,P-Q,171,34,29940,-0.006709982107896134,-0.006617205741245722,-0.055753721717327155,0.1987949456037906,894.0,5.161633183437965,0.597417896034502,7.81225948246443,-0.04999534077270655,0.112,0.9999999999984275,366.32995062172927,0.8493894502656018,171,2026-10-08 00:01:46.024243,25.0,0.17546417774900497,0.4328865208318948,0.2499173342767851
0413,cdot_cos,R,Q-R,172,34,29969,0.05600571398118502,0.08843854289578355,0.06271569608908116,0.827482945943534,894.0,5.23060902266531,0.5984060481570582,7.8480285961918055,-0.12426069807321816,0.029,0.9999999999984099,-75.15579393625934,0.8543565754947504,172,2026-10-08 00:01:46.053244,25.0,0.5500986495364665,1.6708918502985997,2.3784772147360176
0413,cdot_cos,S,R-S,173,34,30017,-0.0006577947734652721,-0.023595024652106802,-0.056663508754650295,0.1951970790342637,894.0,5.258544910755284,0.5986390297006082,7.87387394784531,-0.050786416005099755,0.048,0.999999999998367,315.36524717181703,0.859323722468833,173,2026-10-08 00:01:46.101243,25.0,0.23533835468415523,0.5241510303117813,0.5819976685411307
0413,cdot_cos,T,S-T,174,34,30246,-0.08429328030003667,0.017145536053900547,-0.08363548552657141,0.10998570337783745,894.0,5.280927521575241,0.5987702858090854,7.898329408972629,-0.04088155697181324,0.229,0.9999999999983209,75.46208057057683,0.8642910705713415,174,2026-10-08 00:01:46.330244,25.0,0.7848349448848868,0.22066144903234644,0.09774065860243117
0413,cdot_cos,P,T-P,175,35,30722,0.050539964622901105,-0.007697342834369171,0.13483324492293777,0.9667803939200721,804.0,5.359607854412099,0.5999234228504615,7.936247976744133,-0.14494825786282867,0.476,0.999999999998311,-90.24660309829912,0.8692586986686267,175,2026-10-08 00:01:46.806243,25.0,0.4877474229163734,0.11077658438819388,0.16529481688415534
0413,cdot_cos,Q,P-Q,176,35,30795,-0.011677481250193881,-0.006372516912960237,-0.06221744587309499,0.1743025059507987,804.0,5.3863868299128015,0.6001312065683134,7.9616476359904285,-0.04981369501681895,0.073,0.9999999999982536,457.8537906122901,0.8742258725611334,176,2026-10-08 00:01:46.879244,25.0,0.1481089111660979,0.6800496648655127,0.3668352808315429
0413,cdot_cos,R,Q-R,177,35,30854,0.06296053093386493,0.10613080711996359,0.07463801218405881,0.8659889981817216,804.0,5.458895105482464,0.6011630051973124,7.997961124475387,-0.1360067567689415,0.059,0.999999999998238,-83.53670893684757,0.8791930314676291,177,2026-10-08 00:01:46.938244,25.0,0.5306030827927833,0.8707648897025003,1.228953823214614
0413,cdot_cos,S,R-S,178,35,30913,0.013255297015700336,-0.044162858840702486,-0.049705233918164594,0.2239783805780975,804.0,5.4891370868976965,0.6014297226264063,8.024080880805352,-0.05725066621098703,0.059,0.9999999999981926,295.2791305221679,0.8841601914107938,178,2026-10-08 00:01:46.997243,25.0,0.25267878315561854,0.4512375600442857,0.5125759561903869
0413,cdot_cos,T,S-T,179,35,31127,-0.0685828674619269,-0.005685906056703091,-0.08183816447762723,0.11446183455837461,804.0,5.512141137567689,0.6015660025800792,8.048412182203094,-0.043755395186974355,0.214,0.9999999999981425,99.02609048723785,0.8891275334262849,179,2026-10-08 00:01:47.211244,25.0,0.7346028226830918,0.23653671780025182,0.10749556387847146
0413,cdot_cos,P,T-P,180,36,31526,0.04382228647910967,0.004118721701845709,0.11240515394103658,0.9432207201187784,875.0,5.590374802116204,0.6026884141556106,8.08592136300182,-0.15003186942626998,0.399,0.999999999998131,-94.68583232401225,0.8940950973233939,180,2026-10-08 00:01:47.610244,25.0,0.4924514862854559,0.1308632760794503,0.19607434723938566
0413,cdot_cos,Q,P-Q,181,36,31659,-0.0225323888413773,-0.02272545302517503,-0.06635467532048697,0.15991416306488015,875.0,5.616570031879091,0.6028786017087111,8.11091021276791,-0.050699894485895944,0.133,0.9999999999980711,522.2843099930676,0.899062345470895,181,2026-10-08 00:01:47.743244,25.0,0.1409690905625176,0.3666518509960862,0.1969566147585448
0413,cdot_cos,R,Q-R,182,36,31690,0.04183552531597324,0.10055581638948786,0.06436791415735055,0.833299989206933,875.0,5.687904194481163,0.6038691497754752,8.146648487658592,-0.1391469869758002,0.031,0.999999999998052,-89.29106568128344,0.9040294712258099,182,2026-10-08 00:01:47.774244,25.0,0.5295975734935078,1.8327941387742874,2.301102019421693
0413,cdot_cos,S,R-S,183,36,31749,0.02516181390557374,-0.05771869020238339,-0.0166737114103995,0.39727249017947724,875.0,5.730203268483097,0.6043410904284988,8.175383009329437,-0.08330526621675488,0.059,0.999999999998013,118.32360785468254,0.9089966323808226,183,2026-10-08 00:01:47.833244,25.0,0.5115415738135958,0.5535790383201276,0.716933457659887
0413,cdot_cos,T,S-T,184,36,31946,-0.058609421894536766,-0.00073003640256895,-0.0837712358001105,0.10965393188478913,875.0,5.753226521002938,0.604471319854288,8.199456223524102,-0.045597018383297626,0.197,0.9999999999979599,289.55243874367864,0.913963965117582,184,2026-10-08 00:01:48.030244,25.0,0.43736406357057356,0.2589454298102018,0.11686930213117623
0413,cdot_cos,P,T-P,185,37,32401,0.0502213462373534,-0.0066579995840547876,0.10883076813189016,0.9382411200343281,863.0,5.832227767828316,0.6055850051758779,8.236855078108464,-0.1576957158507914,0.455,0.9999999999979485,-100.65562982141786,0.918931623679305,185,2026-10-08 00:01:48.485244,25.0,0.4912243036167633,0.11439492885153911,0.1736291139019292
0413,cdot_cos,Q,P-Q,186,37,32508,-0.02302772554724144,-0.015300864348425269,-0.07324907178459483,0.1380921918781441,863.0,5.857325906257839,0.6057488273628905,8.261321524806615,-0.05054165566237059,0.107,0.9999999999978817,654.0875942534831,0.9238988448427463,186,2026-10-08 00:01:48.592243,25.0,0.1200179731473226,0.4750591150664879,0.23456204139740933
0413,cdot_cos,R,Q-R,187,37,32531,0.06298394419795832,0.0901753570459708,0.08601166974519975,0.8956960360733127,863.0,5.9338904184525445,0.6068108353111873,8.298022409880708,-0.15537649990471747,0.023,0.9999999999978654,-98.71380380012752,0.928865959645155,187,2026-10-08 00:01:48.615244,25.0,0.5093015865661721,2.326626997862144,3.328891834552418
0413,cdot_cos,S,R-S,188,37,32590,0.011087295090775646,-0.058877109012534366,-0.05189664910718267,0.2146001827499586,863.0,5.9643507481594975,0.6070651327613301,8.323666778643076,-0.06236165675569846,0.059,0.999999999997814,365.7718278212273,0.9338331220119347,188,2026-10-08 00:01:48.674243,25.0,0.2250260738098741,0.4656827232454572,0.5162767746941187
0413,cdot_cos,T,S-T,189,37,32803,-0.0661489572824617,0.011091660929455892,-0.07723625237323735,0.12665029932095495,863.0,5.9888409797955084,0.6072151839181325,8.34783770990806,-0.05036380622656106,0.213,0.9999999999977577,79.95840075356776,0.9388004856662068,189,2026-10-08 00:01:48.887244,25.0,0.7880264170381461,0.24793538882038524,0.11497761331460535
0413,cdot_cos,P,T-P,190,38,33264,0.05498594554589151,-0.006875353179815031,0.12113490282835321,0.9538395707309574,856.0,6.069971223796982,0.6083446100173023,8.385461050091548,-0.1681455642456628,0.461,0.9999999999977458,-104.28460800194905,0.9437681792013971,190,2026-10-08 00:01:49.348243,25.0,0.49634949977871595,0.11448543072475609,0.17598751410297866
0413,cdot_cos,Q,P-Q,191,38,33371,-0.023440997863049075,-0.01560293024054228,-0.07842694340894057,0.12339416868168095,856.0,6.094396546923734,0.6084906346393505,8.409517670474067,-0.051058771274697344,0.107,0.9999999999976742,801.8291116161992,0.948735404461594,191,2026-10-08 00:01:49.455244,25.0,0.10094526259061314,0.475857464563379,0.22827404791356953
0413,cdot_cos,R,Q-R,192,38,33396,0.061505428462025294,0.09007732405534291,0.08494642632507438,0.8931816891869696,856.0,6.171804721213545,0.6095470451192803,8.446141491798599,-0.1630110976480151,0.025,0.9999999999976563,-105.97426710568065,0.9537025205135614,192,2026-10-08 00:01:49.480243,25.0,0.5031950906932602,2.1692671718396284,3.096326971592447
0413,cdot_cos,S,R-S,193,38,33454,0.010276575571681741,-0.05239339472261797,-0.051228852890343554,0.2174274635862004,856.0,6.202859905515715,0.609804052418489,8.471678521877884,-0.06596066339203646,0.058,0.9999999999976016,377.61742392052855,0.9586696824616232,193,2026-10-08 00:01:49.538244,25.0,0.22961803771974576,0.4627676286295124,0.5354342121063835
0413,cdot_cos,T,S-T,194,38,33685,-0.07985580088876097,0.008548078063567121,-0.09013237646044271,0.09506438389273365,856.0,6.225485766134568,0.6099164028922238,8.495162397974502,-0.04826039735878236,0.231,0.9999999999975393,157.54509478111413,0.9636370819010422,194,2026-10-08 00:01:49.769243,25.0,0.6929718800371177,0.22779212253909537,0.09794744856646402
0413,cdot_cos,P,T-P,195,39,34120,0.04727901305710181,-0.007354318760490809,0.1271348139458628,0.9600121525331761,824.0,6.308099866128777,0.6110503240900484,8.532863567554514,-0.17751873979445298,0.435,0.9999999999975268,-113.99235033584911,0.9686047667851096,195,2026-10-08 00:01:50.204243,25.0,0.48280659039912094,0.12543935043779192,0.1899174712510549
0413,cdot_cos,Q,P-Q,196,39,34217,-0.022416205519802782,-0.015469747378274029,-0.0696952185769046,0.149010823659352,824.0,6.334618001015447,0.6112262213310865,8.557177759864478,-0.05746809309220136,0.097,0.9999999999974527,682.504432666322,0.973571982205105,196,2026-10-08 00:01:50.301243,25.0,0.12381131520265082,0.5428065868028457,0.2733828338831969
0413,cdot_cos,R,Q-R,197,39,34249,0.0648484366563733,0.0954919624030513,0.08726464217617608,0.8985864361770886,824.0,6.413404343968529,0.6122863267743888,8.593858865315422,-0.1719902110908395,0.032,0.999999999997434,-108.02898779757057,0.978539106960409,197,2026-10-08 00:01:50.333244,25.0,0.513829303382055,1.7426639176161411,2.462073217283811
0413,cdot_cos,S,R-S,198,39,34297,0.017834182715329314,-0.06534974769171321,-0.047014253941043985,0.23588816413953156,824.0,6.44614849174288,0.6125644397038245,8.619556458193474,-0.0720867099164306,0.048,0.9999999999973769,359.21918976265914,0.9835062555791667,198,2026-10-08 00:01:50.381243,25.0,0.2501037101552548,0.61983009495159,0.6821697452989809
0413,cdot_cos,T,S-T,199,39,34542,-0.05158865012061953,0.003625191055980578,-0.06942283283594884,0.14987639686020515,824.0,6.472908033083882,0.6127411063755908,8.643787795955967,-0.05917418700262457,0.245,0.9999999999973149,73.08975023250005,0.9884736883647748,199,2026-10-08 00:01:50.626244,25.0,0.8039549142273418,0.2216319093245079,0.1092226177183737
0413,cdot_cos,P,T-P,200,40,34944,0.054275492589262016,-0.0006709810528311317,0.10586414270988154,0.9338013444050796,874.0,6.554748127311889,0.6138411543405206,8.681035914034053,-0.18230504172494366,0.402,0.9999999999972988,-111.93225990848246,0.9934413527587644,200,2026-10-08 00:01:51.028243,25.0,0.5089471327959839,0.13515704169527262,0.20358232395026693
0413,cdot_cos,Q,P-Q,201,40,35056,-0.015580158418024898,-0.012402800189442759,-0.06985565100728691,0.1485029420431204,874.0,6.581574294606881,0.6140159888238879,8.705190609280882,-0.06024566931940895,0.112,0.9999999999972218,698.1424376626248,0.9984085942423949,201,2026-10-08 00:01:51.140243,25.0,0.1318583119103814,0.4647921753745359,0.23951935084814174
0413,cdot_cos,R,Q-R,202,40,35088,0.05808751250202063,0.1015786568282016,0.07366767092004553,0.8631486676041172,874.0,6.658861574595785,0.6150316017626942,8.741253094974306,-0.1747741050749157,0.032,0.9999999999972001,-112.76779901023153,1.003375718298572,202,2026-10-08 00:01:51.172243,25.0,0.5192893294183425,1.6719579846225934,2.415227499653255
0413,cdot_cos,S,R-S,203,40,35132,-0.0006157964664721322,-0.0028441146338983774,-0.05870330896849276,0.18731030604846235,874.0,6.688579605622727,0.6152518661119407,8.766001413998682,-0.06773168779762209,0.044,0.9999999999971358,485.97250369148907,1.0083428612869478,203,2026-10-08 00:01:51.216243,25.0,0.20589498056553232,0.5862562424843277,0.6754097960668595
0413,cdot_cos,T,S-T,204,40,35362,-0.10032187472282894,0.01005229586255191,-0.09970607825635681,0.07637491331878195,874.0,6.710452123934406,0.6153416643330556,8.788848601488414,-0.05003894351112501,0.23,0.9999999999970648,197.02778147311886,1.0133102850499558,204,2026-10-08 00:01:51.446244,25.0,0.7021701726215094,0.23443882876577735,0.09509790570295228
0413,cdot_cos,P,T-P,205,41,35818,0.05112257170580712,-0.005659477990701334,0.15144444642863605,0.9778194911628166,884.0,6.7964214668549845,0.6164906447137655,8.826814697524407,-0.1980364577614007,0.456,0.9999999999970525,-128.80769483534473,1.0182780559510978,205,2026-10-08 00:01:51.902244,25.0,0.47363201984582176,0.12356424606283091,0.18852926079074245
0413,cdot_cos,Q,P-Q,206,41,35925,-0.020649357901760316,-0.013169959980371305,-0.07177192960756744,0.14254655472183408,884.0,6.823142716343708,0.616658034854722,8.850720380466631,-0.06205762241661929,0.107,0.9999999999969684,812.3467401826385,1.0232452940995012,206,2026-10-08 00:01:52.009243,25.0,0.11178581984541383,0.49947382037697147,0.2497313036329274
0413,cdot_cos,R,Q-R,207,41,35949,0.0631016531373767,0.08726578159129662,0.08375101103913701,0.8902966948130295,884.0,6.903308864415656,0.6177028690024703,8.887209322849747,-0.1874451453668572,0.024,0.9999999999969473,-120.0071066020034,1.028212404682195,207,2026-10-08 00:01:52.033243,25.0,0.512256831167387,2.282946139631703,3.3402561696645274
0413,cdot_cos,S,R-S,208,41,36008,0.0019392595576518713,-0.029675626673294056,-0.06116239357972483,0.1781312841339694,884.0,6.9327241310460295,0.6179117900215338,8.911663220004522,-0.06931366693907397,0.059,0.9999999999968785,565.4360626675182,1.0331795711501857,208,2026-10-08 00:01:52.092243,25.0,0.18189915738693221,0.44624300103249676,0.49856384119276415
0413,cdot_cos,T,S-T,209,41,36220,-0.08970802465918612,0.021512873481517418,-0.09164728421683799,0.09185589301497049,884.0,6.955965538537491,0.6180195060433934,8.934617054814701,-0.054968198366007685,0.212,0.9999999999968029,133.17859614024053,1.038146979250049,209,2026-10-08 00:01:52.304243,25.0,0.7702981728792055,0.25889403084423185,0.10962928062010156
0413,cdot_cos,P,T-P,210,42,36702,0.05101355425122201,-0.00397416168315196,0.14072157891040812,0.9711967115875345,857.0,7.042495200123984,0.6191576811328073,8.97246017897707,-0.2060326177586699,0.482,0.9999999999967898,-132.7251147891904,1.0431148203137455,210,2026-10-08 00:01:52.786243,25.0,0.4803663056513508,0.12206432403026055,0.17952211947405142
0413,cdot_cos,Q,P-Q,211,42,36811,-0.004579101979176644,-0.004659050547474027,-0.055592656230398656,0.19943706824074464,857.0,7.073635546902662,0.6193912460364696,8.997191156033079,-0.07475277258194624,0.109,0.9999999999967042,562.0700846672567,1.0480820658876224,211,2026-10-08 00:01:52.895243,25.0,0.17270212834554777,0.5030904292615301,0.2856912548502604
0413,cdot_cos,R,Q-R,212,42,36839,0.06619399852649761,0.10553109524173412,0.07077310050567426,0.8543740207605318,857.0,7.152168913702997,0.6203911948375458,9.033045867070195,-0.18979167896842758,0.028,0.9999999999966788,-115.04479655624995,1.0530491812917366,212,2026-10-08 00:01:52.923244,25.0,0.5454563429958569,1.909217491251106,2.8047631000119706
0413,cdot_cos,S,R-S,213,42,36891,-0.0004003297302064576,-0.0022192954369452482,-0.06659432825670407,0.1591109180177339,857.0,7.180551726412724,0.6205773037091032,9.0570412999742,-0.069095161244909,0.052,0.9999999999966033,648.5264066858692,1.058016337018631,213,2026-10-08 00:01:52.975244,25.0,0.1743281604796406,0.5048301910426977,0.5458233213408992
0413,cdot_cos,T,S-T,214,42,37100,-0.08818451146789585,0.0075450726847785445,-0.0877841817376894,0.10023605029934048,857.0,7.204671253571438,0.6206945296139212,9.079991943472432,-0.058924625130208616,0.209,0.9999999999965237,86.76014171518658,1.0629837518451202,214,2026-10-08 00:01:53.184243,25.0,0.8414720548476746,0.26717959238068006,0.1154044361660947
0413,cdot_cos,P,T-P,215,43,37559,0.05277311836585747,-0.006245063608746141,0.14095762983375332,0.9713613335528393,861.0,7.292232796027848,0.6218298036248023,9.117828768288364,-0.21532363125184295,0.459,0.9999999999965093,-137.7632224666643,1.067951585665611,215,2026-10-08 00:01:53.643244,25.0,0.483674122251762,0.12431518275237895,0.19076588770459793
0413,cdot_cos,Q,P-Q,216,43,37666,-0.022649118925021132,-0.015637592846761993,-0.0754222372908786,0.13175201010021076,861.0,7.318792591338122,0.6219836856796406,9.141270640020489,-0.06581718989959573,0.107,0.9999999999964139,971.5651477971778,1.0729188323237275,216,2026-10-08 00:01:53.750243,25.0,0.10315310490125225,0.512114628906439,0.24822238607732164
0413,cdot_cos,R,Q-R,217,43,37691,0.06682420599894892,0.09773152693588989,0.08947332492397006,0.9035087202899098,861.0,7.401825326613826,0.6230382911123071,9.1779419414902,-0.20707684534916107,0.025,0.9999999999963916,-133.94550328874394,1.0778859413838864,217,2026-10-08 00:01:53.775244,25.0,0.5055236008180147,2.256554293933455,3.3213094110281816
0413,cdot_cos,S,R-S,218,43,37750,0.0045181936114426615,-0.04067348093518081,-0.06230601238750626,0.1739840708712443,861.0,7.4316203060347945,0.6232412377197971,9.202061403822148,-0.0748598623393715,0.059,0.9999999999963125,651.4865394648915,1.0828531096616705,218,2026-10-08 00:01:53.834244,25.0,0.1709826409313583,0.48173685341362515,0.504999651202851
0413,cdot_cos,T,S-T,219,43,37960,-0.06931169734269096,0.013116392418986853,-0.07382989095413363,0.13637298942043968,861.0,7.458670275316634,0.6234002820412335,9.225496563840432,-0.06821208229011534,0.21,0.9999999999962309,41.79828609544713,1.087820538179434,219,2026-10-08 00:01:54.044243,25.0,0.907140880400858,0.2705809280298552,0.12880937753256932
0413,cdot_cos,P,T-P,220,44,38420,0.04403538001004051,-0.004522017885231914,0.11334707735273147,0.944468763587478,899.0,7.545264295807334,0.6245010327614701,9.26286236778967,-0.2197754298223493,0.46,0.9999999999962138,-137.69089108537415,1.0927884040804483,220,2026-10-08 00:01:54.504243,25.0,0.5017625589913258,0.12416568181598313,0.18824787063195572
0413,cdot_cos,Q,P-Q,221,44,38529,-0.027821664742816152,-0.01812982023100134,-0.07185704475285666,0.14228666819923896,899.0,7.5729027025873386,0.6246667525695062,9.286354717021961,-0.0706678578579199,0.109,0.9999999999961146,899.757088373565,1.0977556587517652,221,2026-10-08 00:01:54.613244,25.0,0.12124072535251951,0.511284203167008,0.25356336495417287
0413,cdot_cos,R,Q-R,222,44,38555,0.06066731882851879,0.08407122240965657,0.08848898357133494,0.9013419243616336,899.0,7.656724252097741,0.6257158564128565,9.32297223694912,-0.2156590488599161,0.026,0.9999999999960903,-138.20480395817114,1.1027227680752205,222,2026-10-08 00:01:54.639244,25.0,0.5105244487444232,2.263125440301845,3.223905750400111
0413,cdot_cos,S,R-S,223,44,38610,0.011030158947467741,-0.06366947872181485,-0.04963715988105105,0.22427432174947007,899.0,7.6905852254830345,0.6259767142045621,9.3478417326388,-0.0877673137200813,0.055,0.9999999999960117,490.273778305134,1.1076899302563328,223,2026-10-08 00:01:54.694243,25.0,0.23289486250926675,0.5782745986633228,0.6156540615507825
0413,cdot_cos,T,S-T,224,44,38821,-0.05282760021511,0.015314377183258523,-0.06385775916257774,0.16847920479855866,899.0,7.720334457950707,0.6261726274727976,9.371709751608952,-0.07741298820835354,0.211,0.9999999999959284,52.851578685753566,1.1126573732549907,224,2026-10-08 00:01:54.905244,25.0,0.8748049160484894,0.2772499234587946,0.14099162306953777
0413,cdot_cos,P,T-P,225,45,39319,0.05722101109397874,-0.005414238742447478,0.11004861130908875,0.9399819477484054,861.0,7.807584693182646,0.627264909198085,9.408989935571801,-0.22849424796317602,0.498,0.9999999999959097,-138.31711751386138,1.1176253401817091,225,2026-10-08 00:01:55.403244,25.0,0.516229535119731,0.11452662776518288,0.1752012755661423
0413,cdot_cos,Q,P-Q,226,45,39426,-0.0198856280863524,-0.013842234842690558,-0.07710663918033114,0.12700914601608576,861.0,7.834402979204829,0.627412397617879,9.432093613702792,-0.07073735329911898,0.107,0.9999999999958018,1069.6222448130716,1.1225925958586456,226,2026-10-08 00:01:55.510243,25.0,0.10750928333113349,0.5174340011447659,0.25063818712320823
0413,cdot_cos,R,Q-R,227,45,39452,0.063706444545563,0.09559527017532894,0.0835920726319154,0.8899080106860674,861.0,7.918315569427626,0.6284451302829971,9.468497817387952,-0.22264711565918993,0.026,0.9999999999957749,-147.09495253808598,1.1275597034860776,227,2026-10-08 00:01:55.536243,25.0,0.5054584805208817,2.1979859601751666,3.2274073162614085
0413,cdot_cos,S,R-S,228,45,39510,0.0010713887127024517,-0.022797866745008884,-0.06263505583286055,0.17280503892213192,861.0,7.948698249133938,0.6286455338072148,9.49235661268147,-0.08118206076163734,0.058,0.999999999995686,705.9010336758778,1.132526871761635,228,2026-10-08 00:01:55.594244,25.0,0.17507068749684399,0.4618473552048214,0.5238393052812419
0413,cdot_cos,T,S-T,229,45,39738,-0.098345977772758,0.011602370757081202,-0.09941736648546044,0.07688562878343841,861.0,7.971889862631385,0.6287346845260641,9.514499527228153,-0.06217077419317058,0.228,0.9999999999955884,213.24883089954966,1.1374943583866683,229,2026-10-08 00:01:55.822243,25.0,0.7365402636302124,0.2507144513237433,0.10171760305897916
0413,cdot_cos,P,T-P,230,46,40180,0.05526731588854779,0.008107756274161968,0.15361329366130577,0.9789654976631444,839.0,8.063024038937565,0.6298690502163468,9.55245471932399,-0.24575234113635014,0.442,0.9999999999955715,-161.83631831938604,1.142462252192701,230,2026-10-08 00:01:56.264243,25.0,0.47377697339315494,0.1386329092848159,0.20618591924475047
0413,cdot_cos,Q,P-Q,231,46,40321,-0.00426194416303978,-0.006670921446139968,-0.05952926005158757,0.18418731778600567,839.0,8.094441354439162,0.6300823155668805,9.576440443750688,-0.08534714074919986,0.141,0.999999999995465,752.1390604974904,1.1474295772887535,231,2026-10-08 00:01:56.405244,25.0,0.15267491794598317,0.3755512927434418,0.22281784043686204
0413,cdot_cos,R,Q-R,232,46,40346,0.04037061769951019,0.12284157101323817,0.04463256186254997,0.7532114398143965,839.0,8.168929503491215,0.6309539091215135,9.610422154830147,-0.20347922791888778,0.025,0.9999999999954212,-135.5357512016432,1.1523966811894257,232,2026-10-08 00:01:56.430244,25.0,0.5595843980653962,2.253292016587025,2.9795259620821213
0413,cdot_cos,S,R-S,233,46,40404,0.0009027146307695028,-0.006674006216271304,-0.039467903068740685,0.27156486134997115,839.0,8.207105955268513,0.6312679466707356,9.635905533897974,-0.10497193035734287,0.058,0.9999999999953364,313.6799972027425,1.1573638500372994,233,2026-10-08 00:01:56.488243,25.0,0.39124723460323185,0.5390552627496085,0.6582146858154866
0413,cdot_cos,T,S-T,234,46,40617,-0.09214372044401571,-0.023060029252050813,-0.09304643507478522,0.0889793797654158,839.0,8.23145991397017,0.631370818233151,9.65813495946168,-0.06721281524819517,0.213,0.9999999999952338,367.05105106381114,1.1623313210016553,234,2026-10-08 00:01:56.701244,25.0,0.5701906731178322,0.2711201653765797,0.11433783428007678
0413,cdot_cos,P,T-P,235,47,41019,0.04198758715606926,0.004269791717316699,0.13413130760008496,0.9662121674113439,894.0,8.322603145718936,0.6324871124870443,9.695862750035095,-0.25298649162736464,0.402,0.9999999999952152,-166.41998803743155,1.1672991661538976,235,2026-10-08 00:01:57.103244,25.0,0.4798304275833316,0.15040948083414202,0.22672445708648406
0413,cdot_cos,Q,P-Q,236,47,41161,-0.024790854653981873,-0.02526878377312249,-0.06677844181005113,0.15849604873243356,894.0,8.35238913656082,0.6326700926077747,9.719281989950678,-0.08326367466491483,0.142,0.9999999999951025,927.5478466452764,1.1722665005532082,236,2026-10-08 00:01:57.245243,25.0,0.13023982874358905,0.39353381967925555,0.20976049888650428
0413,cdot_cos,R,Q-R,237,47,41185,0.041797813751982674,0.09873769388888723,0.06658866840596454,0.84087014962768,894.0,8.434366750507845,0.6336402179428173,9.754786970160641,-0.23043933501073827,0.024,0.9999999999950671,-151.70788250712133,1.1772336010537696,237,2026-10-08 00:01:57.269243,25.0,0.5279919664463897,2.7027995617607825,3.4157339144593735
0413,cdot_cos,S,R-S,238,47,41244,0.02411628530051149,-0.0644470238845562,-0.017681528451471185,0.39125541161293564,894.0,8.482123515525338,0.6340912469795698,9.782303114843566,-0.13521157101494802,0.059,0.9999999999949911,211.13444198951126,1.1822007732931628,238,2026-10-08 00:01:57.328243,25.0,0.494460954385515,0.6255216360091934,0.809436695211739
0413,cdot_cos,T,S-T,239,47,41457,-0.0605515891233946,0.0017496034642876543,-0.0846678744239061,0.10748453537254263,894.0,8.50817830355693,0.6342151112287413,9.804747551154062,-0.07407903601393157,0.213,0.9999999999948859,493.54462978539465,1.1871682586053087,239,2026-10-08 00:01:57.541243,25.0,0.4381324823432276,0.2737137008823234,0.12232294850512782
0413,cdot_cos,P,T-P,240,48,41913,0.05367044762828315,-0.006253785876040808,0.11422203675167775,0.9456049085658911,882.0,8.598725552101207,0.6353040516182676,9.842108255820936,-0.25888282974119325,0.456,0.9999999999948648,-169.70974307202133,1.1921362444112233,240,2026-10-08 00:01:57.997243,25.0,0.4897544658085023,0.13018410141718562,0.19856852750938056
0413,cdot_cos,Q,P-Q,241,48,42020,-0.021199865388211583,-0.013885284508365925,-0.07487031301649473,0.13333845847765557,882.0,8.626906204049403,0.6354574905603221,9.864974137637512,-0.08111574642125857,0.107,0.9999999999947411,1158.5525873663992,1.1971035144274804,241,2026-10-08 00:01:58.104243,25.0,0.1117463473436128,0.5384825376223163,0.2633705789551004
0413,cdot_cos,R,Q-R,242,48,42045,0.06461000703373587,0.09146066412692996,0.08580987242194746,0.8952237732230675,882.0,8.713960815152383,0.6364869532100594,9.901434478527175,-0.251950998827678,0.025,0.9999999999947111,-165.94604228721087,1.202070615458089,242,2026-10-08 00:01:58.129244,25.0,0.5076061058286974,2.3523384402058767,3.4821844441191985
0413,cdot_cos,S,R-S,243,48,42104,-0.001000229307252249,-0.017773174848914743,-0.06561023634098812,0.16243024407299894,882.0,8.744523126059697,0.6366736062617414,9.92478048777013,-0.08903295086972932,0.059,0.9999999999946058,872.8389195347041,1.2070377888852641,243,2026-10-08 00:01:58.188244,25.0,0.1604356443624694,0.4556162176765656,0.5180052696154894
0413,cdot_cos,T,S-T,244,48,42336,-0.10612315172780734,0.019884490264806116,-0.1051229224205551,0.06735339411454895,882.0,8.767723528838218,0.6367509918259604,9.946389710022123,-0.06778847175908283,0.232,0.9999999999944906,274.5276761248081,1.2120053268500168,244,2026-10-08 00:01:58.420243,25.0,0.7309620855375996,0.25333387034125615,0.10000173611431408
0413,cdot_cos,P,T-P,245,49,42795,0.05526711954894262,-0.007070770793030564,0.16139027127674996,0.98261751375722,861.0,8.86207004189804,0.6378791616154662,9.984409813849984,-0.277146229757747,0.459,0.9999999999944718,-185.57291636959465,1.2169733501908602,245,2026-10-08 00:01:58.879244,25.0,0.4698201119773597,0.1328416789032848,0.20554795873599563
0413,cdot_cos,Q,P-Q,246,49,42903,-0.0235510206216451,-0.016783852739743015,-0.07881814017058772,0.1223401843403209,861.0,8.889672190071433,0.6380195176847789,10.006967638205133,-0.08162952517844525,0.108,0.9999999999943405,1393.004987505505,1.2219406267935755,246,2026-10-08 00:01:58.987243,25.0,0.09115705273268458,0.5337088798480165,0.2555754460499394
0413,cdot_cos,R,Q-R,247,49,42928,0.060873329406976685,0.0907227447209248,0.08442435002862178,0.8919300252415175,861.0,8.977351159945211,0.6390420810958722,10.043357320952703,-0.26066193706047286,0.025,0.9999999999943082,-175.08196551899906,1.2269077259404182,247,2026-10-08 00:01:59.012243,25.0,0.5031647781929528,2.4178095659582866,3.507158794951124
0413,cdot_cos,S,R-S,248,49,42986,0.003517511573297485,-0.03722030166899792,-0.0573558178336792,0.19249245417771516,861.0,9.010562668369348,0.6392626013630485,10.067140177844342,-0.09937658469133323,0.058,0.9999999999942008,731.385620171816,1.2318748979822811,248,2026-10-08 00:01:59.070244,25.0,0.197311540463974,0.5130910269002483,0.5726122142092452
0413,cdot_cos,T,S-T,249,49,43215,-0.08258501829758053,0.009581369287919016,-0.086102529870878,0.10409194021074634,861.0,9.03686971906564,0.6393818251261615,10.08929775720708,-0.07896593674535739,0.229,0.9999999999940835,171.19613920110416,1.2368424439593027,249,2026-10-08 00:01:59.299244,25.0,0.7722290460436939,0.2628005754689289,0.11487795063883222
0413,cdot_cos,P,T-P,250,50,43656,0.05220666174329152,-0.003968437873597961,0.13479168004087205,0.9667470052179998,838.0,9.130925331934117,0.640488285474342,10.12703211943265,-0.28382790624081755,0.441,0.9999999999940613,-185.15075558951483,1.241810460439222,250,2026-10-08 00:01:59.740243,25.0,0.48588547204466453,0.13916406057314692,0.21327803371536702
0413,cdot_cos,Q,P-Q,251,50,43766,-0.022897801110480034,-0.017047493559226173,-0.07510446285377155,0.1326634543318752,838.0,9.159612420491156,0.6406400051320185,10.14967048658112,-0.08713667458603094,0.11,0.999999999993926,1296.4123085106307,1.246777746435417,251,2026-10-08 00:01:59.850244,25.0,0.10463547434556625,0.5314510816155779,0.26079171415489744
0413,cdot_cos,R,Q-R,252,50,43796,0.05983868303358982,0.10248433116930432,0.08273648414406985,0.8877948803117077,838.0,9.247844569889544,0.6416546007615048,10.185975169521175,-0.2693814557069964,0.03,0.9999999999938922,-179.6230693534795,1.2517448551009394,252,2026-10-08 00:01:59.880243,25.0,0.5083777334824395,2.01380616494881,2.941071646612947
0413,cdot_cos,S,R-S,253,50,43846,-0.000663351643969285,-0.00439959759569333,-0.06050203467755911,0.180561062442112,838.0,9.280440790388084,0.6418607959755219,10.209445125242183,-0.10014733078350455,0.05,0.999999999993778,820.7471047773954,1.2567120099964146,253,2026-10-08 00:01:59.930244,25.0,0.18454691284401314,0.622515002424695,0.6519244099708033
0413,cdot_cos,T,S-T,254,50,44095,-0.07223688013441833,-0.00016223764096462583,-0.07157352849044904,0.14315387975576527,838.0,9.310096070132014,0.6420242360484527,10.232206809863921,-0.09139937694707234,0.249,0.9999999999936601,53.52392274162007,1.2616796160978518,254,2026-10-08 00:02:00.179244,25.0,0.9087263210340379,0.24788453722024073,0.11909750901176443
0413,cdot_cos,P,T-P,255,51,44494,0.04691410032506625,-0.005222871548435682,0.11915098045948458,0.9516059662440349,841.0,9.403887289923764,0.6431098526591703,10.269665481387468,-0.2905975935702879,0.399,0.9999999999936345,-183.48854895610373,1.266647568659347,255,2026-10-08 00:02:00.578244,25.0,0.503849402456462,0.15534908194871275,0.2350657137637858
0413,cdot_cos,Q,P-Q,256,51,44602,-0.023137464345834493,-0.016402772110738737,-0.07005156467090075,0.14788467649186846,841.0,9.434064637527086,0.6432784317706025,10.29248041091389,-0.09409949978939834,0.108,0.9999999999934968,1165.6135336786344,1.2716148555080464,256,2026-10-08 00:02:00.686244,25.0,0.12391060743106176,0.5566239962144123,0.27941988521594674
0413,cdot_cos,R,Q-R,257,51,44627,0.06463153994841958,0.10032891788320983,0.08776900429425408,0.8997297236301045,841.0,9.524118073106077,0.6443033004933832,10.328993320237265,-0.2822351029807259,0.025,0.9999999999934638,-183.57044078861784,1.2765819515242725,257,2026-10-08 00:02:00.711244,25.0,0.5134555621707543,2.533684399720748,3.6021374231596326
0413,cdot_cos,S,R-S,258,51,44685,0.015642836957116355,-0.06350091598238311,-0.04898870299130323,0.2271073107623121,841.0,9.560748857513124,0.6445617865397946,10.353220976180399,-0.11553355486870337,0.058,0.9999999999933514,644.9150754031617,1.281549125888744,258,2026-10-08 00:02:00.769243,25.0,0.23624538138059095,0.5544111206793207,0.631565248397355
0413,cdot_cos,T,S-T,259,51,44913,-0.06609576074989947,0.005772875763546137,-0.08173859770701582,0.11471437978869735,841.0,9.588429763104878,0.6446923186274547,10.375366695680816,-0.08758541437199593,0.228,0.999999999993225,214.10935041106035,1.2865167000621878,259,2026-10-08 00:02:00.997243,25.0,0.726805896145149,0.2678782252606407,0.12140748066559044
0413,cdot_cos,P,T-P,260,52,45335,0.05052959414555783,-0.002753249766448353,0.11662535489545729,0.9486138860466043,879.0,9.682901328231976,0.6457709084328704,10.412769183891891,-0.30041343101846607,0.422,0.9999999999932002,-197.32062696850127,1.2914847371670664,260,2026-10-08 00:02:01.419244,25.0,0.49240663780558713,0.14808441220526586,0.22386626807369084
0413,cdot_cos,Q,P-Q,261,52,45445,-0.019373509311120182,-0.015179297933888896,-0.06990310345667801,0.148352995746026,879.0,9.713413007006123,0.6459394546032781,10.435498323009684,-0.09763349680212818,0.11,0.9999999999930567,1203.1120833295731,1.2964520342356902,261,2026-10-08 00:02:01.529243,25.0,0.12531177578594477,0.5400959483074256,0.2773788979467895
0413,cdot_cos,R,Q-R,262,52,45478,0.05566377415708816,0.09449079207861973,0.07503728346820834,0.8671431784292433,879.0,9.80172243685961,0.6469239033559913,10.471405397545455,-0.28395136848645813,0.033,0.9999999999930186,-189.26111813421207,1.3014191479572055,262,2026-10-08 00:02:01.562243,25.0,0.5188392347114926,1.89416645044234,2.6760433288935386
0413,cdot_cos,S,R-S,263,52,45525,0.005889000648612927,-0.03615500712704742,-0.049774773508475235,0.22367635508850464,879.0,9.838427992735317,0.6471776364964894,10.495484787474885,-0.1187408908628965,0.047,0.9999999999929002,651.1190351375019,1.3063862967634794,263,2026-10-08 00:02:01.609244,25.0,0.24873856944508183,0.6529785017865972,0.7809692739512271
0413,cdot_cos,T,S-T,264,52,45773,-0.09507050788320805,0.009824142548755877,-0.10095950853182098,0.07419356806885968,879.0,9.86310241602755,0.6472617815979526,10.516786449560245,-0.08006150875166411,0.248,0.999999999992763,459.67479316868963,1.3113539347292367,264,2026-10-08 00:02:01.857243,25.0,0.6168552876975101,0.24662953833809095,0.09949364230738895
0413,cdot_cos,P,T-P,265,53,46214,0.05466551568650254,-0.0035767186512428214,0.14973602356971058,0.9768740098824394,859.0,9.96075624375101,0.6483688297302976,10.55470765899407,-0.3183689604242405,0.441,0.9999999999927409,-215.26385774010177,1.3163220494502585,265,2026-10-08 00:02:02.298244,25.0,0.4730633237401938,0.14855991362483953,0.22143725107360693
0413,cdot_cos,Q,P-Q,266,53,46326,-0.005942825184436621,-0.006204258909413619,-0.060608340870939165,0.18016817289269618,859.0,9.994132259844658,0.6485728326640262,10.577931567779673,-0.10950198512619276,0.112,0.9999999999925938,1023.8429981401345,1.3212893566621875,266,2026-10-08 00:02:02.410244,25.0,0.14846197978841771,0.5348503384347637,0.2980001436932841
0413,cdot_cos,R,Q-R,267,53,46354,0.05852327962572781,0.10027807423165125,0.06446610481016443,0.8336407046035134,859.0,10.080562719560398,0.6495160500782887,10.613208669837286,-0.28491646747389743,0.028,0.9999999999925493,-185.97460107843662,1.3262564566617607,267,2026-10-08 00:02:02.438244,25.0,0.5402788615288057,2.150834490889026,3.0868021327049737
0413,cdot_cos,S,R-S,268,53,46404,-0.00042160881588413355,-0.016638241916551343,-0.05894488844161194,0.1863926799407961,859.0,10.114578991334444,0.6497267834248172,10.636514822580178,-0.11277566856364779,0.05,0.9999999999924202,816.8654925575418,1.3312236129032153,268,2026-10-08 00:02:02.488243,25.0,0.21731656506999228,0.5899142117795719,0.6803254354809241
0413,cdot_cos,T,S-T,269,53,46633,-0.10082802372664319,0.006337103986098811,-0.10040641491075906,0.0751489625592636,859.0,10.139554140738355,0.6498117294276379,10.657733818714899,-0.08303385319717514,0.229,0.9999999999922761,350.1261316467575,1.3361912195308134,269,2026-10-08 00:02:02.717243,25.0,0.6989409414375986,0.26957428280651835,0.10906178779000432
0413,cdot_cos,P,T-P,270,54,47073,0.04736712774464272,-0.0037547611315209076,0.14819515147128592,0.9759875828673931,837.0,10.23804401285983,0.6509140903748217,10.695639405526766,-0.3289608873682317,0.44,0.999999999992253,-223.0912069221189,1.3411593642969157,270,2026-10-08 00:02:03.157243,25.0,0.47350753179994,0.15258652132092584,0.2238406184578964
0413,cdot_cos,Q,P-Q,271,54,47184,-0.006614155165962047,-0.007114541591578983,-0.053981282910604764,0.20594688270616704,837.0,10.27383027950077,0.6511464981592289,10.719254717793255,-0.12027838121262979,0.111,0.9999999999921042,897.9153030004551,1.3461266743994802,271,2026-10-08 00:02:03.268243,25.0,0.1764009119526512,0.5581613576601306,0.32239879856702985
0413,cdot_cos,R,Q-R,272,54,47212,0.06108941426330127,0.1032730311548249,0.06770356942926332,0.8445643661541482,837.0,10.361955834260378,0.6520988231080574,10.754720000154359,-0.2976020288691917,0.028,0.9999999999920596,-186.20077933974324,1.3510937728825603,272,2026-10-08 00:02:03.296243,25.0,0.5510986056973176,2.2721477896352162,3.1473412414145967
0413,cdot_cos,S,R-S,273,54,47262,0.01601136055045136,-0.054143152722285856,-0.04507805371284991,0.24472415851749588,837.0,10.401070555720342,0.652374545698973,10.779027199850638,-0.1328566999560808,0.05,0.9999999999919332,597.5039200308279,1.356060929545333,273,2026-10-08 00:02:03.346244,25.0,0.289377637838845,0.6640720946486134,0.7822944291992684
0413,cdot_cos,T,S-T,274,54,47490,-0.07167170465838894,0.0005617381742795172,-0.08768306520884031,0.10046427023049095,837.0,10.42836304372524,0.652487705901163,10.800624107320703,-0.09298380407790163,0.228,0.9999999999917867,352.35794127722903,1.36102854969416,274,2026-10-08 00:02:03.574244,25.0,0.6512800831895563,0.2743226522343594,0.1197038947583242
0413,cdot_cos,P,T-P,275,55,47910,0.051907574724056424,-0.004298770415531601,0.12357927938244537,0.9564567962561482,843.0,10.52616168513921,0.6535641688168884,10.838166868264668,-0.33470740693276824,0.42,0.9999999999917605,-224.55358129265315,1.3659966766976512,275,2026-10-08 00:02:03.994244,25.0,0.4856856056341617,0.15218151922352705,0.2328539081285
0413,cdot_cos,Q,P-Q,276,55,48020,-0.023361288348517823,-0.016830639212242388,-0.07526886307257424,0.13219125479916854,843.0,10.556195519873002,0.6537128227805702,10.860325326856893,-0.10339451370519083,0.11,0.9999999999915954,1556.0492804800879,1.3709639899635317,276,2026-10-08 00:02:04.104243,25.0,0.1067583614355562,0.5602596417757592,0.27303486121629755
0413,cdot_cos,R,Q-R,277,55,48046,0.06301086889485669,0.10207592065101977,0.0863721572433745,0.8965349990122126,843.0,10.649418806329876,0.654720216641079,10.896748539841857,-0.3223634468808624,0.026,0.9999999999915578,-217.36179041737077,1.3759310818073873,277,2026-10-08 00:02:04.130244,25.0,0.5069914957129453,2.5427646890282114,3.5855110175720877
0413,cdot_cos,S,R-S,278,55,48103,0.016688170636834095,-0.06170406211594759,-0.04632269825802259,0.23901861571827146,843.0,10.68841928370247,0.6549885565970621,10.920874101117125,-0.13565365672995233,0.057,0.999999999991426,695.7957098371334,1.3808982578839404,278,2026-10-08 00:02:04.187244,25.0,0.2524931325637081,0.6047820073589094,0.6842189012735563
0413,cdot_cos,T,S-T,279,55,48313,-0.05955427868179373,0.004654040924002904,-0.07624244931862782,0.12942399913262695,843.0,10.718363955168792,0.6551338163421435,10.942924672907651,-0.10447099207240687,0.21,0.9999999999912782,214.6683146116821,1.3858658458445525,279,2026-10-08 00:02:04.397243,25.0,0.7419439633906199,0.3013717945785094,0.14259367364915695
0413,cdot_cos,P,T-P,280,56,48753,0.04496095248234477,-0.001962251389022375,0.1045152311641385,0.9316859780204353,896.0,10.814995437425443,0.6561786430517593,10.980001795945313,-0.33863275513129,0.44,0.9999999999912487,-224.11540679792364,1.3908340602868245,280,2026-10-08 00:02:04.837244,25.0,0.5008283910009338,0.14638677100200906,0.2196170051287522
0413,cdot_cos,Q,P-Q,281,56,48874,-0.02293816151769609,-0.01763238023043389,-0.06789911400004085,0.1547949595188857,896.0,10.84718431365056,0.6563520897834156,11.002500010942855,-0.11344950418163177,0.121,0.9999999999910799,1298.2847748083389,1.395801409385764,281,2026-10-08 00:02:04.958244,25.0,0.13739758631761426,0.5125507573506588,0.2660237704555125
0413,cdot_cos,R,Q-R,282,56,48898,0.053077857374570894,0.08750786852429612,0.07601601889226699,0.869936844482753,896.0,10.939032720704303,0.6573260715975644,11.038416121060717,-0.32513141877970053,0.024,0.9999999999910364,-217.33661914732377,1.4007684940593335,282,2026-10-08 00:02:04.982244,25.0,0.521489729178845,2.7808029279056865,3.8270169605726005
0413,cdot_cos,S,R-S,283,56,48957,0.012538798019796918,-0.05576174331018129,-0.040539059354773976,0.2663000486566968,896.0,10.980662854190033,0.6576239570331689,11.062981598802843,-0.14820648119178206,0.059,0.9999999999909037,593.9361796218309,1.4057356767771343,283,2026-10-08 00:02:05.041243,25.0,0.3030755141752847,0.6069549829034051,0.705595482808992
0413,cdot_cos,T,S-T,284,56,49171,-0.06467411808698659,0.012896250678359571,-0.0772129161067835,0.12671484398929855,896.0,11.010653408686904,0.6577656577096223,11.084898282988416,-0.1070963342997972,0.214,0.9999999999907491,290.11962342689304,1.4107032905472936,284,2026-10-08 00:02:05.255244,25.0,0.6812258507965997,0.29962885505276987,0.14014277802276295
0413,cdot_cos,P,T-P,285,57,49649,0.045871021500539205,-0.0038124015645384164,0.11054513958752579,0.9406784369333243,862.0,11.108904004152619,0.6588167036308333,11.12214091517583,-0.35237696565458754,0.478,0.9999999999907196,-233.3681396833383,1.4156716466008534,285,2026-10-08 00:02:05.733243,25.0,0.498538464680268,0.13587594185510446,0.20554517879856538
0413,cdot_cos,Q,P-Q,286,57,49760,-0.02514623334571166,-0.017662620725303304,-0.07101725484625086,0.14486818444091681,862.0,11.140550809100384,0.6589784305326463,11.14437260129753,-0.11414222404003281,0.111,0.99999999999054,1473.0681101535004,1.420638973908451,286,2026-10-08 00:02:05.844243,25.0,0.12403710559230335,0.5667558273736719,0.2851063508807713
0413,cdot_cos,R,Q-R,287,57,49786,0.05761829710936726,0.09015661348683841,0.08276453045507892,0.8878647072460203,862.0,11.234723797829574,0.6599688092235823,11.180616982058664,-0.34109895124839057,0.026,0.9999999999904973,-229.16156141633564,1.4256060620856157,287,2026-10-08 00:02:05.870244,25.0,0.5140837066877889,2.5740085780841997,3.6220380280457523
0413,cdot_cos,S,R-S,288,57,49840,0.011222268365777338,-0.04712889522738232,-0.04639602874358992,0.23868532557485475,862.0,11.274399255160763,0.6602348155780393,11.204592681720284,-0.14451125844219068,0.054,0.9999999999903533,739.0338219831283,1.4305732314627233,288,2026-10-08 00:02:05.924243,25.0,0.2565677613962562,0.6304167298767125,0.7347306913183116
0413,cdot_cos,T,S-T,289,57,50050,-0.07456072471029983,0.006571583687868039,-0.08578299307607716,0.10483927435469959,862.0,11.302808804656259,0.6603516233098322,11.226013996556452,-0.10377279253597206,0.21,0.9999999999901877,348.7651483417867,1.4355408484972116,289,2026-10-08 00:02:06.134243,25.0,0.6753165946348575,0.30698061769417423,0.13528356902617203
0413,cdot_cos,P,T-P,290,58,50511,0.04991186463462834,-0.00485300956583842,0.12447258934492816,0.9573774690262133,837.0,11.403331114592316,0.6614173912977943,11.263569187763665,-0.3687138712624749,0.461,0.9999999999901596,-248.59170262104496,1.4405091937925107,290,2026-10-08 00:02:06.595244,25.0,0.4874562761202615,0.14868487278808176,0.21805273305001527
0413,cdot_cos,Q,P-Q,291,58,50619,-0.005630900822139665,-0.0058603386097440405,-0.055542765456768006,0.19963628432038402,837.0,11.43989625736687,0.6616394238874059,11.286761199855412,-0.13488689593662906,0.108,0.9999999999899832,1053.120065549189,1.4454765183011982,291,2026-10-08 00:02:06.703244,25.0,0.1766642902876679,0.594040123701719,0.3385661368014293
0413,cdot_cos,R,Q-R,292,58,50647,0.06360775068641328,0.10161320122020526,0.06923865150855295,0.8495359773172734,837.0,11.531643781311887,0.6625834688389369,11.32226960633422,-0.3398872282026131,0.028,0.9999999999899317,-217.15102859617676,1.4504436105929945,292,2026-10-08 00:02:06.731244,25.0,0.5470898639298453,2.326730406842519,3.276697283750605
0413,cdot_cos,S,R-S,293,58,50699,0.0132964526917757,-0.048626680724627176,-0.05031129799463758,0.22135586731885795,837.0,11.570193160150051,0.6628292376979378,11.345847306262076,-0.14356855007520855,0.052,0.9999999999897787,798.7939518681069,1.455410774817746,293,2026-10-08 00:02:06.783243,25.0,0.25476309783386053,0.6576890891007651,0.7413342084262331
0413,cdot_cos,T,S-T,294,58,50927,-0.06683665633222571,0.002180167783770196,-0.08013310902400142,0.11885397468408777,837.0,11.600043446578367,0.6629611635934065,11.36745440242798,-0.11147848753988276,0.228,0.9999999999896091,243.24309053434877,1.4603784599005503,294,2026-10-08 00:02:07.011244,25.0,0.7498674735418911,0.28661811434210854,0.13092230889612036
0413,cdot_cos,P,T-P,295,59,51348,0.05179922919839786,-0.007369293418601212,0.11863588553062357,0.9510094761479425,857.0,11.700891020290053,0.664015852595835,11.4048857621825,-0.37816332142249354,0.421,0.9999999999895776,-252.85637118483578,1.4653467235491338,295,2026-10-08 00:02:07.432243,25.0,0.49400445921438785,0.15712314385810475,0.23954293043155836
0413,cdot_cos,Q,P-Q,296,59,51452,-0.022127405218871354,-0.014344758644597517,-0.07392663441726921,0.1360883898591947,857.0,11.73234113370689,0.6641666440331476,11.426795152705616,-0.11857668148566991,0.104,0.9999999999893844,1721.4945660247586,1.4703140417659226,296,2026-10-08 00:02:07.536243,25.0,0.11200766971732028,0.6178514830445728,0.30240493670036656
0413,cdot_cos,R,Q-R,297,59,51477,0.06691077767043906,0.09532915473893783,0.08903818288931041,0.9025561484670448,857.0,11.829404128763324,0.6651658647105634,11.463301272628387,-0.36742116265644253,0.025,0.999999999989342,-249.03856254691271,1.475281123604129,297,2026-10-08 00:02:07.561243,25.0,0.5080003558842896,2.6297760699067396,3.8825198022573204
0413,cdot_cos,S,R-S,298,59,51536,0.003323946915955825,-0.038106497502610054,-0.06358683075448324,0.16943022249007902,857.0,11.863829937202228,0.6653532764136716,11.48581869893207,-0.1310060271677349,0.059,0.9999999999891745,1261.4747722142235,1.48024830988524,298,2026-10-08 00:02:07.620243,25.0,0.16453817604417095,0.5347818333058821,0.583488278625491
0413,cdot_cos,T,S-T,299,59,51767,-0.08353980596247729,0.013180309257277235,-0.0868637528784331,0.10233053373700608,857.0,11.892508385093418,0.6654664419385188,11.507030920101236,-0.10940699112956745,0.231,0.999999999988995,190.86233256402753,1.4852160202913265,299,2026-10-08 00:02:07.851244,25.0,0.8208464970426704,0.28625362301107843,0.12414912507008709
0413,cdot_cos,P,T-P,300,60,52205,0.05961432302481195,-0.0060274056366257335,0.14315412898728924,0.9728500095916973,881.0,11.996079111033346,0.6665413475063039,11.544875803551085,-0.39667960702680827,0.438,0.9999999999889672,-267.2538169926668,1.4901843694567907,300,2026-10-08 00:02:08.289243,25.0,0.4847155506721132,0.15288041866180344,0.23646284461170802
0413,cdot_cos,Q,P-Q,301,60,52313,-0.019955440942022395,-0.01338656550581545,-0.07956976396683435,0.12033685606718082,881.0,12.026431631841158,0.6666741881704205,11.566407159377897,-0.1168798775872278,0.108,0.9999999999887627,2106.2807183353675,1.4951517050641143,301,2026-10-08 00:02:08.397243,25.0,0.09127225057086821,0.5881655413593447,0.2810418593315898
0413,cdot_cos,R,Q-R,302,60,52337,0.06322607498190251,0.08920344364763667,0.0831815159239249,0.8888984052155738,881.0,12.123122867966964,0.6676546282512806,11.602642894040594,-0.3737498300864208,0.024,0.9999999999887158,-261.99454460677583,1.5001187817708128,302,2026-10-08 00:02:08.421243,25.0,0.502943330963413,2.7559868250241295,4.028801505241948
0413,cdot_cos,S,R-S,303,60,52396,0.0025043329900561197,-0.03279637077815958,-0.06072174199184639,0.17974979733562305,881.0,12.158718999442316,0.6678527131692423,11.625284657136259,-0.13830557129591103,0.059,0.9999999999885434,1188.6026518992248,1.5050859690647538,303,2026-10-08 00:02:08.480243,25.0,0.18225502556376957,0.5276139133203198,0.6033242622940925
0413,cdot_cos,T,S-T,304,60,52607,-0.09719990572579015,0.01854598336936636,-0.09970423871584627,0.07637815749380686,881.0,12.185381309738762,0.667936864203051,11.645919757474667,-0.10384646794351533,0.211,0.9999999999883518,409.491146962613,1.5100536330118512,304,2026-10-08 00:02:08.691243,25.0,0.7176111725762483,0.31148333436734843,0.12636166017273118
0413,cdot_cos,P,T-P,305,61,53086,0.05283736169936904,-0.006698989014440566,0.1500372674251592,0.977043536589911,840.0,12.290164966545337,0.6690123925569843,11.68384225749091,-0.40965198039153616,0.479,0.9999999999883245,-284.3304979637758,1.5150221461482056,305,2026-10-08 00:02:09.170244,25.0,0.4740223746452939,0.1431233458699332,0.21875502464838154
0413,cdot_cos,Q,P-Q,306,61,53192,-0.0196732852411903,-0.01355744524942988,-0.07251064694055934,0.1403041408626278,840.0,12.322493475082158,0.6691666946265199,11.705680975818032,-0.1270666675336044,0.106,0.9999999999881147,1831.377334785161,1.5199894805101657,306,2026-10-08 00:02:09.276243,25.0,0.10818486744383961,0.6121949415780356,0.30498592959265314
0413,cdot_cos,R,Q-R,307,61,53219,0.06339452896136157,0.09870085172738052,0.08306781420255187,0.8886173707808951,840.0,12.41995029415988,0.6701431221456196,11.741900824209836,-0.3844953746234675,0.027,0.9999999999880649,-263.64343697239644,1.5249565644897634,307,2026-10-08 00:02:09.303244,25.0,0.5119524408745819,2.449282951596381,3.6095118176934187
0413,cdot_cos,S,R-S,308,61,53276,-0.0007705717898053745,-0.012648938506809853,-0.06416510075116694,0.16740552748522358,840.0,12.454754754468363,0.6703269062612961,11.764234220409408,-0.13800881470901968,0.057,0.9999999999878828,1341.1744481131257,1.5299237461289368,308,2026-10-08 00:02:09.360243,25.0,0.16762592642737595,0.5508751066750737,0.6106045668154785
0413,cdot_cos,T,S-T,309,61,53507,-0.09368400369699256,0.004416292894511018,-0.09291343190718719,0.08924928612600574,840.0,12.482750056320839,0.6704248662310863,11.785038539642493,-0.11127222422167296,0.231,0.999999999987685,272.93383761346956,1.5348914888888503,309,2026-10-08 00:02:09.591244,25.0,0.7864069261666525,0.28750384116075256,0.12119178291115201
0413,cdot_cos,P,T-P,310,62,53926,0.0425401246325933,-0.004406125387752097,0.13622412832958586,0.9678791912175737,836.0,12.58758152908463,0.6714862580028284,11.822781042248842,-0.4182014840350976,0.419,0.9999999999876525,-289.1762193611809,1.539859845579946,310,2026-10-08 00:02:10.010243,25.0,0.48002036011981136,0.16394652966215761,0.25019444573697275
0413,cdot_cos,Q,P-Q,311,62,54035,-0.03006975149535438,-0.02153009169339235,-0.07260987612794768,0.1400051849185028,836.0,12.620137248177727,0.6716396453434921,11.84454091911078,-0.13055446954068206,0.109,0.9999999999874384,1875.298269399121,1.5448271951293242,311,2026-10-08 00:02:10.119244,25.0,0.11044119675128668,0.6086899715188803,0.29867632195501387
0413,cdot_cos,R,Q-R,312,62,54062,0.06260693016310434,0.10026249809638077,0.09267668165845871,0.9102684435194954,836.0,12.720275942875746,0.672636026293719,11.881168039923084,-0.40306002183335043,0.027,0.9999999999873915,-273.4953455609603,1.5497942774187714,312,2026-10-08 00:02:10.146244,25.0,0.5086008564791193,2.6848588871449026,3.7088405443710886
0413,cdot_cos,S,R-S,313,62,54117,0.024533235594767847,-0.07664608694519984,-0.038073694568336494,0.27851445863353164,836.0,12.765119628083552,0.6729405783315974,11.90558113347413,-0.1814427457116183,0.055,0.9999999999872257,727.6827883523554,1.5547614536339442,313,2026-10-08 00:02:10.201244,25.0,0.2948120863139708,0.7118486972847035,0.8153397310510063
0413,cdot_cos,T,S-T,314,62,54327,-0.04527470560616077,0.002464304727494894,-0.06980794120092862,0.1486538276920656,836.0,12.798579299577064,0.6731030697906598,11.927463846444303,-0.13576305850945958,0.21,0.9999999999870344,281.120542985617,1.5597291449212163,314,2026-10-08 00:02:10.411244,25.0,0.714289990367343,0.3179194134490928,0.15933176901672397
0413,cdot_cos,P,T-P,315,63,54762,0.044452737064476,-0.006363912629489773,0.08972744267063677,0.9040611564356994,842.0,12.89864578173217,0.6740903912283646,11.963965227542761,-0.40750527372623774,0.435,0.9999999999869902,-275.23175820886127,1.5646975915506485,315,2026-10-08 00:02:10.846244,25.0,0.513326372796909,0.1529459007019383,0.2300378900117401
0413,cdot_cos,Q,P-Q,316,63,54869,-0.027519478329178056,-0.01888928019983859,-0.07197221539365406,0.14193564098257516,842.0,12.93164223318775,0.6742452586190565,11.985694894907509,-0.13503580979200272,0.107,0.9999999999867686,1759.3727299005868,1.5696649406650909,316,2026-10-08 00:02:10.953243,25.0,0.1329533319680688,0.6208468604066586,0.3083780509867233
0413,cdot_cos,R,Q-R,317,63,54893,0.05949678948171313,0.09042885396920007,0.08701626781089118,0.8980191822904849,842.0,13.031507009859196,0.6752242134571941,12.02207455176724,-0.4101515640678608,0.024,0.9999999999867194,-281.03007775031887,1.5746320112872214,317,2026-10-08 00:02:10.977243,25.0,0.5113167213875285,2.9728224477992096,4.161032361310231
0413,cdot_cos,S,R-S,318,63,54952,0.01590935827092554,-0.06804675953084519,-0.04358743121078759,0.2516774526348345,842.0,13.074337710682112,0.6754982997497291,12.04590944813192,-0.1767981481703844,0.059,0.9999999999865419,851.3866700126033,1.5795992022713627,318,2026-10-08 00:02:11.036243,25.0,0.2671657340036239,0.6359068260221694,0.7259440817443477
0413,cdot_cos,T,S-T,319,63,55167,-0.05960532213028671,0.005402295076554809,-0.07551468040121224,0.1314878629362653,842.0,13.106544015329812,0.675641447209766,12.067391425288971,-0.13329401490789033,0.215,0.9999999999863408,303.91131809995477,1.5845669262327298,319,2026-10-08 00:02:11.251244,25.0,0.7215329419199394,0.3169836612328523,0.14979676580325335
0413,cdot_cos,P,T-P,320,64,55604,0.05080239321485683,-0.004235835366583017,0.11040771534514354,0.9404864309661933,862.0,13.210640685012239,0.6766643720346698,12.104590180613853,-0.43236059635879387,0.437,0.9999999999863027,-292.364183730752,1.5895354167450033,320,2026-10-08 00:02:11.688244,25.0,0.500720921255868,0.15628672053604098,0.23820748211081702
0413,cdot_cos,Q,P-Q,321,64,55714,-0.024068533015167946,-0.017422278406588082,-0.07487092623002478,0.13333668692424236,862.0,13.243138609078311,0.6768092599750787,12.126086092483005,-0.13564767488268797,0.11,0.9999999999860723,2047.8786615278582,1.5945027821750566,321,2026-10-08 00:02:11.798244,25.0,0.11221042908118654,0.5985689486688256,0.29543567332793425
0413,cdot_cos,R,Q-R,322,64,55741,0.056218385240709795,0.08784628041733812,0.08028691825587775,0.881548137692518,862.0,13.34232585371938,0.6777663239528703,12.162133437490787,-0.41542623759238756,0.027,0.9999999999860176,-292.3300523286642,1.5994698612427452,322,2026-10-08 00:02:11.825243,25.0,0.5099342408070847,2.6079557960255864,3.673601653372921
0413,cdot_cos,S,R-S,323,64,55796,0.008912664767199522,-0.049200843339506674,-0.047305720473510275,0.2345773084954302,862.0,13.383968222063693,0.678020745243083,12.185576523014246,-0.17526232044509454,0.055,0.9999999999858306,943.9615566233473,1.604437039505834,323,2026-10-08 00:02:11.880243,25.0,0.25402789883830007,0.6523921800723123,0.7571339698965961
0413,cdot_cos,T,S-T,324,64,56024,-0.07665690050541149,0.007346128394943566,-0.08556956527261102,0.10534107550775133,862.0,13.414088993527335,0.6781349632805868,12.206481019958712,-0.1270876200180983,0.228,0.9999999999856163,421.7783940247014,1.6094048248733188,324,2026-10-08 00:02:12.108243,25.0,0.6844998704578544,0.3001827552495361,0.13210864677035772
0413,cdot_cos,P,T-P,325,65,56466,0.051766126853670325,-0.0030683502657622695,0.12842302735908181,0.9612303250143337,817.0,13.520851558457482,0.6791762105972692,12.244075593773555,-0.4519880163173969,0.442,0.9999999999855814,-312.02999623036857,1.614373369578525,325,2026-10-08 00:02:12.550244,25.0,0.48732440689704165,0.16120386395380307,0.24154426454784367
0413,cdot_cos,Q,P-Q,326,65,56554,-0.012603704750831649,-0.00858887278857919,-0.06436983160450198,0.16669335203130695,817.0,13.556593209262497,0.6793565993243709,12.266156585965774,-0.15207087360768423,0.088,0.9999999999853505,1662.6157716642938,1.6193406628554892,326,2026-10-08 00:02:12.638243,25.0,0.13914767459877042,0.7478816271545563,0.4061551227842615
0413,cdot_cos,R,Q-R,327,65,56609,0.05260400258083257,0.10632040878026777,0.06520770733166423,0.8361960327460097,817.0,13.652478724836683,0.6802606873289797,12.301304130556899,-0.4093370031825416,0.055,0.9999999999852848,-284.5587246632764,1.6243078402536568,327,2026-10-08 00:02:12.693243,25.0,0.5333941248490536,1.2914339638077654,1.7433730104397618
0413,cdot_cos,S,R-S,328,65,56668,0.015099031963819357,-0.038709169159889194,-0.03750497061701322,0.28138047959341217,817.0,13.69865094528135,0.6805646095375998,12.325603380221853,-0.19803948209411282,0.059,0.9999999999851001,695.2355408569839,1.6292750335658588,328,2026-10-08 00:02:12.752243,25.0,0.3440575140845797,0.6292713530234466,0.7825800075367337
0413,cdot_cos,T,S-T,329,65,56903,-0.08254847393681107,-0.011559656862043213,-0.09764750590063043,0.08008537250798693,817.0,13.72673274449345,0.6806510826174481,12.345946636093323,-0.12075680622323322,0.235,0.9999999999848715,893.7194790151297,1.6342428612657298,329,2026-10-08 00:02:12.987243,25.0,0.5272997604120231,0.28902245271059834,0.11949701792382729
0413,cdot_cos,P,T-P,330,66,57283,0.04801683646656734,0.0058933823987763045,0.1305653104033784,0.9631776460093037,859.0,13.834491498055332,0.6816901097781638,12.383570715202723,-0.46486939912751596,0.38,0.9999999999848345,-331.18729318611435,1.6392112186150625,330,2026-10-08 00:02:13.367244,25.0,0.47700181385943374,0.18818833188858936,0.28357566726811
0413,cdot_cos,Q,P-Q,331,66,57421,-0.01879489569886845,-0.021316271280500888,-0.06681173216543579,0.15838507770758556,859.0,13.869755876728778,0.6818607949630197,12.405426084142848,-0.15287593764326446,0.138,0.9999999999845977,1827.8883533314831,1.644178698456994,331,2026-10-08 00:02:13.505243,25.0,0.12992111935804462,0.4694836723123121,0.25553897589453706
0413,cdot_cos,R,Q-R,332,66,57450,0.03939664521798498,0.10520841314855668,0.058191540916853426,0.8107342985626306,859.0,13.96406899161353,0.6827337250520968,12.440057074968916,-0.41016917266474967,0.029,0.9999999999845215,-294.74666784997885,1.6491457811178898,332,2026-10-08 00:02:13.534244,25.0,0.5340394067102138,2.666328481533969,3.2521763753362767
0413,cdot_cos,S,R-S,333,66,57509,0.028740981866285525,-0.05672894305507077,-0.010655663351699454,0.43379316950920793,859.0,14.024402928657748,0.6832002698776072,12.46729155295142,-0.2636433026896614,0.059,0.9999999999843672,314.06600601519443,1.654112975897622,333,2026-10-08 00:02:13.593244,25.0,0.57362858623236,0.7775397779161886,1.0226091024443762
0413,cdot_cos,T,S-T,334,66,57743,-0.053171026250461405,-0.006083069173943858,-0.08191200811674693,0.1142748473197076,859.0,14.05581868540764,0.6833231113026204,12.488242230231666,-0.13770012190906808,0.234,0.9999999999841399,1025.2500796623344,1.6590808193857287,334,2026-10-08 00:02:13.827244,25.0,0.4006691560353777,0.2909945367257201,0.1342553707260344
0413,cdot_cos,P,T-P,335,67,58142,0.04512366812658672,-0.0038739252645704665,0.09829469437704813,0.9210985449863908,859.0,14.160588371845385,0.6843123252782608,12.525029451879336,-0.4606722256249176,0.399,0.999999999984091,-326.4936724198098,1.6640492816198136,335,2026-10-08 00:02:14.226244,25.0,0.4960449527155238,0.17395077732441144,0.26258066776377187
0413,cdot_cos,Q,P-Q,336,67,58252,-0.02686972195552742,-0.019310394459879632,-0.07199339008211414,0.14187118161460702,859.0,14.19463140571252,0.684464539869884,12.546501084715516,-0.15038483358181515,0.11,0.9999999999838416,2038.4865125890658,1.6690166658427352,336,2026-10-08 00:02:14.336244,25.0,0.12703544622659574,0.6220667393032852,0.30948212606486697
0413,cdot_cos,R,Q-R,337,67,58279,0.05928078491069012,0.09474935668790266,0.08615050686621753,0.8960198612219032,859.0,14.297443054492108,0.6854249708853821,12.58278892693438,-0.4556099437935762,0.027,0.999999999983785,-317.8001389859858,1.6739837396689154,337,2026-10-08 00:02:14.363244,25.0,0.5117462625322742,2.7085414178339797,3.807838843688421
0413,cdot_cos,S,R-S,338,67,58334,0.013976427737155708,-0.05850957651014563,-0.04530435717353441,0.2436799536595438,859.0,14.340892642275556,0.6856858942631014,12.606240846062114,-0.19344870831659422,0.055,0.999999999983581,1004.7441427766173,1.678950920901011,338,2026-10-08 00:02:14.418243,25.0,0.25789631544620834,0.6940210792538501,0.7899925051535917
0413,cdot_cos,T,S-T,339,67,58563,-0.0628223386457259,0.007876308481371089,-0.0767987663828816,0.12786500546676866,859.0,14.373785373210032,0.6858227604266204,12.627395360052073,-0.14680274741555616,0.229,0.9999999999833501,340.8144109671425,1.6839187636973885,339,2026-10-08 00:02:14.647244,25.0,0.7277877463370224,0.3077629525379681,0.14363637962653264
