record_id,input,event,transition,event_index,k,peak,value_cos,value_sin,value_return,x_input,rr,knowledge,decision,decision_norm,entropy,delta_t,cosine_similarity,delta_h_over_delta_d,frobenius_norm,matrix_size,timestamp,scale,P,zdot,zdot_back
0249,cdot_cos,Q,P-Q,1,0,1025,-0.013563152304581062,-0.03197803630539045,-0.03930569648289804,0.011961485709786921,1019.0,5.941439243092774e-05,0.5000148535981034,0.5000148535981034,,,1.0,,0.004967141530112327,1,2026-10-08 01:46:17.109244,112.3,,,
0249,cdot_cos,R,Q-R,2,0,1055,0.02433153972495397,0.1300925335833187,0.037894692029535035,0.9860134510064803,1019.0,0.007010373660759484,0.5012392681508675,0.7088593710129213,-8.86202603980605e-06,,1.0000000000000002,,0.009934283060224654,2,2026-10-08 01:46:17.139244,112.3,,,
0249,cdot_cos,S,R-S,3,0,1085,-0.0009557318840599532,-0.03001432695370054,-0.025287271609013923,0.05521302455741765,1019.0,0.009060935692988594,0.5013078304327654,0.8682906325416732,-5.9430003151128655e-06,0.03,0.9999999999999998,0.0425748041618652,0.014901424594060155,3,2026-10-08 01:46:17.169244,112.3,0.6119098077635139,0.059043021665904,0.06835206774097036
0249,cdot_cos,T,S-T,4,0,1335,-0.04273325994156953,0.0026122321270621554,-0.04177752805750958,0.009088490522910126,1019.0,0.010552954960713724,0.5013191163095628,1.0026382326192145,-5.277396327870988e-06,0.25,1.0000000000000002,0.05897671923840769,0.019868566160399045,4,2026-10-08 01:46:17.419244,112.3,0.8815059253851146,0.027674436223778475,0.005968077070900517
0249,cdot_cos,P,T-P,5,1,1854,0.02254072884793416,3.917972555732799e-05,0.06527398878950369,0.9993450319641065,1020.0,0.022898153804877832,0.5025600690510565,1.1237584771762859,-7.44700719328681e-05,0.519,0.9999999999999998,-0.055757703973247905,0.024835707844476588,5,2026-10-08 01:46:17.938244,112.3,0.3948955429915025,0.014227439584172332,0.02378651029704067
0249,cdot_cos,Q,P-Q,6,1,2043,-0.012340591073108661,-0.028726242954074915,-0.03488131992104282,0.019509102182557345,1020.0,0.025321037249084605,0.5025842945278368,1.2310750743339494,-2.1068101038809107e-05,0.189,1.0000000000000002,2.2043723381968516,0.029802849462633358,6,2026-10-08 01:46:18.127244,112.3,0.07928303570832364,0.046233094681567104,0.012819489122787157
0249,cdot_cos,R,Q-R,7,1,2072,0.029591398398553844,0.11057325066742887,0.041931989471662504,0.991066402936842,1020.0,0.0403742635945102,0.5038149352817287,1.3329690255624884,-0.00017832948955448142,0.029,1.0000000000000002,-0.12778821765680484,0.03476999098082633,7,2026-10-08 01:46:18.156243,112.3,0.4140127248561625,0.3151858518108163,0.519076770531917
0249,cdot_cos,S,R-S,8,1,2103,-0.0009689736105153785,-0.02827994258131919,-0.030560372009069223,0.03131234551916277,1020.0,0.043601816654111954,0.5038538162079554,1.4251138006766053,-4.887510918834273e-05,0.031,0.9999999999999999,3.329508654481498,0.03973713252333566,8,2026-10-08 01:46:18.187244,112.3,0.07074474244069202,0.10046480455615393,0.10411461482586307
0249,cdot_cos,T,S-T,9,1,2354,-0.03399687701217541,0.0021616155838118226,-0.03302790340166003,0.023915239119345278,1020.0,0.04660308147699174,0.5038835120244212,1.5116505360814474,-4.88194396227336e-05,0.251,1.0,0.0018746602126056108,0.044704274408515064,9,2026-10-08 01:46:18.438244,112.3,0.9988603343736635,0.04222764284101995,0.011957230370038999
0249,cdot_cos,P,T-P,10,2,2874,0.021343524638737284,-7.255914831724093e-05,0.055340401650912696,0.9980042290666622,1039.0,0.06480009336030397,0.5051227179303034,1.5973382865752177,-0.00036554143182359895,0.52,1.0,-0.25558463746618654,0.04967141695341547,10,2026-10-08 01:46:18.958244,112.3,0.4204430591687825,0.020823337808849384,0.03499425362175428
0249,cdot_cos,Q,P-Q,11,2,3064,-0.014271254528376099,-0.03154996883142638,-0.035614779167113385,0.01799434190161172,1039.0,0.0682593527981951,0.5051450606852571,1.6753766310476839,-8.29979583688019e-05,0.19,1.0000000000000002,12.645865473620335,0.054638558860681925,11,2026-10-08 01:46:19.148243,112.3,0.03323266599310454,0.06170170199052884,0.018206628620479642
0249,cdot_cos,R,Q-R,12,2,3094,0.02311791976706529,0.11446470012011589,0.03738917429544139,0.9852085534954172,1039.0,0.08824674011670493,0.5063683154816037,1.7541112995845827,-0.0005640289196199462,0.03,1.0000000000000002,-0.393238565414026,0.05960570032611077,12,2026-10-08 01:46:19.178244,112.3,0.42619936693124066,0.4103303740299968,0.6662462439503275
0249,cdot_cos,S,R-S,13,2,3123,-0.001793042579805368,-0.029245959095965973,-0.02491096234687066,0.05745936275643313,1039.0,0.09287917523999491,0.5064396559733336,1.8259941476111168,-0.0001512872907924854,0.029,0.9999999999999999,5.7855170159150395,0.06457284183232802,13,2026-10-08 01:46:19.207244,112.3,0.06533694468092048,0.1490000637661568,0.15973914218241309
0249,cdot_cos,T,S-T,14,2,3373,-0.03368212505750686,0.004216944979825423,-0.031889082477701496,0.027089550951383674,1039.0,0.09688874381514202,0.5064732897725364,1.895049525955058,-0.00013719307580253138,0.25,0.9999999999999999,0.4190491506771889,0.06953998434543708,14,2026-10-08 01:46:19.457243,112.3,0.9023681449665032,0.0532334899746536,0.016038274300588462
0249,cdot_cos,P,T-P,15,3,3913,0.023533749814630273,-5.8482886267762385e-05,0.05721587487213713,0.9983826421457054,979.0,0.11949592022732171,0.5077128166085909,1.9663632835040343,-0.0008819703798937466,0.54,1.0000000000000002,-0.6008561351215784,0.07450712859835726,15,2026-10-08 01:46:19.997243,112.3,0.42979493856818823,0.024844526305116306,0.04186514150403645
0249,cdot_cos,Q,P-Q,16,3,4083,-0.013490895230997162,-0.02579618464176475,-0.037024645045627434,0.015400004841200741,979.0,0.12372083222466763,0.5077319355477643,2.0309277424385064,-0.00018526434215415118,0.17,1.0,36.44062211931022,0.07947427087754892,16,2026-10-08 01:46:20.167244,112.3,0.02326965466735115,0.08343626397062599,0.024852423513799564
0249,cdot_cos,R,Q-R,17,3,4131,0.03057092232703549,0.13680719382314344,0.04406181755803265,0.9929534252471303,979.0,0.14786424997733455,0.5089646262319656,2.0985149139501678,-0.0011820873835717866,0.048,1.0,-0.8086562624293046,0.08444141239461726,17,2026-10-08 01:46:20.215244,112.3,0.43029960184491983,0.30349679077732544,0.5029878698472274
0249,cdot_cos,S,R-S,18,3,4162,0.0006254392108076552,-0.024565996958281246,-0.029945483116227835,0.033475987448861814,979.0,0.15285652413929088,0.5090061827987934,2.1595303414381886,-0.00027064841155600126,0.031,1.0,21.932489654221172,0.08940855384427712,18,2026-10-08 01:46:20.246243,112.3,0.03447184092886976,0.15230080734490278,0.16104110199859123
0249,cdot_cos,T,S-T,19,3,4392,-0.03858439932052148,0.0025943285170154234,-0.03920983853132914,0.012089379758028478,979.0,0.15730690003271852,0.5090211903350321,2.2187719290977914,-0.00024884586650266024,0.23,0.9999999999999999,1.452773107225493,0.09437569709582436,19,2026-10-08 01:46:20.476243,112.3,0.9161138274512206,0.06680975012954257,0.019349460406207147
0249,cdot_cos,P,T-P,20,4,4892,0.024695780613049934,-3.9375673515561534e-05,0.06328017993357142,0.9991808011775255,999.0,0.18358900919888047,0.5102614964663469,2.281958785204688,-0.0016150411641255632,0.5,0.9999999999999998,-1.1014984632662386,0.09934284332550092,20,2026-10-08 01:46:20.976243,112.3,0.4291624332526557,0.031147867108816507,0.052564218332323887
0249,cdot_cos,Q,P-Q,21,4,5081,-0.012819760493050659,-0.031777980214058046,-0.03751554110610059,0.01458606362562506,999.0,0.18845476714153503,0.5102796015845051,2.338394900496559,-0.0003263213502774577,0.189,1.0000000000000002,71.17986210218511,0.10430998645215771,21,2026-10-08 01:46:21.165244,112.3,0.019269430402966532,0.0854812775860321,0.025744751019336317
0249,cdot_cos,R,Q-R,22,4,5110,0.026232303366312805,0.11555972523138328,0.03905206385936347,0.9876971693432564,999.0,0.2159009321264006,0.5115055267855386,2.3991735848143607,-0.0020003213336813397,0.029,1.0,-1.3654992833108088,0.10927712771120852,22,2026-10-08 01:46:21.194243,112.3,0.4330658278530702,0.5769935789219087,0.9464194822367439
0249,cdot_cos,S,R-S,23,4,5141,-0.0001772234504543464,-0.028983655744845967,-0.026409526816767153,0.048995522165859375,999.0,0.22192039471900574,0.5115663363218814,2.453385962743087,-0.00047501434221024284,0.031,1.0000000000000002,25.083351776809497,0.11424426908828234,23,2026-10-08 01:46:21.225244,112.3,0.04031322669694686,0.17794369171586588,0.19417621266468177
0249,cdot_cos,T,S-T,24,4,5391,-0.0412190537336182,0.00011444684491559678,-0.041041830283163855,0.009863540983121307,999.0,0.2269334410127843,0.5115785781615837,2.5062129604238104,-0.000405562931369856,0.25,1.0,5.67328216423826,0.11921141376161855,24,2026-10-08 01:46:21.475244,112.3,0.8426134730861892,0.06903086307029876,0.0200521851751142
0249,cdot_cos,P,T-P,25,5,5891,0.026151823220140116,-2.733755187501945e-05,0.06737087695375832,0.9994823789964761,1039.0,0.2564358262541551,0.5128189813530024,2.564094907718158,-0.0025700120417987624,0.5,0.9999999999999998,-1.7449560960523733,0.12417856287653865,25,2026-10-08 01:46:21.975244,112.3,0.4307643236459249,0.03484094374499841,0.059004770482741664
0249,cdot_cos,Q,P-Q,26,5,6061,-0.014526321219320123,-0.024042495986727697,-0.04067814443946024,0.010270503503599067,1039.0,0.2617743847577827,0.5128317267226741,2.6149389831300494,-0.0004985725897605676,0.17,1.0000000000000002,162.524862393257,0.1291457065790805,26,2026-10-08 01:46:22.145243,112.3,0.015689870895265974,0.10608995483306707,0.03140328531545634
0249,cdot_cos,R,Q-R,27,5,6094,0.03878979008681357,0.12407420119665252,0.05331611130613369,0.9974961014412199,1039.0,0.29250641089739793,0.5140695057656165,2.671183509355096,-0.0030694570815390037,0.033,1.0,-2.0770140732605915,0.13411284778244625,27,2026-10-08 01:46:22.178244,112.3,0.43276095094750855,0.5513096834013698,0.9312735193822798
0249,cdot_cos,S,R-S,28,5,6140,-0.0013409319189190006,-0.020597539353219244,-0.04013072200573257,0.010914591946422008,1039.0,0.2981608238622731,0.5140830486042395,2.7202718012210467,-0.0006018250782041067,0.046,0.9999999999999998,182.20936334184634,0.13907998938697452,28,2026-10-08 01:46:22.224244,112.3,0.016568567812834212,0.12407259595270187,0.12292202097554733
0249,cdot_cos,T,S-T,29,5,6371,-0.036930407043137686,0.009154506802548562,-0.035589475124218686,0.018044624138850295,1039.0,0.3039210897250465,0.5141054383498911,2.768542515327946,-0.0006249379369861447,0.231,0.9999999999999999,-1.0322966210372542,0.14404713514235434,29,2026-10-08 01:46:22.455244,112.3,0.9636913166275353,0.08255595096160878,0.024936215856161882
0249,cdot_cos,P,T-P,30,6,6930,0.02680357881784478,-8.929615888698543e-06,0.06373398586098247,0.9992214718776049,999.0,0.33630167320653637,0.5153451801193832,2.8226618023641596,-0.003735004071133868,0.559,0.9999999999999998,-2.5086402754839248,0.14901428921935744,30,2026-10-08 01:46:23.014244,112.3,0.43488189597143145,0.034243306173844815,0.05792590962699439
0249,cdot_cos,Q,P-Q,31,6,7120,-0.012140418848818387,-0.030690376539322186,-0.03894399766666316,0.01245117505726599,999.0,0.342205106027405,0.5153606272285642,2.869406536840584,-0.0007216610899970706,0.19,1.0000000000000002,195.07488073194617,0.15398143438100034,31,2026-10-08 01:46:23.204243,112.3,0.01536650303953181,0.10196942219374722,0.031070699057203353
0249,cdot_cos,R,Q-R,32,6,7150,0.020142722514926346,0.1395544162251422,0.03228314136374473,0.9740526728088994,999.0,0.3750500536401603,0.5165689578594418,2.9221553072221464,-0.004243748483199544,0.03,1.0,-2.914837465176689,0.15894857530234754,32,2026-10-08 01:46:23.234244,112.3,0.4360722875129015,0.6892986372169507,1.0948315870918435
0249,cdot_cos,S,R-S,33,6,7180,2.4258945113275683e-05,-0.026842257486170747,-0.02011846356981307,0.09454998319409015,999.0,0.38356302426042205,0.5166862388004089,2.9681364701967974,-0.0011633276723384757,0.03,1.0000000000000002,26.26531459809602,0.16391571636150065,33,2026-10-08 01:46:23.264243,112.3,0.0707969694336165,0.2418378793139516,0.283765687342058
0249,cdot_cos,T,S-T,34,6,7430,-0.0429999659923962,3.7584133327699526e-05,-0.04302422493750948,0.007910514703884186,999.0,0.3895603263989974,0.5166960510152281,3.0128298205495714,-0.0008352274296885995,0.25,1.0,33.4379392109655,0.16888286438638558,34,2026-10-08 01:46:23.514244,112.3,0.6751452489820011,0.08211582613856061,0.023989208554301422
0249,cdot_cos,P,T-P,35,7,7929,0.025971592276573082,2.534318154525912e-05,0.06897155826896928,0.999567504476823,980.0,0.42462093732970235,0.5179358099813742,3.0641495776775165,-0.005141217024773467,0.499,1.0,-3.4732473913621025,0.17385002126569943,35,2026-10-08 01:46:24.013243,112.3,0.4327726022504589,0.041552825670738786,0.07026174535211413
0249,cdot_cos,Q,P-Q,36,7,8099,-0.012621268612656259,-0.024295485766559932,-0.03859286088922934,0.012945483905857827,980.0,0.4310300464183947,0.517951864789999,3.107711193068159,-0.0009876854798192994,0.17,1.0,258.7095020582814,0.1788171670898004,36,2026-10-08 01:46:24.183244,112.3,0.014916041736601125,0.12457002308416316,0.037700641698190325
0249,cdot_cos,R,Q-R,37,7,8147,0.03136242142032703,0.14013091711444867,0.04398369003298329,0.9928917699521851,980.0,0.46697474517831783,0.5191831223911433,3.158067647918624,-0.005812437758437938,0.048,0.9999999999999996,-3.9185563395788883,0.18378430854020283,37,2026-10-08 01:46:24.231244,112.3,0.4360171084812631,0.44953333252039973,0.7488478908317316
0249,cdot_cos,S,R-S,38,7,8178,0.0006409023339617907,-0.023245940951322222,-0.03072151908636524,0.030768066295070715,980.0,0.4741852463403531,0.5192212733741913,3.20069489295864,-0.0012219999057435644,0.031,0.9999999999999994,120.32292449484947,0.18875144946892738,38,2026-10-08 01:46:24.262244,112.3,0.023365467895304026,0.22247984983525448,0.2325968116785566
0249,cdot_cos,T,S-T,39,7,8409,-0.038343953314327855,0.002540029602556735,-0.03898485564828964,0.012394882060478927,980.0,0.4807684958681036,0.5192366423929298,3.2426317971963137,-0.0011320455122802251,0.231,0.9999999999999996,5.852969209955891,0.19371859882674325,39,2026-10-08 01:46:24.493243,112.3,0.9236132855146493,0.09541614629499792,0.02849891570454772
0249,cdot_cos,P,T-P,40,8,8909,0.020863492553241093,-7.252193506681906e-05,0.059207445867568945,0.9987063539531726,1059.0,0.5182675059286421,0.5204748649399521,3.2917720815133666,-0.00674460659116533,0.5,1.0000000000000002,-4.532756322667657,0.19868576065994875,40,2026-10-08 01:46:24.993243,112.3,0.4351104195822215,0.04458441050012779,0.07499802012107704
0249,cdot_cos,Q,P-Q,41,8,9097,-0.013637131700271244,-0.02796844351695824,-0.03450062425351234,0.020343907481494387,1059.0,0.5253529063682314,0.5205000852920454,3.332826718483206,-0.0013312537600135622,0.188,0.9999999999999998,214.64223858285106,0.20365290869700403,41,2026-10-08 01:46:25.181243,112.3,0.017139717656061378,0.12098981888295743,0.03768830021058124
0249,cdot_cos,R,Q-R,42,8,9126,0.034002595331181905,0.105760454063401,0.04763972703145315,0.9952740115157956,1059.0,0.5637596778286341,0.5217337968739897,3.381221458432397,-0.007529112444991538,0.029,1.0000000000000002,-5.023750101470487,0.20862004916786947,42,2026-10-08 01:46:25.210243,112.3,0.4390307463859265,0.7862579133573141,1.3243714296690594
0249,cdot_cos,S,R-S,43,8,9158,-0.0026226744708864958,-0.02704896671013886,-0.0366252698020684,0.016095045673369453,1059.0,0.5709558653429556,0.5217537456684641,3.421368119355062,-0.0014697760671725857,0.032,0.9999999999999994,303.744488700205,0.2135871899729596,43,2026-10-08 01:46:25.242244,112.3,0.016201919483062772,0.23015730012603852,0.2248808598225467
0249,cdot_cos,T,S-T,44,8,9408,-0.034105732240730054,0.006296312834648802,-0.03148305776984356,0.02831754758454046,1059.0,0.5784897450367006,0.5217888433150749,3.461155633485197,-0.0015587129483062288,0.25,0.9999999999999998,-2.5339841762001463,0.2185543425717876,44,2026-10-08 01:46:25.492243,112.3,0.9445393828311514,0.09466807523839704,0.030135518774979886
0249,cdot_cos,P,T-P,45,9,9968,0.022569583973381487,-7.424927365229622e-05,0.05667531621411154,0.998281593541909,999.0,0.6182899029621541,0.5230260044884464,3.508565108318862,-0.008571592535541328,0.56,0.9999999999999998,-5.668525442100509,0.22352151341850196,45,2026-10-08 01:46:26.052243,112.3,0.4412456034677642,0.041928103072708105,0.07107171058116704
0249,cdot_cos,Q,P-Q,46,9,10137,-0.01861192885157666,-0.033583501178862676,-0.04118151282495815,0.009711516101918477,999.0,0.6254492204781337,0.5230380385179259,3.547416581308087,-0.0016023688076436113,0.169,1.0,579.1263632674356,0.22848866198122467,46,2026-10-08 01:46:26.221244,112.3,0.012915519450133098,0.14162641118204194,0.04236282553834044
0249,cdot_cos,R,Q-R,47,9,10168,0.03289552770586061,0.11348826065471446,0.05150745655743727,0.9969339284217797,999.0,0.6661596299416843,0.5242732448249929,3.594236293720501,-0.009460112433509707,0.031,0.9999999999999998,-6.361482758717285,0.23345580225461093,47,2026-10-08 01:46:26.252243,112.3,0.4357797088550418,0.7788011603187343,1.3132390149532467
0249,cdot_cos,S,R-S,48,9,10197,-0.00420120516835747,-0.032247588078848574,-0.03709673287421808,0.015277734930863086,999.0,0.6737348924178952,0.5242921717463359,3.632402728892073,-0.0018261082217835443,0.029,0.9999999999999997,403.3410438702434,0.23842294259519872,48,2026-10-08 01:46:26.281244,112.3,0.015291205294790212,0.26913798402264855,0.26121594745554744
0249,cdot_cos,T,S-T,49,9,10447,-0.035069501990298665,0.004565475251220873,-0.030868296821941196,0.030280299750756644,999.0,0.6817696330149979,0.5243296844864729,3.6703078024225544,-0.0019594215070805813,0.25,0.9999999999999997,-3.553813579340634,0.24339009787374116,49,2026-10-08 01:46:26.531244,112.3,0.9342258473528533,0.10004660048134273,0.03213896238841096
0249,cdot_cos,P,T-P,50,10,10967,0.022252345224125326,-5.05159536543151e-05,0.05732184721442399,0.9984017451689068,1039.0,0.7237581926585666,0.525566397909719,3.7163156513750595,-0.010614951142635965,0.52,0.9999999999999996,-6.998815952717729,0.248357272925258,50,2026-10-08 01:46:27.051244,112.3,0.44245820237688793,0.04784076059743371,0.08074723008378581
0249,cdot_cos,Q,P-Q,51,10,11157,-0.014482332963123467,-0.03192010198869305,-0.03673467818724879,0.01590162814475589,1039.0,0.731524024036329,0.5255860926510986,3.753435478353407,-0.002032736094162645,0.19,0.9999999999999996,435.76175401796803,0.25332442473995587,51,2026-10-08 01:46:27.241244,112.3,0.0146692530755665,0.13249110965262859,0.04087279672506544
0249,cdot_cos,R,Q-R,52,10,11187,0.026028754552301546,0.12265289035388434,0.04051108751542501,0.98953703308376,1039.0,0.7741048143265654,0.5268115109913634,3.7988918463178436,-0.011528309098606727,0.03,0.9999999999999997,-7.748841919888544,0.2582915646368394,52,2026-10-08 01:46:27.271244,112.3,0.43881630484650685,0.8582232499428022,1.4193596763412142
0249,cdot_cos,S,R-S,53,10,11216,-0.0019042064151869004,-0.030097515129592106,-0.027932960967488447,0.04161170498771119,1039.0,0.7830174190328971,0.5268630349311841,3.8356208064712787,-0.002495493845488919,0.029,0.9999999999999996,175.31297654135844,0.26325870467494117,53,2026-10-08 01:46:27.300243,112.3,0.026792041813843547,0.2904735310398997,0.3073311967700588
0249,cdot_cos,T,S-T,54,10,11466,-0.038607766338661136,0.004800259441785233,-0.03670355992347424,0.0159564066409029,1039.0,0.7909522791268796,0.52688279212746,3.87178200050525,-0.002245757936664423,0.25,0.9999999999999996,12.640250435189916,0.2682258629903022,54,2026-10-08 01:46:27.550244,112.3,0.8947567406078774,0.10407393932119957,0.031739440375929906
0249,cdot_cos,P,T-P,55,11,12006,0.026264448591819648,-3.8678140289653285e-05,0.06487221493048079,0.9993148242253614,1019.0,0.8350543886934969,0.5281199718236272,3.9166425530966684,-0.012891113057902633,0.54,0.9999999999999992,-8.604534292162704,0.2731930470117315,55,2026-10-08 01:46:28.090244,112.3,0.4378888260759558,0.04809490067452567,0.08167057327151353
0249,cdot_cos,Q,P-Q,56,11,12176,-0.017098029040655945,-0.0295474760352551,-0.043362477632475596,0.007617909338565165,1019.0,0.8428947718553673,0.5281294017013305,3.952158574527887,-0.0023649605057670226,0.17,0.9999999999999994,1116.2554683513317,0.27816019916733503,56,2026-10-08 01:46:28.260243,112.3,0.011668308481430086,0.15517248725378355,0.04611990095217889
0249,cdot_cos,R,Q-R,57,11,12206,0.038178382562323615,0.12416763649435354,0.05527641160297956,0.9979898645708161,1019.0,0.8878130343597833,0.5293645937441548,3.996615060091094,-0.013971104182329894,0.03,0.9999999999999992,-9.396226071878791,0.2831273387238346,57,2026-10-08 01:46:28.290244,112.3,0.4357333227121095,0.883010456359477,1.4972754168138667
0249,cdot_cos,S,R-S,58,11,12236,-0.004575505763215711,-0.0292913355633892,-0.04275388832553933,0.008152363169137075,1019.0,0.8958753992369359,0.5293746823004835,4.031597489844507,-0.002584428027523796,0.03,0.9999999999999998,1128.6725061392756,0.28809447852246545,58,2026-10-08 01:46:28.320243,112.3,0.012205377986098356,0.2823744436269297,0.26874549590508723
0249,cdot_cos,T,S-T,59,11,12486,-0.0351715464855645,0.006628716396604005,-0.030596040722348793,0.031191076066811017,1019.0,0.9047555009773991,0.529413281061892,4.066500594191843,-0.0028735693431074837,0.25,0.9999999999999991,-7.490948026110865,0.293061640108878,59,2026-10-08 01:46:28.570244,112.3,0.9042757215676022,0.10989938128620391,0.03552040696185266
0249,cdot_cos,P,T-P,60,12,13025,0.025779219838066834,-1.00727742390678e-05,0.060950766323631334,0.998936123005541,1039.0,0.9508250898800379,0.5306492697094134,4.110391591733497,-0.01535832204412358,0.539,0.9999999999999992,-10.101025382435825,0.298028832234336,60,2026-10-08 01:46:29.109244,112.3,0.4435706347872801,0.050507414924332764,0.08547233562641705
0249,cdot_cos,Q,P-Q,61,12,13214,-0.01309874297903097,-0.02877633488431603,-0.0388779628170978,0.012542690190045305,1039.0,0.9592024942658298,0.5306647864846445,4.14462450394387,-0.0028747300726189202,0.189,0.9999999999999989,804.5223176555132,0.302995988447301,61,2026-10-08 01:46:29.298244,112.3,0.013003630948105067,0.14556946899620932,0.04432489093011604
0249,cdot_cos,R,Q-R,62,12,13243,0.030389003917623583,0.10858591818472739,0.04348774689665455,0.9924877077106107,1039.0,1.005850349160605,0.5318924194824391,4.188125127781826,-0.016463415127201012,0.029,0.9999999999999993,-11.069012546089635,0.3079631274864322,62,2026-10-08 01:46:29.327244,112.3,0.43806552856990705,0.9614532092312463,1.6085467205094892
0249,cdot_cos,S,R-S,63,12,13274,-0.001768109328551444,-0.027459706442794874,-0.032157113246175026,0.02630744001386012,1039.0,1.014966780401242,0.5319249546305298,4.222023466976025,-0.003308737181423667,0.031,0.999999999999999,404.3220553084659,0.3129302670216193,63,2026-10-08 01:46:29.358243,112.3,0.018765414579414733,0.28888015927012073,0.29407842711732585
0249,cdot_cos,T,S-T,64,12,13525,-0.03670434939593711,0.004485580274627995,-0.03493624006738566,0.019391475509010353,1039.0,1.0237609190353525,0.5319489364377854,4.255591520235058,-0.0032200325059285675,0.251,0.999999999999999,3.698831974991319,0.317897432298412,64,2026-10-08 01:46:29.609244,112.3,0.972828221334479,0.11309077393769554,0.03503640890083817
0249,cdot_cos,P,T-P,65,13,14064,0.025726957791141185,2.8595132339360424e-05,0.06243130718707829,0.9990989386977085,1020.0,1.0717383489179653,0.5331843389202708,4.298669598577944,-0.018050608128040976,0.539,0.999999999999999,-12.004650980039804,0.3228646333269735,65,2026-10-08 01:46:30.148243,112.3,0.43972275300391306,0.052632807105323295,0.08901192928128529
0249,cdot_cos,Q,P-Q,66,13,14234,-0.012433323867474132,-0.021589204971638524,-0.03816028165861532,0.013581131638446604,1020.0,1.080499085094891,0.533201129447106,4.331746488809707,-0.0033852923781380194,0.17,0.999999999999999,873.4279688727999,0.32783178967279925,66,2026-10-08 01:46:30.318244,112.3,0.013140349144888088,0.16901894566724177,0.05153374221721025
0249,cdot_cos,R,Q-R,67,13,14282,0.040444056696678554,0.1454030251746576,0.052877380564152685,0.9973699786718551,1020.0,1.1292047904448275,0.5344339826509105,4.3745307185101305,-0.019316738276090734,0.048,0.9999999999999988,-12.922419188910148,0.3327989307751578,67,2026-10-08 01:46:30.366244,112.3,0.4383453363460981,0.5990375798269494,1.0147021947903427
0249,cdot_cos,S,R-S,68,13,14313,-0.0005489175732889309,-0.015436222781783271,-0.04099297426996749,0.00991726816354316,1020.0,1.1380066927582781,0.5344462393406544,4.407156629490654,-0.003581681673614403,0.031,0.9999999999999989,1283.793335005951,0.33776606991384495,68,2026-10-08 01:46:30.397243,112.3,0.012361066570692953,0.2791486583504867,0.2839323326919575
0249,cdot_cos,T,S-T,69,13,14544,-0.049512961324626105,0.009354055815089564,-0.04896404375133717,0.004075564535529251,1020.0,1.1465120072625576,0.5344512762933347,4.439485762751633,-0.003487409103052845,0.231,0.9999999999999986,18.716191424749272,0.3427332363057509,69,2026-10-08 01:46:30.628243,112.3,0.9733298355468628,0.1262540592671453,0.036819543308569236
0249,cdot_cos,P,T-P,70,14,15084,0.022904783036087784,-8.729377738289817e-05,0.07241774436071388,0.9997062573392561,1019.0,1.1963360681396993,0.5356865893210545,4.481875600147022,-0.020943525658381486,0.54,0.9999999999999983,-14.13092565497296,0.34770044699770364,70,2026-10-08 01:46:31.168243,112.3,0.4345322564552085,0.05442511310624055,0.09226677940211414
0249,cdot_cos,Q,P-Q,71,14,15254,-0.017561849018728284,-0.030309006798256388,-0.04046663205481607,0.01051478168438424,1019.0,1.2052911294172974,0.5356995798844509,4.513884939074699,-0.0038586828142778435,0.17,0.9999999999999982,1315.173354898321,0.3526676056789219,71,2026-10-08 01:46:31.338243,112.3,0.011942689144801651,0.17485192574133984,0.05267683104469501
0249,cdot_cos,R,Q-R,72,14,15284,0.035279875465414744,0.11915371137888969,0.052841724484143024,0.9973594543500915,1019.0,1.2557857228917548,0.5369315521664532,4.556015346044032,-0.022288390822203154,0.03,0.9999999999999984,-14.959515142640218,0.3576347439948189,72,2026-10-08 01:46:31.368243,112.3,0.4374141728400553,0.9948748277585999,1.6831531158152466
0249,cdot_cos,S,R-S,73,14,15314,-0.004032956535067957,-0.026156783710631248,-0.0393128320004827,0.011952019101539492,1019.0,1.2649836190828134,0.5369463130031931,4.587671356572728,-0.004158420148213919,0.03,0.9999999999999984,1228.2481673264163,0.36260188261845255,73,2026-10-08 01:46:31.398243,112.3,0.012780665396787162,0.32151864675844155,0.3065965397019532
0249,cdot_cos,T,S-T,74,14,15563,-0.033799593527746995,0.006456730102944647,-0.02976663699267904,0.034131950020757085,1019.0,1.2750768416972613,0.5369884658708945,4.61934949536734,-0.004598066170167836,0.249,0.9999999999999982,-10.429801005886059,0.3675690556164138,74,2026-10-08 01:46:31.647244,112.3,0.9088134615549197,0.12374008725981564,0.04053503058011203
0249,cdot_cos,P,T-P,75,15,16103,0.022884213789460053,-6.499451441387618e-05,0.05668380731720705,0.9982832285371649,1019.0,1.3266061825382016,0.5382211066744812,4.661131562449578,-0.024035231883088707,0.54,0.9999999999999982,-15.76871839416967,0.37253627670932327,75,2026-10-08 01:46:32.187244,112.3,0.4454390986606485,0.056235707919557905,0.09542470526100054
0249,cdot_cos,Q,P-Q,76,15,16273,-0.018964673896815446,-0.032633025809257324,-0.041848887686275496,0.009016603336285055,1019.0,1.3358114062503839,0.5382322379147976,4.692199923349223,-0.004393881912635992,0.17,0.999999999999998,1764.5248339089214,0.3775034379441812,76,2026-10-08 01:46:32.357243,112.3,0.011445497972166235,0.18075225915040213,0.0541483747775426
0249,cdot_cos,R,Q-R,77,15,16303,0.03554601396518951,0.11232437273802749,0.054510687862004956,0.9978097572394994,1019.0,1.3880619506493383,0.5394638230044619,4.733775893999524,-0.025506352137781678,0.03,0.999999999999998,-17.142518533493526,0.38247057580062876,77,2026-10-08 01:46:32.387244,112.3,0.4370385741194568,1.0282662719020306,1.741684813298483
0249,cdot_cos,S,R-S,78,15,16332,-0.004923526973697279,-0.03108412027300556,-0.04046954093888679,0.010511383505015287,1019.0,1.3975073825645057,0.5394767945462305,4.764530101255564,-0.00471524892737836,0.029,0.9999999999999978,1602.8243659306295,0.38743771380755854,78,2026-10-08 01:46:32.416243,112.3,0.012163287218353525,0.33937809995102,0.3257045487988736
0249,cdot_cos,T,S-T,79,15,16582,-0.03598749397805879,0.006845220721645094,-0.03106396700436151,0.0296416924191335,1019.0,1.4077458804464975,0.5395133735011503,4.795299813361014,-0.0051472125270855,0.25,0.9999999999999974,-11.809074388683664,0.3924048914228865,79,2026-10-08 01:46:32.666244,112.3,0.9195031120820099,0.12700214574684132,0.040953991527967304
0249,cdot_cos,P,T-P,80,16,17122,0.02507685299236032,-4.446151089335193e-05,0.06106434697041911,0.9989495925309321,1019.0,1.4610084554379263,0.5407458632443405,4.83657809730502,-0.027371988135508046,0.54,0.9999999999999978,-18.03242236393374,0.39737212358416807,80,2026-10-08 01:46:33.206244,112.3,0.4439899809407658,0.0582141556506562,0.09863439813227562
0249,cdot_cos,Q,P-Q,81,16,17292,-0.01473104570987943,-0.025537847991021646,-0.03980789870223975,0.011312980639109857,1019.0,1.4706171685492062,0.540759818213039,4.866838434004879,-0.005046178078214731,0.17,0.9999999999999974,1599.846659613381,0.4023392875361702,81,2026-10-08 01:46:33.376243,112.3,0.011982585768501404,0.18654896178534167,0.056521841831058024
0249,cdot_cos,R,Q-R,82,16,17324,0.032954322622898234,0.11453587060843812,0.047685368332777665,0.9952980590789663,1019.0,1.5244351024449425,0.5419873015238884,4.907903827621751,-0.028863075137232626,0.032,0.9999999999999972,-19.403031266092214,0.4073064252920437,82,2026-10-08 01:46:33.408243,112.3,0.43816120705661926,1.0010611432653138,1.6818104342417595
0249,cdot_cos,S,R-S,83,16,17371,-0.0009516791720138582,-0.02656329634894645,-0.03390600179491209,0.021718266869654848,1019.0,1.5346850817181863,0.5420140806476796,4.937983353125725,-0.005614702694750311,0.047,0.9999999999999968,868.1528426293931,0.4122735664354953,83,2026-10-08 01:46:33.455244,112.3,0.015912919561504445,0.22011132027389999,0.21808466538816557
0249,cdot_cos,T,S-T,84,16,17621,-0.03291651905998403,0.0020967202788170942,-0.03196483988797017,0.026866228110303897,1019.0,1.5451255665506891,0.5420472069904835,4.9679447853406,-0.0057576737049336735,0.25,0.9999999999999973,-4.315931010857301,0.41724074877216544,84,2026-10-08 01:46:33.705244,112.3,0.9754743781621298,0.13072251746851915,0.041761939330011266
0249,cdot_cos,P,T-P,85,17,18141,0.028945132776217995,-2.247673621184642e-05,0.06186165183620203,0.9990394691846203,959.0,1.6000463404524459,0.5432787667927266,5.008782819784204,-0.030917154250797493,0.52,0.9999999999999973,-20.428955622000377,0.42220798854684954,85,2026-10-08 01:46:34.225244,112.3,0.443183708324401,0.06241452458243321,0.10561687288799376
0249,cdot_cos,Q,P-Q,86,17,18311,-0.009505583552146065,-0.019360656724927313,-0.03845071632836406,0.013151049236731157,959.0,1.6100366721164197,0.5432949751740218,5.038310415670253,-0.005740003949437067,0.17,0.9999999999999969,1553.341437541443,0.4271751554049636,86,2026-10-08 01:46:34.395243,112.3,0.012447193530555197,0.19226147337591112,0.05876665684690461
0249,cdot_cos,R,Q-R,87,17,18342,0.03575904026742001,0.17448742909434403,0.04526462381956607,0.9938382721434892,959.0,1.6654152414002557,0.5445195914794899,5.078940719563094,-0.03245194363924943,0.031,0.9999999999999969,-21.812497163837598,0.4321422924705096,87,2026-10-08 01:46:34.426244,112.3,0.4390583524967294,1.0592916521947067,1.7864054607689033
0249,cdot_cos,S,R-S,88,17,18371,-0.0008235314494504851,-0.013731445915215728,-0.036582571716870495,0.016171155644357522,959.0,1.6757127545524915,0.5445395133104182,5.108233518236837,-0.006155312642951798,0.029,0.9999999999999971,1319.9906720927581,0.4371094294567815,88,2026-10-08 01:46:34.455244,112.3,0.013951273895580034,0.3431492988824001,0.35508666042192466
0249,cdot_cos,T,S-T,89,17,18621,-0.054639024897373614,3.8932803574512764e-05,-0.05381549344792313,0.0023676665471730565,959.0,1.6853179007354349,0.5445424301124238,5.137203099440179,-0.005775647048409241,0.25,0.9999999999999966,130.16502107945834,0.44207661683852223,89,2026-10-08 01:46:34.705244,112.3,0.9363784148107475,0.13232951577613417,0.038420584731773566
0249,cdot_cos,P,T-P,90,18,19100,0.02783144372559668,2.906937054906232e-05,0.08247046862297029,0.9999049900220525,860.0,1.7418775124405586,0.5457739685191778,5.17766657701948,-0.03466367997326973,0.479,0.999999999999997,-23.45686725353558,0.4470438589137206,90,2026-10-08 01:46:35.184243,112.3,0.43457773580525416,0.06963121225776003,0.1180785213050599
0249,cdot_cos,Q,P-Q,91,18,19270,-0.012662989428488472,-0.03688503615720151,-0.04049443315408515,0.010482348636792963,860.0,1.752024602078369,0.5457868762213712,5.206475070072884,-0.00633985814464399,0.17,0.9999999999999961,2194.3349330651854,0.4520110289341706,91,2026-10-08 01:46:35.354244,112.3,0.011475054836340447,0.1892743732318017,0.05968876257535537
0249,cdot_cos,R,Q-R,92,18,19300,0.011263482241448037,0.14433265687964225,0.023926471669936507,0.936251755802916,860.0,1.8062307993393711,0.546939502983507,5.246059524044509,-0.03447673168786549,0.03,0.9999999999999967,-24.411088192230217,0.45697816535499214,92,2026-10-08 01:46:35.384243,112.3,0.4421473976444058,1.303557109001463,1.806873242033406
0249,cdot_cos,S,R-S,93,18,19330,0.0035825680815829136,-0.03338778136967648,-0.007680914159865123,0.2968033758757871,860.0,1.8302380286184567,0.54730479546063,5.278016411829461,-0.015602766131290635,0.03,0.999999999999996,51.668092661591814,0.46194530220910673,93,2026-10-08 01:46:35.414243,112.3,0.29830014671457733,0.566210213252442,0.8002409759695203
0249,cdot_cos,T,S-T,94,18,19580,-0.04768322880908649,-0.018106286897438425,-0.05126579689066941,0.0031501534393075198,860.0,1.8402034121345177,0.5473086722577015,5.3063545574001445,-0.006537193864675727,0.25,0.9999999999999962,2338.4180547676665,0.46691249570867427,94,2026-10-08 01:46:35.664243,112.3,0.24988157989060694,0.1362511369316044,0.03986153406424364
0249,cdot_cos,P,T-P,95,19,19960,0.023704193751414318,-5.94828867963052e-05,0.07138742256050082,0.9996702373387493,959.0,1.898363597084259,0.548538643338877,5.346493457618024,-0.038842153502292545,0.38,0.999999999999996,-26.264812345622257,0.4718797246878481,95,2026-10-08 01:46:36.044243,112.3,0.43530929831138143,0.09066646355944732,0.15305311828879287
0249,cdot_cos,Q,P-Q,96,19,20149,-0.012947129578706232,-0.03781585343163069,-0.03665132333012055,0.016048778080645983,959.0,1.9091099244396976,0.5485583845883205,5.374752665811049,-0.007309134433336115,0.189,0.9999999999999954,1597.3162772311482,0.4768469039294743,96,2026-10-08 01:46:36.233243,112.3,0.013377336141768253,0.17613985798678294,0.05685887489650095
0249,cdot_cos,R,Q-R,97,19,20180,0.011336049754854187,0.11780852809380932,0.024283179333560417,0.9386012373601479,959.0,1.964944463403263,0.5497126694815719,5.414042038470177,-0.03862234718402273,0.031,0.9999999999999957,-27.127802619405912,0.4818140404579194,97,2026-10-08 01:46:36.264243,112.3,0.4445228815144561,1.2733708973017646,1.8011141601150087
0249,cdot_cos,S,R-S,98,19,20209,0.0022345130115996813,-0.03526844697181178,-0.009101536743254505,0.2646180465563001,959.0,1.988058920072407,0.5500379986690607,5.4450985078846585,-0.01631262867322939,0.029,0.9999999999999952,68.57582832639646,0.4867811768658459,98,2026-10-08 01:46:36.293243,112.3,0.2547086868733559,0.591645343918182,0.7970502299704874
0249,cdot_cos,T,S-T,99,19,20459,-0.03158546238281214,-0.00409007943456156,-0.03381997539441182,0.021924476318440342,959.0,1.9992598933505175,0.5500649513474619,5.473077287277469,-0.007973427774645733,0.25,0.9999999999999953,309.4015657530103,0.4917483769591198,99,2026-10-08 01:46:36.543243,112.3,0.3513845706854873,0.14162269744009093,0.044803893112441706
0249,cdot_cos,P,T-P,100,20,20919,0.02113381595767941,-1.1296884523485353e-05,0.052719278340491546,0.9973229920779655,1139.0,2.0588702687924525,0.5512906891459622,5.5129070246246155,-0.043165632616359445,0.46,0.9999999999999948,-28.71103826998801,0.4967156402229587,100,2026-10-08 01:46:37.003244,112.3,0.44251409470794745,0.07708372793763868,0.12958777269985877
0249,cdot_cos,Q,P-Q,101,20,21108,-0.013169310983566917,-0.022536043598265987,-0.03430312694124633,0.020790669104516924,1139.0,2.070176923053145,0.5513162348831183,5.540659736726683,-0.008330472577274473,0.189,0.9999999999999946,1363.6388657041389,0.5016828240323731,101,2026-10-08 01:46:37.192243,112.3,0.015273213631233502,0.18940504388192153,0.0598235675168918
0249,cdot_cos,R,Q-R,102,20,21137,0.04214632413823755,0.10170027607752316,0.05531563512180447,0.9979986816644996,1139.0,2.130465375379819,0.5525421666147967,5.580402494547641,-0.0451660300396743,0.029,0.9999999999999944,-30.046989167960458,0.5066499595300124,102,2026-10-08 01:46:37.221244,112.3,0.4423920084386388,1.2235474870126573,2.0789121491956477
0249,cdot_cos,S,R-S,103,20,21168,-0.004734812894373792,-0.023726907032173897,-0.04688113703261135,0.005144078439009955,1139.0,2.141142677299879,0.5525484839086019,5.607754802110761,-0.008134181125385736,0.031,0.9999999999999946,5861.979837619975,0.5116170960775438,103,2026-10-08 01:46:37.252243,112.3,0.010539537391252733,0.37656306085196145,0.3444290941954946
0249,cdot_cos,T,S-T,104,20,21419,-0.03185226370020142,0.012986720795741133,-0.02711745080582763,0.04542126565152834,1139.0,2.1538122851526404,0.552604263713525,5.635480002813948,-0.009704482968519251,0.251,0.9999999999999937,-28.151798761186324,0.5165843025239025,104,2026-10-08 01:46:37.503244,112.3,0.8506010985696015,0.1470139502697608,0.050476525309805884
0249,cdot_cos,P,T-P,105,21,22058,0.023919565243828832,-1.1071211919030033e-05,0.05577182894403025,0.9980984382607565,1039.0,2.214943680335299,0.5538296467003092,5.675065285924998,-0.04760401066894063,0.639,0.9999999999999942,-30.92872033410692,0.5215516363988684,105,2026-10-08 01:46:38.142244,112.3,0.45106605623837803,0.056834775744994626,0.09566728510588207
0249,cdot_cos,Q,P-Q,106,21,22247,-0.011114985931451505,-0.02433485438596573,-0.035034551175280336,0.019182648739722304,1039.0,2.2264471285547436,0.5538531912175713,5.702267796494786,-0.009106762860294946,0.189,0.9999999999999939,1635.0833351207514,0.5265188239682008,106,2026-10-08 01:46:38.331244,112.3,0.014591367901530159,0.19329191220066383,0.06086480539388619
0249,cdot_cos,R,Q-R,107,21,22276,0.03471901345971796,0.1175707258390127,0.045833999391169465,0.9942177199041252,1039.0,2.28800802314715,0.5550731470838135,5.74172147340598,-0.04951008148708459,0.029,0.9999999999999938,-33.118672359223694,0.5314859583322856,107,2026-10-08 01:46:38.360243,112.3,0.4421692929023302,1.260105092245642,2.12278946870367
0249,cdot_cos,S,R-S,108,21,22307,-0.0016102578388850672,-0.02511018480593498,-0.03632927129860303,0.016629999804874115,1039.0,2.299533223904991,0.5550935473408032,5.768701555851853,-0.009419067466824065,0.031,0.9999999999999931,1965.2210283691597,0.536453093840221,108,2026-10-08 01:46:38.391244,112.3,0.014173692891051333,0.37835630959516575,0.37178066960776784
0249,cdot_cos,T,S-T,109,21,22558,-0.03412835471895913,0.0041564549911911434,-0.03251809688007406,0.025288734245392793,1039.0,2.3114661143420503,0.5551245690344422,5.795670845916881,-0.009801987100920916,0.251,0.9999999999999925,-12.343608268229925,0.5414203061476222,109,2026-10-08 01:46:38.642244,112.3,0.9616877060394455,0.14847128152182085,0.04754139616358356
0249,cdot_cos,P,T-P,110,22,23097,0.02412431232847532,2.1242138220158613e-05,0.058252667047434446,0.9985601486477995,1020.0,2.374065807228945,0.556349157086324,5.835039390405908,-0.052223309321451444,0.539,0.9999999999999925,-34.64130011340589,0.5463876225382127,110,2026-10-08 01:46:39.181243,112.3,0.44383328031816566,0.0685280572215332,0.11614043207216065
0249,cdot_cos,Q,P-Q,111,22,23267,-0.01708468198668934,-0.029609150803862883,-0.04120899431516466,0.00968188063229218,1020.0,2.385339360026863,0.556361027171272,5.861627370229082,-0.00955310201204963,0.17,0.9999999999999925,3594.768487038182,0.5513548074416021,111,2026-10-08 01:46:39.351244,112.3,0.011485915975814318,0.21896139852104085,0.06631501645834233
0249,cdot_cos,R,Q-R,112,22,23298,0.03746253734982876,0.12071874531749693,0.0545472193365181,0.9978187047107955,1020.0,2.448512682726099,0.5575840156845409,5.900914794853884,-0.05433913707584703,0.031,0.999999999999992,-36.62016002430923,0.5563219417775819,112,2026-10-08 01:46:39.382244,112.3,0.4385879945274531,1.2026091529817882,2.037849119330184
0249,cdot_cos,S,R-S,113,22,23327,-0.004277747678112353,-0.027518114714823794,-0.04174028502794111,0.009126234126173385,1020.0,2.459901127511734,0.5575951981645828,5.92731849407047,-0.009946928364107741,0.029,0.9999999999999916,3969.7999500298447,0.5612890758318357,113,2026-10-08 01:46:39.411244,112.3,0.011528809012553034,0.4053603085268575,0.39270499260810915
0249,cdot_cos,T,S-T,114,22,23577,-0.03735195467548633,0.0070525443799627505,-0.033074206997373984,0.023794156459930025,1020.0,2.4720235806206565,0.5576243531445986,5.9537990871695845,-0.010638598937112933,0.25,0.9999999999999908,-23.72392547109105,0.5662562941927093,114,2026-10-08 01:46:39.661243,112.3,0.9370532257511788,0.15228012810317004,0.04848981243569028
0249,cdot_cos,P,T-P,115,23,24117,0.022023500658768,-8.762624163891654e-05,0.05937545533425433,0.9987305022615496,999.0,2.536041191563319,0.5588477370689473,5.9929745655493605,-0.05701589518159905,0.54,0.9999999999999908,-37.909028655231914,0.571223626885795,115,2026-10-08 01:46:40.201244,112.3,0.443343707463189,0.06989731072223132,0.11855113137530082
0249,cdot_cos,Q,P-Q,116,23,24286,-0.020078070676475174,-0.036225866820516026,-0.04210157133524317,0.008766552375145007,999.0,2.5475126762006663,0.5588584724202673,6.01909022378461,-0.010370779078329482,0.169,0.9999999999999903,4345.001361652217,0.5761908152404399,116,2026-10-08 01:46:40.370244,112.3,0.011134079501915901,0.22487402655731664,0.06787860732158209
0249,cdot_cos,R,Q-R,117,23,24317,0.03232394681247544,0.1143649063355015,0.05240201748895061,0.9972261644840202,999.0,2.612048612539692,0.5600792948355149,6.058184122512168,-0.05918107513542496,0.031,0.9999999999999899,-39.98148743623561,0.5811579488446762,117,2026-10-08 01:46:40.401243,112.3,0.4383393480149341,1.2343919984901557,2.0818043980330856
0249,cdot_cos,S,R-S,118,23,24346,-0.004415829641086822,-0.03432377427389385,-0.03673977645356226,0.015892671156293833,999.0,2.624044980107056,0.5600987450902084,6.084229996597985,-0.011164043196245798,0.029,0.9999999999999896,2468.7096747979995,0.5861250821228777,118,2026-10-08 01:46:40.430244,112.3,0.013554411835321956,0.42289723023598413,0.4136678471504826
0249,cdot_cos,T,S-T,119,23,24596,-0.03650373944891859,0.004761237959320053,-0.03208790980783177,0.026507245497863884,999.0,2.636576651893379,0.5601311855871497,6.110310125580509,-0.011716652421252149,0.25,0.999999999999989,-17.034548700239622,0.5910923071911707,119,2026-10-08 01:46:40.680243,112.3,0.9539305305440888,0.15586217097727317,0.05012668714529234
0249,cdot_cos,P,T-P,120,24,25116,0.023036067282108302,-5.787924036447118e-05,0.05953980673102689,0.9987536891159371,999.0,2.7019760655956926,0.561353118695356,6.149315603591667,-0.062014481214817306,0.52,0.9999999999999889,-41.162505914418624,0.5960596481194305,120,2026-10-08 01:46:41.200243,112.3,0.4443841605823755,0.07479412664727325,0.12576810327367982
0249,cdot_cos,Q,P-Q,121,24,25304,-0.011143554301637614,-0.02743262065883473,-0.03417962158374592,0.021074917952708577,999.0,2.7143625436065433,0.5613788950099308,6.175168157495082,-0.011916364847920953,0.188,0.9999999999999879,1943.5717321628922,0.6010268487692656,121,2026-10-08 01:46:41.388243,112.3,0.014933560484597097,0.20725768665219343,0.06588552133431216
0249,cdot_cos,R,Q-R,122,24,25334,0.03034740635172107,0.12455983332278704,0.04149096065335868,0.9906170598719605,999.0,2.7799049557769173,0.5625901230689393,6.214011334884502,-0.06392304396503239,0.03,0.9999999999999877,-42.93714856612748,0.6059939811871907,122,2026-10-08 01:46:41.418243,112.3,0.4432671497177105,1.3106735138024443,2.1847470723458016
0249,cdot_cos,S,R-S,123,24,25365,-0.00019561842779750328,-0.027692030713637725,-0.030543024779518573,0.03137148885583237,999.0,2.79300295443469,0.5626284688966893,6.23985189502813,-0.012956973342193949,0.031,0.9999999999999876,1329.1164544719431,0.6109611145744256,123,2026-10-08 01:46:41.449243,112.3,0.019575317888726244,0.40700444688266463,0.4225160857346004
0249,cdot_cos,T,S-T,124,24,25615,-0.03772446879092577,0.00012606520559173878,-0.03752885036312827,0.014564596429753133,999.0,2.8051392314836425,0.5626462711606682,6.265364036508177,-0.012059858948821807,0.25,0.999999999999987,50.39327550879849,0.615928346694529,124,2026-10-08 01:46:41.699244,112.3,0.9283110076031821,0.1578195866645089,0.04854510819581037
0249,cdot_cos,P,T-P,125,25,26115,0.024858958878060475,-3.071824491950872e-05,0.06258342766898625,0.999114187391366,1019.0,2.8719127477669444,0.5638670979430314,6.304226140511635,-0.06724612448967641,0.5,0.9999999999999865,-45.20400955984255,0.6208956951890549,125,2026-10-08 01:46:42.199244,112.3,0.440140666148055,0.07897430723477106,0.13354703256660372
0249,cdot_cos,Q,P-Q,126,25,26304,-0.013558968267487216,-0.03155986152812273,-0.03841792714554769,0.013198923289951599,1019.0,2.8841135387184136,0.563883220682124,6.329573814944671,-0.012457969555691978,0.189,0.999999999999986,3398.1914995354705,0.6258629012497304,126,2026-10-08 01:46:42.388243,112.3,0.012303889491829924,0.20911195619779635,0.064554449478673
0249,cdot_cos,R,Q-R,127,25,26333,0.02742613451981343,0.10817172257766844,0.040985102787300644,0.9900740484726154,1019.0,2.9509570672097114,0.5650922278753377,6.368266359155089,-0.06914591415224056,0.029,0.999999999999985,-46.88801267250052,0.6308300324423574,127,2026-10-08 01:46:42.417243,112.3,0.4405062170104488,1.39029116360604,2.3049492583206144
0249,cdot_cos,S,R-S,128,25,26364,-0.0010807014473089248,-0.030038314508368157,-0.028506835967122356,0.03911616630046761,1019.0,2.964750426207564,0.5651399779250041,6.393829342081952,-0.014465278098730792,0.031,0.9999999999999852,1145.1430194425973,0.6357971651432305,128,2026-10-08 01:46:42.448243,112.3,0.022819717799148067,0.4281643096498019,0.4449470644468549
0249,cdot_cos,T,S-T,129,25,26615,-0.03521950353586294,0.0022336845485357555,-0.034138802088554014,0.021169697902318475,1019.0,2.977503254407999,0.5651658197828973,6.4190501526183175,-0.013433890474451761,0.251,0.9999999999999843,39.911512111277766,0.6407644051345918,129,2026-10-08 01:46:42.699244,112.3,0.9260981551705215,0.1610638191482528,0.050808080479821584
0249,cdot_cos,P,T-P,130,26,27134,0.027147561484710685,-1.4355619966969262e-05,0.062367065020573625,0.9990924205009553,1019.0,3.045604463419987,0.5663850071261913,6.457783047604032,-0.07266679865027541,0.519,0.9999999999999845,-48.58392641756334,0.6457317798146396,130,2026-10-08 01:46:43.218244,112.3,0.44258166257190806,0.07739019869128684,0.13121620233523637
0249,cdot_cos,Q,P-Q,131,26,27304,-0.014262197254620012,-0.024756155546873278,-0.0414097587393307,0.009468080414627518,1019.0,3.057834280649555,0.566396557157334,6.482705318357411,-0.013223682903266526,0.17,0.9999999999999831,5146.576231096544,0.6506989813965854,131,2026-10-08 01:46:43.388243,112.3,0.011162434092181397,0.2376468732140656,0.07194010135040037
0249,cdot_cos,R,Q-R,132,26,27334,0.038803496042995336,0.13191567717084837,0.053065693297615346,0.9974248714074566,1019.0,3.126404400312769,0.5676129009082715,6.5213761612118875,-0.0750741928260492,0.03,0.9999999999999829,-50.84953153671093,0.655666112295358,132,2026-10-08 01:46:43.418243,112.3,0.4387355348311781,1.3481463630374688,2.285670655440475
0249,cdot_cos,S,R-S,133,26,27364,-0.003362909385212517,-0.02214093923369796,-0.042166405428207855,0.008703509569188481,1019.0,3.138723062431803,0.5676235111349327,6.5461540974079195,-0.013663452257626812,0.03,0.999999999999982,5787.882062241437,0.6606332437492798,133,2026-10-08 01:46:43.448243,112.3,0.011169974625675,0.4069536658695879,0.4106220706344625
0249,cdot_cos,T,S-T,134,26,27614,-0.04951286773991519,0.009279856806315918,-0.04614995835470267,0.005581834493300299,1019.0,3.1508216202649444,0.5676303157744305,6.5707963819094175,-0.013471568767021663,0.25,0.9999999999999813,28.19892084927204,0.6656004907591198,134,2026-10-08 01:46:43.698244,112.3,0.9858573708618995,0.1630666003270349,0.048394231332565596
0249,cdot_cos,P,T-P,135,27,28153,0.025116196028394277,2.4745835328871467e-05,0.07462906376830947,0.999770836091168,1000.0,3.2202563625953204,0.5688486910847995,6.609424961350425,-0.07826376865210785,0.539,0.9999999999999811,-53.17917995683942,0.670567893815621,135,2026-10-08 01:46:44.237243,112.3,0.4369792078304525,0.07594734815735085,0.1288214143420706
0249,cdot_cos,Q,P-Q,136,27,28323,-0.016575825975644644,-0.029977229483355343,-0.04169202200403892,0.009175376953390898,1000.0,3.2326928615785686,0.5688598688648434,6.63398953487755,-0.01419791839651651,0.17,0.9999999999999802,5731.536137231589,0.6755350998335463,136,2026-10-08 01:46:44.407244,112.3,0.010972742152170705,0.2420530207310132,0.07315587637204804
0249,cdot_cos,R,Q-R,137,27,28353,0.03705449252580397,0.12285359596315314,0.053630318501448615,0.997582702242526,1000.0,3.302554389643865,0.5700747398009409,6.6725542399465825,-0.08071781532697289,0.03,0.9999999999999803,-54.75470270458191,0.6805022298382202,137,2026-10-08 01:46:44.437243,112.3,0.43862770499607134,1.374654625652938,2.3287176021765443
0249,cdot_cos,S,R-S,138,27,28383,-0.003816942942116016,-0.029526936070821467,-0.040871435467919985,0.010052185027475444,1000.0,3.315172139117745,0.5700869772317532,6.697006106269787,-0.014762400401452548,0.03,0.9999999999999796,5389.64558308454,0.6854693604189482,138,2026-10-08 01:46:44.467244,112.3,0.011472556879645528,0.425301491390484,0.42059164912933156
0249,cdot_cos,T,S-T,139,27,28633,-0.0407549240125283,0.005242403057926664,-0.03693798107041229,0.015548273280014277,1000.0,3.328072479127294,0.5701059053774437,6.72144998040035,-0.015151058075217124,0.25,0.9999999999999786,-20.533320068424434,0.690436615121121,139,2026-10-08 01:46:44.717243,112.3,0.9746740414727433,0.1671414484710274,0.051601360038196376
0249,cdot_cos,P,T-P,140,28,29153,0.021888050670167258,-7.544372253651646e-05,0.06264297468269556,0.9991200859786176,999.0,3.3987428633532586,0.5713217813583759,6.759970980835088,-0.08398538007457101,0.52,0.9999999999999784,-56.612946615311216,0.6954040264306419,140,2026-10-08 01:46:45.237243,112.3,0.4406083634749215,0.08017562936463034,0.13590458504993194
0249,cdot_cos,Q,P-Q,141,28,29323,-0.018945970811872343,-0.03435641700077249,-0.0408340214820396,0.01009408182347415,999.0,3.4114551336665095,0.5713340609521885,6.7842166212282855,-0.015294542588431085,0.17,0.9999999999999775,5593.901437950436,0.7003712371556384,141,2026-10-08 01:46:45.407244,112.3,0.011207196042782768,0.24651509639524807,0.07477806066618206
0249,cdot_cos,R,Q-R,142,28,29353,0.03349439696859949,0.12178770410293493,0.05244036778047183,0.9972380520546834,999.0,3.482557996127643,0.572546779867365,6.822682844393645,-0.08653729068261719,0.03,0.9999999999999775,-58.74629908268386,0.7053383663232091,142,2026-10-08 01:46:45.437243,112.3,0.43899789006044815,1.4037523007811212,2.3700954153711136
0249,cdot_cos,S,R-S,143,28,29383,-0.0038672539591889615,-0.030650296410004437,-0.037361650927788446,0.01483655637823172,999.0,3.495680271713377,0.5725648157289349,6.846879904771066,-0.01616569631813086,0.03,0.9999999999999761,3901.7595079536304,0.7103054960873312,143,2026-10-08 01:46:45.467244,112.3,0.01286630490081293,0.45315805705804146,0.4374091861911289
0249,cdot_cos,T,S-T,144,28,29632,-0.034430308200324465,0.004476345202895072,-0.030563054241135503,0.03130321040117028,999.0,3.5097474795511254,0.572602868425599,6.871234967422823,-0.017396914401764992,0.249,0.9999999999999752,-32.355606607898075,0.7152727583013303,144,2026-10-08 01:46:45.716243,112.3,0.9316740937727244,0.17257882874106595,0.056494810593367945
0249,cdot_cos,P,T-P,145,29,30152,0.022413689450942197,-5.424286441972767e-05,0.05684399765126666,0.9983137844406568,1019.0,3.5816245284264276,0.5738159821284519,6.909659982543609,-0.08991555700909085,0.52,0.9999999999999751,-59.77893287066773,0.7202401889088506,145,2026-10-08 01:46:46.236243,112.3,0.44640912943582234,0.08226223439136918,0.1382250939909658
0249,cdot_cos,Q,P-Q,146,29,30340,-0.011197949593771598,-0.02586329056157945,-0.033611639044713794,0.02243183069015619,1019.0,3.5953002033181494,0.5738432303072388,6.933774734512006,-0.01731387811362751,0.188,0.999999999999974,2664.459869523269,0.7252074158229245,146,2026-10-08 01:46:46.424243,112.3,0.015096913081992408,0.22804212620886527,0.07274295155171129
0249,cdot_cos,R,Q-R,147,29,30370,0.03239923541222189,0.11921979488841121,0.04359718500599349,0.9925787870390546,1019.0,3.667368367880961,0.5750484749651114,6.972092841668239,-0.09226310530173432,0.03,0.9999999999999739,-62.18590283603127,0.7301745440679016,147,2026-10-08 01:46:46.454243,112.3,0.44381727520206643,1.4319682606479016,2.4022721520937207
0249,cdot_cos,S,R-S,148,29,30401,-0.0009374106501027568,-0.025324281482801282,-0.03333664606232464,0.023119106150125926,1019.0,3.6812182989570235,0.5750765369042585,6.996108635276717,-0.01794040882924159,0.031,0.9999999999999728,2648.523185896125,0.735141673575793,148,2026-10-08 01:46:46.485244,112.3,0.015879063810370932,0.4401191214129447,0.4467719701955636
0249,cdot_cos,T,S-T,149,29,30651,-0.03714583752289118,0.00240635053118903,-0.03620842687278843,0.016853391543905492,1019.0,3.6946557534085636,0.5750969932227401,7.019954046508649,-0.017470524396671933,0.25,0.9999999999999719,22.97013673270918,0.740108944771595,149,2026-10-08 01:46:46.735244,112.3,0.973462631906496,0.1731823464446407,0.053749817806160394
0249,cdot_cos,P,T-P,150,30,31171,0.0246903037094091,-3.4734171661366264e-05,0.06183614123230029,0.9990367161258122,1019.0,3.767809472179344,0.5763091427079932,7.058317301155249,-0.09615411220354195,0.52,0.9999999999999719,-64.91244583620275,0.7450763952271471,150,2026-10-08 01:46:47.255244,112.3,0.4411779152273892,0.08297636562339479,0.14068022840534664
0249,cdot_cos,Q,P-Q,151,30,31341,-0.016336675038426215,-0.028282585067961004,-0.04102697874783531,0.009879842727503354,1019.0,3.780951173656894,0.576321125541951,7.081953229588286,-0.017473228020636503,0.17,0.9999999999999704,6566.133225207424,0.7500436158949052,151,2026-10-08 01:46:47.425244,112.3,0.011076392420042571,0.2550671888591143,0.0773041263385314
0249,cdot_cos,R,Q-R,152,30,31371,0.036769869404773226,0.12487528693684152,0.05310654444319944,0.9974366277553488,1019.0,3.8545323163914427,0.577530409024329,7.120273766713294,-0.09888215251063165,0.03,0.9999999999999706,-67.31996729990357,0.7550107432482838,152,2026-10-08 01:46:47.455244,112.3,0.438983962570401,1.4479966055496694,2.4527047578182843
0249,cdot_cos,S,R-S,153,30,31401,-0.0037802382153928724,-0.024733044520240454,-0.0405501076201661,0.010417695531643234,1019.0,3.8678309699898743,0.5775430344713345,7.1438134893811505,-0.01807462394706438,0.03,0.999999999999969,6400.369707952536,0.7599778712357458,153,2026-10-08 01:46:47.485244,112.3,0.011438478192553541,0.4508232216053232,0.4432884532810544
0249,cdot_cos,T,S-T,154,30,31651,-0.03921543853727997,0.0074117218627958665,-0.03543520032188709,0.018354184208405202,1019.0,3.881581709687762,0.5775652780866554,7.167397296697889,-0.018754266204275564,0.25,0.9999999999999682,-30.554487092443274,0.7649451510108503,154,2026-10-08 01:46:47.735244,112.3,0.964409442673382,0.17627070078834084,0.05500295879155104
0249,cdot_cos,P,T-P,155,31,32190,0.026622252124764084,-2.5406522805055426e-05,0.06583769066204405,0.9993851840887921,999.0,3.9559663203840447,0.5787759655497247,7.205703366531196,-0.10252539976541773,0.539,0.9999999999999679,-69.19302967651822,0.7699126350970708,155,2026-10-08 01:46:48.274244,112.3,0.4417209734429976,0.08130541591779657,0.13800484359236115
0249,cdot_cos,Q,P-Q,156,31,32360,-0.015851731966722828,-0.028645200636980395,-0.04247398409148691,0.008410498936130934,999.0,3.9692289480471468,0.5787861503026351,7.229037451799854,-0.018484378994411584,0.17,0.9999999999999666,8251.650433711135,0.7748798608561256,156,2026-10-08 01:46:48.444243,112.3,0.010603226588627963,0.25900048760384103,0.07801545684177673
0249,cdot_cos,R,Q-R,157,31,32390,0.03828336458796892,0.12996475789066186,0.054135096554691745,0.9977156147807648,999.0,4.044026486169351,0.5799938630547031,7.267303038269851,-0.10532218341350807,0.03,0.9999999999999662,-71.90269728493168,0.7798469872029417,157,2026-10-08 01:46:48.474244,112.3,0.4384555627029025,1.4702647684197454,2.4932512707401306
0249,cdot_cos,S,R-S,158,31,32419,-0.003617166315104161,-0.027871112553237848,-0.04190053090307308,0.008964930025777277,999.0,4.0574448341523315,0.5800047105863574,7.290546927673056,-0.019102201948003116,0.029,0.9999999999999656,7948.350298813965,0.7848141134708039,158,2026-10-08 01:46:48.503244,112.3,0.010958774689500387,0.46427542531474375,0.46270165458554496
0249,cdot_cos,T,S-T,159,31,32670,-0.04366587121683107,0.005589253567866629,-0.040048704901726906,0.011014473019798703,999.0,4.070954460837606,0.5800180379515183,7.313749938042038,-0.019295900816991878,0.251,0.999999999999964,-14.533920745032818,0.7897814027022126,159,2026-10-08 01:46:48.754244,112.3,0.9900118730939621,0.1774788565231254,0.05382321388555512
0249,cdot_cos,P,T-P,160,32,33189,0.025389664932335628,-5.999477218326285e-06,0.0690555361491667,0.9995715623075637,1019.0,4.14653922012694,0.5812270180894292,7.352005644351363,-0.1090542486524165,0.519,0.9999999999999641,-74.24302932761445,0.7947488934912001,160,2026-10-08 01:46:49.273243,112.3,0.4390853576416057,0.08628063671603968,0.1456353743532459
0249,cdot_cos,Q,P-Q,161,32,33377,-0.011039613870892374,-0.025650846632351548,-0.036429278803228,0.016447330427397204,1019.0,4.160513761748855,0.5812469029943366,7.375197230598051,-0.02038204601256013,0.188,0.9999999999999624,4459.272149052095,0.7997161381581422,161,2026-10-08 01:46:49.461244,112.3,0.012900290239946722,0.2383014099932319,0.07433266820167331
0249,cdot_cos,R,Q-R,162,32,33407,0.032067721182873696,0.1193249701474728,0.04310733505376607,0.9921623967963945,1019.0,4.236140550284396,0.5824459418184965,7.41332739917415,-0.11140246280460045,0.03,0.9999999999999623,-75.91115063001368,0.8046832634779789,162,2026-10-08 01:46:49.491244,112.3,0.44173667438820413,1.5035109057202365,2.5208929511846874
0249,cdot_cos,S,R-S,163,32,33438,-0.00088309592395494,-0.02526215424680851,-0.032950817106828637,0.024118152202479894,1019.0,4.250724416092069,0.5824750767907482,7.436544806353584,-0.021713220621498316,0.031,0.9999999999999611,3078.4049289084037,0.8096503902517338,163,2026-10-08 01:46:49.522244,112.3,0.016072778160077097,0.4611563355316618,0.47044728411850223
0249,cdot_cos,T,S-T,164,32,33689,-0.03782374479738776,0.00236641256621128,-0.03694064887343282,0.015543688198354447,1019.0,4.264732243087359,0.5824938534185229,7.4595618695335135,-0.020925578573456456,0.251,0.9999999999999598,41.94800352288702,0.8146176885893314,164,2026-10-08 01:46:49.773243,112.3,0.9630594294210328,0.18077759621985773,0.05580807567844408
0249,cdot_cos,P,T-P,165,33,34208,0.026967379924176155,8.35048940125436e-06,0.06479112472156391,0.9993085605575138,999.0,4.341474769394438,0.5837005044131683,7.497769604994102,-0.1157679544937355,0.519,0.9999999999999596,-78.59967491937994,0.8195852009167653,165,2026-10-08 01:46:50.292243,112.3,0.4407640849851204,0.08727808913803274,0.14786613931999829
0249,cdot_cos,Q,P-Q,166,33,34378,-0.012942777204996498,-0.02369580405939505,-0.03991015712917265,0.01118525455679569,999.0,4.355326899612637,0.5837140048039748,7.520629785566186,-0.021116045423102546,0.17,0.9999999999999584,7011.049563474553,0.8245524374234464,166,2026-10-08 01:46:50.462244,112.3,0.011305524335432167,0.2670790539899623,0.08148311893058156
0249,cdot_cos,R,Q-R,167,33,34411,0.03384459388830259,0.1327701535348497,0.046787371093299085,0.994801751722982,999.0,4.432281647751025,0.5849142072134332,7.558758316665706,-0.11843517006332799,0.033,0.9999999999999583,-81.08559345764168,0.8295195642132981,167,2026-10-08 01:46:50.495244,112.3,0.439680047032086,1.3879435631512824,2.331962064799646
0249,cdot_cos,S,R-S,168,33,34458,-5.6311518186686584e-05,-0.020296369651998096,-0.033900905406489275,0.021730430137523703,999.0,4.446931174780621,0.5849404132242452,7.581695218452091,-0.022780575276859193,0.047,0.9999999999999566,3650.1013249564458,0.8344867032636747,168,2026-10-08 01:46:50.542243,112.3,0.015011265718037537,0.30481231443385665,0.3116920644594962
0249,cdot_cos,T,S-T,169,33,34688,-0.03918671857501826,0.004923016467173151,-0.03913040705683157,0.01219638016782132,999.0,4.4609340053078075,0.5849551213498417,7.604417513987339,-0.02184497827394962,0.23,0.9999999999999554,63.6108929562171,0.8394539935939823,169,2026-10-08 01:46:50.772243,112.3,0.9580752758471365,0.19979251562534395,0.06088187185733132
0249,cdot_cos,P,T-P,170,34,35207,0.026495731072237124,3.8820137425416266e-05,0.06568244964725538,0.9993743784439503,860.0,4.5388357319682795,0.5861597920540084,7.6425896098840065,-0.12267942005056647,0.519,0.9999999999999549,-83.70290854410054,0.8444215280406917,170,2026-10-08 01:46:51.291244,112.3,0.43958048456024484,0.08860106580358648,0.15009966601247016
0249,cdot_cos,Q,P-Q,171,34,35377,-0.013297370146429477,-0.038666938776431604,-0.0397931012186666,0.011331582492781373,860.0,4.55290191161193,0.5861734455447835,7.665213448190764,-0.022377527119817803,0.17,0.9999999999999534,7346.245336302319,0.8493887701968138,171,2026-10-08 01:46:51.461244,112.3,0.011307829460536408,0.26067856697392056,0.08274223319794562
0249,cdot_cos,R,Q-R,172,34,35407,0.01129304523465573,0.13600447908111396,0.02459041538108521,0.9405597542969147,860.0,4.6274664447394125,0.5873062679329124,7.7024505193874875,-0.11968216648142677,0.03,0.9999999999999531,-85.89575945998395,0.8543558935349802,172,2026-10-08 01:46:51.491244,112.3,0.44351423357666236,1.795186896794284,2.485484437582741
0249,cdot_cos,S,R-S,173,34,35437,0.0038222779406132928,-0.03559993896875724,-0.007470767294042438,0.30175235511799847,860.0,4.660613125419587,0.5876695072102254,7.729586577218349,-0.05381323621266158,0.03,0.999999999999952,181.33757658595044,0.8593230176697289,173,2026-10-08 01:46:51.521244,112.3,0.2940432493680337,0.7815046975298223,1.1048893560058264
0249,cdot_cos,T,S-T,174,34,35687,-0.04431074043235972,-0.016819144285684817,-0.04813301837297301,0.004472443220991576,860.0,4.674356726591202,0.587674890269158,7.751965237983509,-0.022425127677903424,0.25,0.9999999999999508,5830.905611051888,0.8642903355327864,174,2026-10-08 01:46:51.771244,112.3,0.2466747235103118,0.18566406224730514,0.0549744046864582
0249,cdot_cos,P,T-P,175,35,36067,0.02316987403681077,-7.47306909075455e-05,0.06748061446917049,0.9994887155249976,939.0,4.75344515654324,0.5888773525486382,7.7901161914449615,-0.13021594813741505,0.38,0.9999999999999507,-89.64174785267237,0.869257771549733,175,2026-10-08 01:46:52.151244,112.3,0.43701616625443596,0.12362602646882369,0.2081274472422053
0249,cdot_cos,Q,P-Q,176,35,36255,-0.011573515381609327,-0.03630461093405929,-0.0347433894184201,0.019807610577433944,939.0,4.768312506707508,0.5889011719629942,7.812658002052256,-0.02472201654188531,0.188,0.999999999999949,4428.905346651547,0.874225037342007,176,2026-10-08 01:46:52.339243,112.3,0.014020906126659861,0.243300002203517,0.07908164980993611
0249,cdot_cos,R,Q-R,177,35,36285,0.015557306830651521,0.11370135145298926,0.027130822212260847,0.954643796946774,939.0,4.844925957371762,0.5900486719586535,7.850088126705575,-0.1285107311866616,0.03,0.999999999999949,-90.44768194978641,0.8791921604025306,177,2026-10-08 01:46:52.369244,112.3,0.4459150430591588,1.723722855929788,2.5537816888084803
0249,cdot_cos,S,R-S,178,35,36316,0.003119221027419295,-0.03340956257552993,-0.012438085803232227,0.19832486548263303,939.0,4.871735878063295,0.5902869397171737,7.875411169641849,-0.04544646733589466,0.031,0.9999999999999476,348.6173050296396,0.8841592851682959,178,2026-10-08 01:46:52.400243,112.3,0.1607767330151821,0.6625541959269609,0.8648361513397701
0249,cdot_cos,T,S-T,179,35,36566,-0.03867350506400227,-0.007690822947651333,-0.04179272609142157,0.009073132688986157,939.0,4.886004317519234,0.5902978391779314,7.897647950815468,-0.02428900462090679,0.25,0.9999999999999458,1941.1476572366464,0.8891266143253128,179,2026-10-08 01:46:52.650244,112.3,0.41850283093406465,0.188892438012914,0.05707375782375479
0249,cdot_cos,P,T-P,180,36,37006,0.019897981198026028,-4.4686774340465716e-05,0.0585714862620283,0.9986107179210796,1159.0,4.966182097069752,0.5914969155326776,7.93576501994136,-0.13768257808538134,0.44,0.9999999999999459,-94.56743352134669,0.8940941252756167,180,2026-10-08 01:46:53.090244,112.3,0.43885468161248803,0.10823161140905878,0.18222222625117795
0249,cdot_cos,Q,P-Q,181,36,37196,-0.01507961931228054,-0.025033416926621224,-0.03497760051030657,0.019303349870885982,1159.0,4.9812481355592055,0.5915200832492185,7.958090024884956,-0.026121295879020692,0.19,0.9999999999999439,4815.376690643756,0.8990614007291484,181,2026-10-08 01:46:53.280244,112.3,0.013969290969158756,0.251599099496341,0.07929493941817592
0249,cdot_cos,R,Q-R,182,36,37226,0.0362211404289937,0.10383220093813668,0.05130075974127424,0.9968621521125224,1159.0,5.061789754878362,0.5927159538661546,7.996176614374752,-0.140855559107972,0.03,0.999999999999944,-95.94203721043226,0.9040285230802798,182,2026-10-08 01:46:53.310244,112.3,0.44283740431271473,1.5848350286381172,2.684720643971872
0249,cdot_cos,S,R-S,183,36,37256,-0.00483762879622412,-0.022069758214908104,-0.04105876922521782,0.009844980508224818,1159.0,5.076338237277493,0.5927277587968496,8.018273731698791,-0.025683847461288732,0.03,0.999999999999942,9756.23784862712,0.9089956461667318,183,2026-10-08 01:46:53.340243,112.3,0.011285823500255492,0.5706376517669032,0.4849494133043623
0249,cdot_cos,T,S-T,184,36,37505,-0.025809333914181526,0.012022504095944743,-0.020971705117957408,0.0866594704005282,1159.0,5.096028013984376,0.5928316659153668,8.041561198470676,-0.03487487840260517,0.249,0.9999999999999408,-88.45429526360321,0.9139629849151935,184,2026-10-08 01:46:53.589243,112.3,0.7683245647710689,0.20243215734077835,0.0790754084613788
0249,cdot_cos,P,T-P,185,37,38165,0.02338806180468551,-5.074287933090011e-05,0.04919739571886704,0.9960294315625708,1039.0,5.1771494516332,0.5940253345804357,8.079619334909088,-0.14497357428515106,0.66,0.999999999999941,-92.23555841284787,0.9189307361074547,185,2026-10-08 01:46:54.249243,112.3,0.4679285077241902,0.07255316763986641,0.12291126916488529
0249,cdot_cos,Q,P-Q,186,37,38335,-0.01756354433893316,-0.02884935396183717,-0.040951606143618674,0.00996298732684511,1039.0,5.1917981952689995,0.5940372689090426,8.101589569570859,-0.02642283789236048,0.17,0.9999999999999384,9933.590761372423,0.9238979978643537,186,2026-10-08 01:46:54.419244,112.3,0.011257993159283953,0.2835667125886206,0.08616908021058456
0249,cdot_cos,R,Q-R,187,37,38365,0.04062414447707203,0.1187373909376818,0.05818768881600519,0.998549618839841,1039.0,5.273562133913331,0.595232832380197,8.13968794455445,-0.14871427571164,0.03,0.9999999999999379,-102.28770012620399,0.9288651183454915,187,2026-10-08 01:46:54.449243,112.3,0.4394089259461841,1.60391572158054,2.725464621477721
0249,cdot_cos,S,R-S,188,37,38394,-0.005311058652044055,-0.028458631319814343,-0.04593520312911609,0.005717309068557,1039.0,5.288033138563832,0.5952396744765591,8.16151660886678,-0.02656210893560723,0.029,0.9999999999999359,17853.03221565494,0.9338322385523756,188,2026-10-08 01:46:54.478244,112.3,0.01006453407462886,0.5221175411723159,0.4990001603620956
0249,cdot_cos,T,S-T,189,37,38644,-0.0376216052573505,0.00941236343303915,-0.03231054660530644,0.02586965689380015,1039.0,5.3038449513013255,0.5952706331037884,8.1836195899337,-0.029105720234090512,0.25,0.9999999999999344,-82.16163073539026,0.9387995880113937,189,2026-10-08 01:46:54.728243,112.3,0.9163176965392185,0.19646028656176107,0.06324725094997419
0249,cdot_cos,P,T-P,190,38,39204,0.024772934608104525,-5.26830793123493e-05,0.062394539865455026,0.9990952139241949,999.0,5.3862632818447125,0.5964656840336053,8.2217134864024,-0.15297355667944643,0.56,0.9999999999999347,-103.65067576184927,0.9437672653208268,190,2026-10-08 01:46:55.288243,112.3,0.4449765698282478,0.08682866846616565,0.14717559025604818
0249,cdot_cos,Q,P-Q,191,38,39373,-0.016314715721150314,-0.029176553508829216,-0.041087650329254835,0.009813414377359532,999.0,5.401093059983431,0.5964774165336685,8.2434834085289,-0.027775128139271056,0.169,0.9999999999999317,10671.078445886209,0.9487345319896296,191,2026-10-08 01:46:55.457243,112.3,0.011025181543134118,0.28898876703634885,0.0877501665012932
0249,cdot_cos,R,Q-R,192,38,39402,0.04195449923105114,0.11409489758921956,0.058269214952201456,0.9985628180397708,999.0,5.483941485102998,0.5976706766193295,8.28156935066516,-0.1564235779409156,0.029,0.9999999999999313,-107.81258113597222,0.9537016500236579,192,2026-10-08 01:46:55.486243,112.3,0.43935987756742023,1.6811763262294463,2.856842245502323
0249,cdot_cos,S,R-S,193,38,39433,-0.0039187779707256076,-0.029481031881230142,-0.04587327720177675,0.005756977723518743,999.0,5.498601286904739,0.5976775527402616,8.30320345181173,-0.027926515714591857,0.031,0.9999999999999296,18687.434891772504,0.9586687710077634,193,2026-10-08 01:46:55.517244,112.3,0.010039213446723894,0.4857360946012194,0.4728968323142108
0249,cdot_cos,T,S-T,194,38,39683,-0.03964902940348605,0.0051308899196843725,-0.03573025143276044,0.017766624994500126,999.0,5.514057122968274,0.597698772914029,8.324982109706207,-0.029523166297206905,0.25,0.9999999999999273,-75.24210687989786,0.9636361307812875,194,2026-10-08 01:46:55.767244,112.3,0.9473551036457533,0.19792802561140732,0.06182334425414027
0249,cdot_cos,P,T-P,195,39,40203,0.025220468598708766,-3.317196281504162e-05,0.06486949800219483,0.9993146152820729,1019.0,5.597565299710443,0.5988917470921363,8.363069680285516,-0.16079069537761592,0.52,0.999999999999927,-110.03383936495737,0.9686037908528607,195,2026-10-08 01:46:56.287244,112.3,0.4420255492277108,0.09507019424422891,0.16059264758109346
0249,cdot_cos,Q,P-Q,196,39,40392,-0.012155327270441933,-0.028197149860583706,-0.0373757958691507,0.014813356396304593,1019.0,5.612930124982272,0.5989094223912617,8.384733559695738,-0.029846992569924295,0.189,0.9999999999999246,7408.287796387944,0.9735710860951196,196,2026-10-08 01:46:56.476243,112.3,0.012435926148172922,0.2613960544905683,0.08129537180862155
0249,cdot_cos,R,Q-R,197,39,40421,0.030496598632433,0.11719280524975904,0.042651925902874935,0.9917545268145213,1019.0,5.696373008307877,0.6000921967390567,8.42269702390637,-0.1633606726229681,0.029,0.9999999999999242,-112.88178535656166,0.978538202782333,197,2026-10-08 01:46:56.505243,112.3,0.441625123891699,1.7219095630382504,2.8773408043312187
0249,cdot_cos,S,R-S,198,39,40452,-0.0009441212759559983,-0.02588888813464642,-0.031440719908389,0.028448665763797076,1019.0,5.712800879638491,0.6001261077043348,8.444524533480088,-0.032444837297598915,0.031,0.999999999999922,3860.575311009505,0.9835053225532904,198,2026-10-08 01:46:56.536243,112.3,0.017685180356468447,0.5037820624695503,0.5299313332455866
0249,cdot_cos,T,S-T,199,39,40702,-0.046925928378149365,0.002998569186661012,-0.045981807102193364,0.0056876347169972094,1019.0,5.7276074961809895,0.6001328872809534,8.465917867875524,-0.02932277124109784,0.25,0.9999999999999202,460.5104761205629,0.9884726930556612,199,2026-10-08 01:46:56.786243,112.3,0.8989998532305804,0.1988052426094047,0.05922646616999572
0249,cdot_cos,P,T-P,200,40,41222,0.024497426280469067,-3.045921355206658e-05,0.07142335465861843,0.9996715648714236,1019.0,5.812203500943193,0.6013238830346025,8.504005619729169,-0.16881915731580077,0.52,0.9999999999999195,-117.12584671044979,0.9934403786346847,200,2026-10-08 01:46:57.306243,112.3,0.43766276289207406,0.09657063969215489,0.16268462454269886
0249,cdot_cos,Q,P-Q,201,40,41411,-0.010714518980846995,-0.024862084031075912,-0.03521194526131606,0.01881140317480403,1019.0,5.828040961460831,0.6013462832547751,8.525556785493071,-0.03187958317605509,0.189,0.999999999999917,6113.313756934905,0.9984076813034793,201,2026-10-08 01:46:57.495244,112.3,0.013629402568885868,0.26521281996328505,0.08379608739490836
0249,cdot_cos,R,Q-R,202,40,41440,0.030767090346628743,0.11388780782703596,0.04148160932747574,0.9906072937650862,1019.0,5.912453946889315,0.6025252759430901,8.563494983160297,-0.17120835526735328,0.029,0.9999999999999162,-118.17611209313284,1.0033747966263793,202,2026-10-08 01:46:57.524243,112.3,0.44317233392803795,1.7412872285195666,2.9107926009822096
0249,cdot_cos,S,R-S,203,40,41471,-0.0008964213524373292,-0.02536563233369118,-0.031663511699066074,0.0277652414980431,1019.0,5.9290356207149655,0.6025583042746195,8.585136161460461,-0.03391967993281624,0.031,0.9999999999999143,4156.694237258313,1.008341915161572,203,2026-10-08 01:46:57.555244,112.3,0.01746661801651677,0.5399099308940336,0.5348927040532513
0249,cdot_cos,T,S-T,204,40,41722,-0.031108586946058246,0.0019565492345234806,-0.030212165593620915,0.032520417572612245,1019.0,5.945928362604745,0.602596987970085,8.606808349863993,-0.03465254173241046,0.251,0.999999999999912,-18.94497903512936,1.0133092978940443,204,2026-10-08 01:46:57.806243,112.3,0.9790732075877753,0.20405442986588856,0.06730176051704899
0249,cdot_cos,P,T-P,205,41,42241,0.02489590000338734,-3.2625795075987017e-06,0.056004486949445584,0.9981473870215035,1019.0,6.0314709445076415,0.6037836787672434,8.644868541525554,-0.1768084902307547,0.519,0.9999999999999114,-119.79190269170932,1.018277008703361,205,2026-10-08 01:46:58.325243,112.3,0.44753037229764114,0.09758309891063871,0.16482193044874136
0249,cdot_cos,Q,P-Q,206,41,42411,-0.012486499270016055,-0.02171450127371111,-0.037382399273403394,0.014802537987731837,1019.0,6.047219619273988,0.6038012682526986,8.666180479840666,-0.032825814541479634,0.17,0.9999999999999083,8185.724139310914,1.023244295759757,206,2026-10-08 01:46:58.495244,112.3,0.012447149888792652,0.29891910238739866,0.09263926333144838
0249,cdot_cos,R,Q-R,207,41,42459,0.03817259006302986,0.13667349115593017,0.050659089333045915,0.9966284845387312,1019.0,6.133103439319357,0.6049849172582877,8.704219197313044,-0.1803320360114073,0.048,0.9999999999999081,-124.61990064065898,1.0282114334138976,207,2026-10-08 01:46:58.543243,112.3,0.4413265753010457,1.0581498042708064,1.789246250945194
0249,cdot_cos,S,R-S,208,41,42491,-0.0006690172599358434,-0.019487119901749006,-0.0388416073229657,0.012593356981326447,1019.0,6.148802000483985,0.6049998659581681,8.725434143137756,-0.033237064545517246,0.032,0.9999999999999057,9839.984255677464,1.0331785519559853,208,2026-10-08 01:46:58.575244,112.3,0.011966662182139143,0.48511760049357866,0.49058003639462777
0249,cdot_cos,T,S-T,209,41,42741,-0.04341502763055259,0.0027237687813001076,-0.04274601037061675,0.008159519834627395,1019.0,6.164150965750946,0.6050095514529237,8.746523613207797,-0.03257877048020149,0.25,0.9999999999999033,67.96700446700952,1.038145944635821,209,2026-10-08 01:46:58.825243,112.3,0.9799965497061651,0.2040560676179588,0.06139586106784378
0249,cdot_cos,P,T-P,210,42,43260,0.02559739902355676,2.0577908057733434e-05,0.06901242665410935,0.9995694840229167,1019.0,6.250830034292965,0.6061954323864645,8.78460842523016,-0.18530972090741954,0.519,0.9999999999999031,-128.79113417499505,1.0431136818297475,210,2026-10-08 01:46:59.344243,112.3,0.43858884853662955,0.09850661856871479,0.16701169275918776
0249,cdot_cos,Q,P-Q,211,42,43430,-0.015527037985662146,-0.027068708953326782,-0.0411244370092189,0.009773352772846067,1019.0,6.266400835825272,0.6062070212614904,8.805667748456344,-0.03356237635186143,0.17,0.9999999999998996,13094.225644490674,1.0480809754699258,211,2026-10-08 01:46:59.514244,112.3,0.010874302871646738,0.30158542348621825,0.0915929501900441
0249,cdot_cos,R,Q-R,212,42,43461,0.037537361296210346,0.12777018765355133,0.053064399281872496,0.997424498131666,1019.0,6.353369078278279,0.6073890992992035,8.843720932042674,-0.18879303686430537,0.031,0.9999999999998996,-131.32014601401602,1.0530480906968456,212,2026-10-08 01:46:59.545243,112.3,0.43945207171800194,1.6556433342020447,2.8054271759034424
0249,cdot_cos,S,R-S,213,42,43490,-0.0035058457938843992,-0.023303324646444305,-0.04104320709009474,0.009862031084480612,1019.0,6.369050722545799,0.6074007808355311,8.864724708165717,-0.03431868493861557,0.029,0.9999999999998963,13223.804437519884,1.0580152041594504,213,2026-10-08 01:46:59.574244,112.3,0.011095968835756764,0.5513192203440804,0.5407463540524157
0249,cdot_cos,T,S-T,214,42,43740,-0.03875318981347494,0.0072178478684980125,-0.035247344019590544,0.01873816947990371,1019.0,6.3853455930582355,0.6074229757835915,8.885834234101402,-0.035749621952716325,0.25,0.9999999999998941,-64.47129365674492,1.0629826082509606,214,2026-10-08 01:46:59.824243,112.3,0.9607638503495942,0.20791099765091658,0.06517948204974644
0249,cdot_cos,P,T-P,215,43,44279,0.022634732214704273,4.0916569724329094e-05,0.06138792202817921,0.9989870385589917,1020.0,6.473006221371257,0.6086056092227509,8.92391217996449,-0.19368006640916902,0.539,0.9999999999998941,-133.54133176609002,1.0679503990882653,215,2026-10-08 01:47:00.363244,112.3,0.4424538126436126,0.09597878762142403,0.162635674050133
0249,cdot_cos,Q,P-Q,216,43,44449,-0.017826618318826433,-0.031014314759978196,-0.040461350533530706,0.010520954374171733,1020.0,6.488810726114131,0.6086180575144039,8.944824439431589,-0.03519953556213241,0.17,0.9999999999998902,12731.106826888927,1.0729176994662784,216,2026-10-08 01:47:00.533243,112.3,0.01108295193208285,0.30526128574802047,0.09296767495807898
0249,cdot_cos,R,Q-R,217,43,44480,0.03519365640377213,0.11914479988669585,0.053020274722598563,0.9974117374777429,1020.0,6.576795058525584,0.609797541633122,8.98288104999324,-0.1973127069244908,0.031,0.9999999999998899,-137.4441323877599,1.0778848133553385,217,2026-10-08 01:47:00.564243,112.3,0.439725184290297,1.6774979623703061,2.8382042713372106
0249,cdot_cos,S,R-S,218,43,44509,-0.004042149806263386,-0.026611066073415048,-0.039235806210035515,0.012054600784177584,1020.0,6.5928155997810896,0.6098117889204218,9.003765496244254,-0.036213009614418486,0.029,0.9999999999998871,11307.394447881143,1.0828519253811892,218,2026-10-08 01:47:00.593244,112.3,0.011694120187098983,0.5661661797888621,0.5524324570863948
0249,cdot_cos,T,S-T,219,43,44759,-0.03730471990006023,0.007027291375829898,-0.033262570093796844,0.023307728663152196,1020.0,6.609632696953338,0.6098393357058512,9.024800357110458,-0.03810736866729563,0.25,0.999999999999884,-68.76878820311455,1.0878193410468449,219,2026-10-08 01:47:00.843244,112.3,0.9515042784185911,0.21092576248384098,0.06726838868899421
0249,cdot_cos,P,T-P,220,44,45299,0.021271006433926286,-6.912505440927083e-05,0.058575726333986514,0.9986113783658935,1019.0,6.69827848102301,0.6110189078780741,9.062877378711685,-0.20225329677604498,0.54,0.9999999999998843,-139.15717238345982,1.0927871620269114,220,2026-10-08 01:47:01.383244,112.3,0.4441531156864665,0.09763479642463276,0.16415885938828137
0249,cdot_cos,Q,P-Q,221,44,45487,-0.012694548317765088,-0.02921933129264269,-0.03396555475169137,0.02157662761207772,1019.0,6.7150782770919415,0.6110443801729736,9.083830250958272,-0.038633034996899,0.188,0.9999999999998805,6423.459779534247,1.097754494554817,221,2026-10-08 01:47:01.571244,112.3,0.014476302995540829,0.2801217780500094,0.08936061738793324
0249,cdot_cos,R,Q-R,222,44,45517,0.0292776667368527,0.10787613136595477,0.04197221505461779,0.9911063098510382,1019.0,6.803604269569814,0.61221377550043,9.121782331708685,-0.20494868436430383,0.03,0.9999999999998801,-142.22363084788702,1.1027216055568843,222,2026-10-08 01:47:01.601243,112.3,0.44419173013099567,1.7698418066475134,2.9508664159290694
0249,cdot_cos,S,R-S,223,44,45547,-0.0011423726924978698,-0.02992464574947073,-0.030420039429350572,0.031793903153250654,1019.0,6.821268785490792,0.6122512674616727,9.14286367220499,-0.04121533354797443,0.03,0.9999999999998772,4367.158862574095,1.1076887174552934,223,2026-10-08 01:47:01.631244,112.3,0.01882382454541488,0.5796435120865103,0.5888171973659577
0249,cdot_cos,T,S-T,224,44,45798,-0.03387229497518371,0.0022170713380433187,-0.03272992228268584,0.02470895339177616,1019.0,6.838382880295004,0.6122804038006286,9.16377650430946,-0.040031900223671646,0.251,0.999999999999874,40.61709077765664,1.112656146421002,224,2026-10-08 01:47:01.882244,112.3,0.9708704322380969,0.21265335959619722,0.06818364463829438
0249,cdot_cos,P,T-P,225,45,46318,0.023632096531756526,-4.660572292756686e-05,0.057504391506940235,0.9984341246289887,1019.0,6.928020772008083,0.6134570649322297,9.201858543084558,-0.21107584156986764,0.52,0.9999999999998741,-145.36380675161416,1.1176239680588391,225,2026-10-08 01:47:02.402244,112.3,0.44470527292564443,0.10191153335576279,0.1723805609866906
0249,cdot_cos,Q,P-Q,226,45,46488,-0.014919294159939174,-0.025805293519587526,-0.0385513906916957,0.013005127075551862,1019.0,6.9443708749849975,0.6134723828545927,9.222514831469145,-0.0387964437852215,0.17,0.9999999999998702,11246.916762094594,1.122591282490245,226,2026-10-08 01:47:02.572243,112.3,0.011788890575612106,0.3124432982981438,0.09617707633478936
0249,cdot_cos,R,Q-R,227,45,46536,0.03408242229517374,0.12124163903557063,0.04900171645511291,0.9959415714794488,1019.0,7.034251493429452,0.61464477077468,9.260559933488818,-0.2146645611617799,0.048,0.9999999999998695,-150.00846934985236,1.1275584187994128,227,2026-10-08 01:47:02.620243,112.3,0.44075352854932537,1.1125437762262251,1.8725128842594732
0249,cdot_cos,S,R-S,228,45,46567,-0.0009022380857168802,-0.02463677871004103,-0.03498466038089062,0.019288346862008938,1019.0,7.051175077502715,0.6146674632681556,9.281277875652053,-0.040727034676655574,0.031,0.9999999999998664,7664.9807863862015,1.1325255307778168,228,2026-10-08 01:47:02.651244,112.3,0.013970428357272217,0.5447060431684604,0.545922066879448
0249,cdot_cos,T,S-T,229,45,46817,-0.03619127985935572,0.002339442583056155,-0.03528904177363884,0.01865226296945953,1019.0,7.068023268105897,0.6146894069428613,9.301941349708562,-0.040641948488499155,0.25,0.9999999999998634,3.87748129232361,1.1374929703606595,229,2026-10-08 01:47:02.901243,112.3,0.9979086341305589,0.21504707741870632,0.06739276241272663
0249,cdot_cos,P,T-P,230,46,47337,0.02586007165063633,-3.29567176490514e-05,0.06205135150999205,0.9990596961786837,1039.0,7.158698616212068,0.6158640790475862,9.340043969018186,-0.22014475691977772,0.52,0.9999999999998629,-152.81099100699208,1.1424608206889197,230,2026-10-08 01:47:03.421243,112.3,0.44246879165022907,0.10305143011091969,0.1743756694349452
0249,cdot_cos,Q,P-Q,231,46,47526,-0.012967867972363758,-0.028398737790432824,-0.03882793962300009,0.012612457171400887,1039.0,7.175196755421253,0.6158788998897127,9.360551757457708,-0.04035591715781321,0.189,0.9999999999998596,12130.811341758843,1.1474281712506804,231,2026-10-08 01:47:03.610244,112.3,0.01161939018529825,0.2833599698147677,0.08729174184753952
0249,cdot_cos,R,Q-R,232,46,47555,0.030662253370485084,0.10840639770871109,0.04363012134284884,0.9926059829687032,1039.0,7.26580868480205,0.6170446299034259,9.398546711675557,-0.22304476027120934,0.029,0.9999999999998583,-156.71625587769918,1.152395277812535,232,2026-10-08 01:47:03.639244,112.3,0.44084229374655637,1.8654180448839106,3.124549288993007
0249,cdot_cos,S,R-S,233,46,47586,-0.0017482417447643652,-0.02682768126746988,-0.032410495115249446,0.025588302170845918,1039.0,7.28339100202452,0.6170746634268419,9.419238856296301,-0.04360251778837923,0.031,0.9999999999998557,5974.73163562052,1.1573623884045119,233,2026-10-08 01:47:03.670244,112.3,0.016319246367576278,0.5598776194542038,0.5671715233054714
0249,cdot_cos,T,S-T,234,46,47837,-0.03641815517840657,0.004487275308003625,-0.0346699134336422,0.019968449186588133,1039.0,7.300521097208211,0.6170981001908207,9.439788682436628,-0.042581414176199255,0.251,0.9999999999998518,43.56845565819169,1.1623298418142856,234,2026-10-08 01:47:03.921243,112.3,0.9763052058556254,0.21669676253617326,0.06824739117008374
0249,cdot_cos,P,T-P,235,47,48376,0.025085351803285506,-2.0403019115002462e-05,0.061503506981692074,0.9990000889623866,1039.0,7.392172776817679,0.6182699194272634,9.477901361354135,-0.22925606450772995,0.539,0.9999999999998518,-159.30328204733823,1.1672977512598945,235,2026-10-08 01:47:04.460243,112.3,0.4429658283741585,0.10041456968986075,0.1700402219099591
0249,cdot_cos,Q,P-Q,236,47,48546,-0.014514877075651827,-0.024079177465204795,-0.039600228878937334,0.011576824574204555,1039.0,7.408768003333881,0.6182834909173767,9.498254310280208,-0.041816303389442665,0.17,0.9999999999998478,13811.288189715138,1.1722650800298693,236,2026-10-08 01:47:04.630244,112.3,0.011305606742570107,0.3192837323906151,0.09761897950707019
0249,cdot_cos,R,Q-R,237,47,48578,0.039011900265845306,0.12404877341258777,0.053526777341497134,0.997554499786748,1039.0,7.500729245830488,0.6194522268848194,9.536348945323713,-0.23314671575674023,0.032,0.9999999999998478,-163.70713120598455,1.1772321898477818,237,2026-10-08 01:47:04.662244,112.3,0.44014818530662114,1.6941247453768764,2.873788828018975
0249,cdot_cos,S,R-S,238,47,48606,-0.003315491147468808,-0.01864472923432242,-0.04232739141331411,0.008548908069946999,1039.0,7.517191987038001,0.6194622368365224,9.55660106796659,-0.042040619835320314,0.028,0.9999999999998436,19091.610188756997,1.182199294145538,238,2026-10-08 01:47:04.690243,112.3,0.010612223622138988,0.6003399932618114,0.5879550431254607
0249,cdot_cos,T,S-T,239,47,48856,-0.03893900457506078,0.00964576971708965,-0.03562351342759198,0.017977017807175893,1039.0,7.53434828545315,0.6194832858694586,9.576982320032101,-0.043908884484164974,0.25,0.9999999999998399,-88.75774267193188,1.1871667583607122,239,2026-10-08 01:47:04.940243,112.3,0.9583438215113996,0.21959094221797315,0.06862519366059416
0249,cdot_cos,P,T-P,240,48,49415,0.025168652031887465,-1.539314804609419e-05,0.06410765660694825,0.9992534415715602,999.0,7.626987458146988,0.62065258909195,9.61511174812822,-0.2385405938916511,0.559,0.9999999999998398,-166.45101601001832,1.1921347312064774,240,2026-10-08 01:47:05.499244,112.3,0.44222919406711614,0.09800184835516937,0.1657230280748444
0249,cdot_cos,Q,P-Q,241,48,49583,-0.0129395997289321,-0.02318451798986891,-0.03810825176081956,0.013659630777951992,999.0,7.643914351914229,0.6206685636052566,9.635370528531055,-0.04390005612335793,0.168,0.9999999999998356,12184.442432305825,1.1971020638925378,241,2026-10-08 01:47:05.667244,112.3,0.011870255263381046,0.3273209559353401,0.10075532004310311
0249,cdot_cos,R,Q-R,242,48,49613,0.05080386563450443,0.13429166477671223,0.06374346536343653,0.9992222995730763,999.0,7.736967299341262,0.6218364116012923,9.673507706696036,-0.24277931737462108,0.03,0.9999999999998352,-170.29550243384114,1.2020691688588463,242,2026-10-08 01:47:05.697243,112.3,0.440794227425814,1.8200728836637334,3.1017649142344323
0249,cdot_cos,S,R-S,243,48,49644,-0.003053945340846561,-0.02339588528821271,-0.05385781097535099,0.002356467928959161,999.0,7.753118724934053,0.6218391640758143,9.693516588910487,-0.04243887404546742,0.031,0.9999999999998314,72785.57593536547,1.2070362764598725,243,2026-10-08 01:47:05.728243,112.3,0.008909097420864546,0.5369718932772254,0.5210137287997109
0249,cdot_cos,T,S-T,244,48,49895,-0.04000740972613964,0.00509599833765879,-0.03695346438529308,0.015521681065347641,999.0,7.77025955672445,0.6218572939934246,9.713724811020349,-0.045134551438371154,0.251,0.9999999999998271,-148.68668743273378,1.212003754759938,244,2026-10-08 01:47:05.979244,112.3,0.9420232140680121,0.2205832175787582,0.06829016649560533
0249,cdot_cos,P,T-P,245,49,50414,0.0234091038516924,5.323708231802173e-06,0.06341651357783204,0.9991932377660278,999.0,7.86385150015859,0.6230236711648427,9.751866370566525,-0.2478989843332334,0.519,0.9999999999998271,-173.84122208799604,1.2169716918520403,245,2026-10-08 01:47:06.498244,112.3,0.4413435505265841,0.10623705233835119,0.18033129756096278
0249,cdot_cos,Q,P-Q,246,49,50584,-0.019147145225793683,-0.03492491207430345,-0.042556249077486084,0.008333802088313655,999.0,7.8805336170516584,0.623033393400278,9.771900482721907,-0.0444974996595998,0.17,0.9999999999998225,20921.26713324541,1.2219390354017028,246,2026-10-08 01:47:06.668243,112.3,0.0103468131247688,0.32513723844545767,0.09813009937099332
0249,cdot_cos,R,Q-R,247,49,50615,0.03389997795670551,0.12135252754882257,0.0530471231824992,0.9974195094414705,999.0,7.974398161230045,0.6241962684914191,9.810017968883068,-0.25182141839237293,0.031,0.9999999999998225,-178.28563042771083,1.2269061406661228,247,2026-10-08 01:47:06.699244,112.3,0.4389817674242812,1.7915549516112073,3.0278885218834435
0249,cdot_cos,S,R-S,248,49,50644,-0.004064120834876808,-0.0324119312794414,-0.03796409879158232,0.013879463489242136,999.0,7.991610024051553,0.6242124402686748,9.830110913140224,-0.04649899634430403,0.029,0.9999999999998181,12696.342448992333,1.2318732434165955,248,2026-10-08 01:47:06.728243,112.3,0.012086921665923489,0.6049174711756787,0.5935125110864864
0249,cdot_cos,T,S-T,249,49,50894,-0.03757650746857653,0.004743435187552227,-0.033512386633699716,0.022677553795136567,999.0,8.009483374558235,0.6242388626211751,9.850326677826546,-0.04839080308874736,0.25,0.9999999999998139,-71.59872477000248,1.2368407329421105,249,2026-10-08 01:47:06.978244,112.3,0.9616599771817377,0.22482287110149812,0.07149340202672505
0249,cdot_cos,P,T-P,250,50,51413,0.025377951195878254,2.8679702757572395e-05,0.06295445866445479,0.9991503072648972,1039.0,8.104021459602302,0.6254022689883212,9.888481750071143,-0.2574339760091311,0.519,0.9999999999998141,-179.6819914551299,1.2418087006256815,250,2026-10-08 01:47:07.497243,112.3,0.4439575390268273,0.10804601175500421,0.18215430644329056
0249,cdot_cos,Q,P-Q,251,50,51602,-0.010203532369095625,-0.022374003531021824,-0.03558148356497388,0.018060532986753388,1039.0,8.121635134759929,0.6254232853147996,9.908572065252336,-0.04829605082521333,0.189,0.9999999999998098,9951.21223485293,1.2467760857819048,251,2026-10-08 01:47:07.686244,112.3,0.013163179091438876,0.2968949441284705,0.09319404845305065
0249,cdot_cos,R,Q-R,252,50,51631,0.03678118370515365,0.12479564503948093,0.046984716074249276,0.9949151079521887,1039.0,8.216247748482864,0.6265802960690198,9.946657645403157,-0.2608934840092802,0.029,0.9999999999998094,-183.74715395568046,1.2517431859576174,252,2026-10-08 01:47:07.715244,112.3,0.4426915124252451,1.9304471963714687,3.2625039214805267
0249,cdot_cos,S,R-S,253,50,51662,-0.0014262677733730077,-0.022145766384883137,-0.03820745147852666,0.01351034965827073,1039.0,8.233601072149474,0.6265959976505386,9.966623279114296,-0.0481787690411615,0.031,0.999999999999805,13547.343285930248,1.2567102907378462,253,2026-10-08 01:47:07.746243,112.3,0.012093186149567997,0.5580209114417908,0.5597846344067713
0249,cdot_cos,T,S-T,254,50,51913,-0.040348036672580447,0.004915693654985989,-0.03892176889920744,0.012481907191014108,1039.0,8.250845044992255,0.6266105037503052,9.986531921020978,-0.047975111601707844,0.251,0.9999999999998008,14.039434633039424,1.2616777950817357,254,2026-10-08 01:47:07.997243,112.3,0.9957639331266702,0.22458561417718922,0.06870108702303235
0249,cdot_cos,P,T-P,255,51,52452,0.02582001811306887,2.768215964362628e-05,0.06616805478564931,0.9994075624939238,979.0,8.346343050466423,0.6277712443232187,10.024706729560442,-0.26716810117913903,0.539,0.9999999999998006,-188.83891430386663,1.266645830237749,255,2026-10-08 01:47:08.536243,112.3,0.44024187404608406,0.10510881963987206,0.17717626247526505
0249,cdot_cos,Q,P-Q,256,51,52641,-0.009611093906549085,-0.02571692117378461,-0.035431112019617954,0.018362458078525323,979.0,8.364152352564037,0.6277925572763308,10.044684930006374,-0.05016282372150879,0.189,0.999999999999796,10181.849334391381,1.271613224213327,256,2026-10-08 01:47:08.725244,112.3,0.013220085432536922,0.29840760305112896,0.09422911162758847
0249,cdot_cos,R,Q-R,257,51,52670,0.029613969370605082,0.1391155075195813,0.039225063277154165,0.9879310230168852,979.0,8.45914112441975,0.6289384955923748,10.08265515658512,-0.2690182943788444,0.029,0.9999999999997954,-190.98363986367065,1.2765803225733128,257,2026-10-08 01:47:08.754244,112.3,0.44328880879885807,1.9727804111477207,3.275474891576294
0249,cdot_cos,S,R-S,258,51,52701,0.00071372696074239,-0.02514947700041087,-0.028900242409862692,0.037489025815211505,979.0,8.478573616410605,0.6289819520517971,10.10295017905744,-0.05540654332845815,0.031,0.999999999999791,4915.535087078248,1.281547425697451,258,2026-10-08 01:47:08.785243,112.3,0.02116614256810171,0.586637188898029,0.6268545803501704
0249,cdot_cos,T,S-T,259,51,52952,-0.04400342801205442,-0.002831931551367093,-0.04471715497279681,0.0065498840478402836,979.0,8.495512630131428,0.6289895443200452,10.122632783760945,-0.0484003652498712,0.251,0.9999999999997866,922.8043385253777,1.2865149432298393,259,2026-10-08 01:47:09.036243,112.3,0.8652345497408757,0.22584149232686804,0.06748611044152397
0249,cdot_cos,P,T-P,260,52,53431,0.02275834555217384,3.6188726766881315e-05,0.06676177356422826,0.9994457538030527,1039.0,8.591946045558693,0.6301472986991146,10.160824001593049,-0.2770258781079863,0.479,0.9999999999997867,-197.4732438860513,1.2914828971373666,260,2026-10-08 01:47:09.515244,112.3,0.43810977952744584,0.11880291578380854,0.20132237041182724
0249,cdot_cos,Q,P-Q,261,52,53601,-0.01741091911464624,-0.029025553929549155,-0.04016926466682008,0.010867964280531455,1039.0,8.609325823452316,0.6301598799134053,10.180548677809231,-0.05025902856702648,0.17,0.9999999999997814,18024.241881679474,1.2964502641614513,261,2026-10-08 01:47:09.685244,112.3,0.010976897440202273,0.33560319686228135,0.10223398760954898
0249,cdot_cos,R,Q-R,262,52,53632,0.038398433531987554,0.1212865240706774,0.055809352646633795,0.998106419273473,1039.0,8.706051132491869,0.6313145744379798,10.218723392437619,-0.28120193020254175,0.031,0.9999999999997815,-200.00346127961024,1.3014173651295227,262,2026-10-08 01:47:09.716243,112.3,0.4398723603489616,1.8382285959242106,3.120171259340398
0249,cdot_cos,S,R-S,263,52,53662,-0.004501340618497545,-0.02543125668161509,-0.0428997741504851,0.008020953837333755,1039.0,8.723295996399617,0.631323847690042,10.238356580059714,-0.050464116051504096,0.03,0.9999999999997766,24882.08156129796,1.3063844651699577,263,2026-10-08 01:47:09.746243,112.3,0.010334012999992478,0.5914054751826825,0.574828796924957
0249,cdot_cos,T,S-T,264,52,53911,-0.03884207594943166,0.00951779804469448,-0.03434073533093412,0.02070486070964884,1039.0,8.74153546100283,0.6313477847177765,10.258191592399646,-0.053481862760759995,0.249,0.9999999999997718,-126.07023489825832,1.3113519925501138,264,2026-10-08 01:47:09.995244,112.3,0.945136790976273,0.2320333162197564,0.07325086186029013
0249,cdot_cos,P,T-P,265,53,54470,0.022046416250935865,3.6991419576970436e-05,0.06088849220036753,0.9989286648274307,1039.0,8.838848587877056,0.6325018826975364,10.2963890306098,-0.28685416499867267,0.559,0.9999999999997721,-202.2118627107154,1.3163201332236656,265,2026-10-08 01:47:10.554244,112.3,0.44327838048708107,0.10263406848585828,0.1740843056784015
0249,cdot_cos,Q,P-Q,266,53,54640,-0.019331787973109936,-0.031972036877813866,-0.0413782042240458,0.009501371410741958,1039.0,8.856280349570019,0.6325128527083317,10.315976958052678,-0.05171911182306517,0.17,0.999999999999767,21434.3502083129,1.3212875079816147,266,2026-10-08 01:47:10.724244,112.3,0.010605461865972422,0.3384649990052972,0.10253977466448894
0249,cdot_cos,R,Q-R,267,53,54670,0.03674773392415525,0.10481373661449633,0.056079521897265186,0.998162903779214,1039.0,8.953926687538857,0.6336645367316547,10.354168403854796,-0.29121096342758435,0.03,0.9999999999997667,-207.9492697254795,1.3262546052005728,267,2026-10-08 01:47:10.754244,112.3,0.4393759534347258,1.918198804825355,3.2548779322945975
0249,cdot_cos,S,R-S,268,53,54700,-0.005599299721268168,-0.030472511290725666,-0.042347033645423415,0.008530232157993572,1039.0,8.97137227785954,0.6336743723867525,10.373701119882055,-0.05236366801834287,0.03,0.9999999999997617,24283.821772289415,1.3312217034479894,268,2026-10-08 01:47:10.784243,112.3,0.0104482882249546,0.6306931013669489,0.5815196773561127
0249,cdot_cos,T,S-T,269,53,54950,-0.03278344177612417,0.008039957177951357,-0.027184142054856,0.04509764106264052,1039.0,8.991768273620874,0.633726369687566,10.393889830839505,-0.06134499437365106,0.25,0.9999999999997572,-172.72678032884485,1.3361892462187972,269,2026-10-08 01:47:11.034244,112.3,0.8638062066968616,0.23707164604588016,0.08158398304533421
0249,cdot_cos,P,T-P,270,54,55509,0.021829627746301147,3.688977431402732e-05,0.05461306952242531,0.9978347410426348,999.0,9.08990810088248,0.6348760681312702,10.43208293638259,-0.2967274076335165,0.559,0.9999999999997571,-204.73404530452135,1.3411574220421723,270,2026-10-08 01:47:11.593244,112.3,0.4523670149095822,0.10387431371672305,0.1755631972479544
0249,cdot_cos,Q,P-Q,271,54,55678,-0.015833657818255027,-0.02857603393645653,-0.03766328556455617,0.014349496633806347,999.0,9.10789975635617,0.6348925903467609,10.45165590582679,-0.054746409344196216,0.169,0.9999999999997516,14645.796045010928,1.3461248027328372,271,2026-10-08 01:47:11.762244,112.3,0.012033821455013591,0.34494989300426554,0.1064594998443187
0249,cdot_cos,R,Q-R,272,54,55707,0.04322836312237473,0.11858452674549375,0.059062020940629754,0.9986850816877036,999.0,9.206501164717922,0.6360417082783609,10.489873416467647,-0.30154870491111674,0.029,0.9999999999997514,-214.77542798699568,1.3510918960756808,272,2026-10-08 01:47:11.791244,112.3,0.4411152068703376,1.998753639031692,3.4000485641983413
0249,cdot_cos,S,R-S,273,54,55738,-0.0037385882326405064,-0.02910710963299597,-0.04696695135501523,0.005094994684456873,999.0,9.223827467420008,0.6360475667723401,10.509235371184035,-0.0533233884782923,0.031,0.9999999999997464,42370.15815255471,1.3560589946272852,273,2026-10-08 01:47:11.822243,112.3,0.009513031345176866,0.5783176902165527,0.5589129903898786
0249,cdot_cos,T,S-T,274,54,55989,-0.038355585056139604,0.004808611857897514,-0.0346169968234991,0.020085075225525214,999.0,9.242356861511348,0.6360706612596312,10.52884773532063,-0.05713540985305786,0.251,0.9999999999997415,-165.0619616151859,1.3610265530894152,274,2026-10-08 01:47:12.073244,112.3,0.9354579631998446,0.23437283124780584,0.07382228721649411
0249,cdot_cos,P,T-P,275,55,56508,0.02182944411540732,4.619876084960537e-05,0.060185029171546923,0.998840699819573,1039.0,9.341482628706407,0.6372183687459654,10.567076096736328,-0.30718499627682216,0.519,0.9999999999997414,-217.868742167422,1.3659946798023035,275,2026-10-08 01:47:12.592243,112.3,0.44308074647616114,0.11333996429453304,0.19099377108874468
0249,cdot_cos,Q,P-Q,276,55,56697,-0.013388211604767693,-0.02951093145750144,-0.03521765572017501,0.01879957029538873,1039.0,9.360003744449074,0.6372399552576813,10.586630303974399,-0.05775774729389635,0.189,0.999999999999736,11554.773289243034,1.3709621111475851,276,2026-10-08 01:47:12.781244,112.3,0.013319752103319843,0.3110628272545354,0.09799532138977139
0249,cdot_cos,R,Q-R,277,55,56726,0.031181283561041866,0.11037738996117455,0.04456949516580956,0.9933413282200557,1039.0,9.459064377408621,0.6383797656719085,10.624761905690402,-0.31043841670472816,0.029,0.9999999999997358,-221.68657722096486,1.3759292027080663,277,2026-10-08 01:47:12.810244,112.3,0.44310531315335583,2.0365199762649606,3.415883895156813
0249,cdot_cos,S,R-S,278,55,56757,-0.0017632070021751233,-0.02816992474309091,-0.03294449056321699,0.024134879831004305,1039.0,9.478121903072442,0.6384074399503772,10.644384312163721,-0.060095771745137055,0.031,0.9999999999997307,9046.040540587193,1.380896299640906,278,2026-10-08 01:47:12.841243,112.3,0.0155184118533899,0.6305966239178272,0.6147588923812946
0249,cdot_cos,T,S-T,279,55,57008,-0.03097343589907224,0.0037310998739085847,-0.029210228896897117,0.03625292908891628,1039.0,9.498161368091527,0.6384490076735059,10.66420601266913,-0.06331951379835425,0.251,0.9999999999997253,-77.5539724231928,1.3858638722317993,279,2026-10-08 01:47:13.092243,112.3,0.9503620140637172,0.23901578510765153,0.0798385060521321
0249,cdot_cos,P,T-P,280,56,57547,0.02380927368099105,3.215148499586373e-05,0.05478270958006329,0.9978755132443268,1019.0,9.598107827196483,0.6395923594216696,10.702432393339992,-0.3173639589219136,0.539,0.9999999999997257,-222.1927289931284,1.390832076057436,280,2026-10-08 01:47:13.631244,112.3,0.44911200309270843,0.10928590355386313,0.18542942320028927
0249,cdot_cos,Q,P-Q,281,56,57717,-0.01818376574423497,-0.031563357642346676,-0.04199303942522602,0.008873100204172348,1019.0,9.615971572122591,0.6396025190192287,10.72169732009955,-0.05707271574976486,0.17,0.9999999999997196,25620.231673292852,1.3957994752652474,281,2026-10-08 01:47:13.801243,112.3,0.010454791471443075,0.34768475871160304,0.1050808525065208
0249,cdot_cos,R,Q-R,282,56,57748,0.03758509031641901,0.12067815431588119,0.05576885606065398,0.9980978045170534,1019.0,9.716320645158428,0.6407445297488038,10.75993578456532,-0.3221286958926912,0.031,0.9999999999997194,-232.09587552784672,1.400766569459681,282,2026-10-08 01:47:13.832243,112.3,0.43918859652259334,1.9079388423052486,3.2370668721237585
0249,cdot_cos,S,R-S,283,56,57777,-0.004536585048237173,-0.029299964489322344,-0.042121675364656185,0.008746955533829995,1019.0,9.734263780345517,0.6407545308793098,10.779165038505608,-0.05795067591299437,0.029,0.9999999999997137,26414.81578725781,1.4057336602735648,283,2026-10-08 01:47:13.861243,112.3,0.010475980530863946,0.6490756916399895,0.6187287995547895
0249,cdot_cos,T,S-T,284,56,58027,-0.03545786011947811,0.0065961158284605975,-0.030921275071240935,0.03010609078869673,1019.0,9.753967035273547,0.6407889527718814,10.798772784656967,-0.0637557872961558,0.25,0.9999999999997083,-168.64590960768888,1.410701244766921,284,2026-10-08 01:47:14.111244,112.3,0.9129699568605204,0.2411924622645003,0.07881301971212196
0249,cdot_cos,P,T-P,285,57,58566,0.022870803242944954,4.022806030092308e-05,0.05832866336242307,0.9985723671393409,1020.0,9.854860011477767,0.6419298505082371,10.837028634749592,-0.3280292998312023,0.539,0.9999999999997091,-231.63645970513772,1.4156694834811445,285,2026-10-08 01:47:14.650244,112.3,0.446801898966704,0.11119878739888175,0.18718548460894185
0249,cdot_cos,Q,P-Q,286,57,58754,-0.011653548636421355,-0.027120809727094176,-0.03452435187936631,0.02029086948811278,1020.0,9.873839328089542,0.6419530168078188,10.856416268370376,-0.06208215948642349,0.188,0.9999999999997023,11479.914580547187,1.4206369318634022,286,2026-10-08 01:47:14.838243,112.3,0.013790251852101676,0.3187048050572508,0.10095381176475998
0249,cdot_cos,R,Q-R,287,57,58784,0.03321176902084937,0.12539067905963916,0.044865317657270726,0.9935574993595389,1020.0,9.974693018179293,0.6430865592365803,10.894582922182186,-0.3314338945460731,0.03,0.9999999999997023,-237.61945580981742,1.4256040219503998,287,2026-10-08 01:47:14.868243,112.3,0.4436647151154189,1.9999389891432648,3.361789669658381
0249,cdot_cos,S,R-S,288,57,58815,-0.0009485634857698685,-0.026855834209193224,-0.03416033250661924,0.02111965395464649,1020.0,9.993835667438137,0.6431106371666725,10.91395513424826,-0.06328662439641763,0.031,0.9999999999996968,11136.641277845178,1.4305711154319307,288,2026-10-08 01:47:14.899244,112.3,0.01445045878829022,0.6082809337292467,0.6175048148014342
0249,cdot_cos,T,S-T,289,57,59066,-0.038436535588064945,0.002455118431870231,-0.03748797210229508,0.014630630323066014,1020.0,10.012406436070506,0.6431273167175177,10.933170097612283,-0.06151063257977074,0.251,0.9999999999996911,106.47719672628533,1.4355387163863276,289,2026-10-08 01:47:15.150244,112.3,0.9715399160766544,0.23978282255668393,0.07398712602537386
0249,cdot_cos,P,T-P,290,58,59586,0.02202893825749446,-8.18504245952748e-05,0.060465473845559406,0.9988766014211612,1019.0,10.114206644361593,0.6442652569407774,10.971447770577985,-0.3387308469690513,0.52,0.9999999999996916,-243.6157969661662,1.4405069461665425,290,2026-10-08 01:47:15.670244,112.3,0.4411331465126721,0.11543653406095225,0.19576963132901248
0249,cdot_cos,Q,P-Q,291,58,59755,-0.019077850785698926,-0.03286108322378443,-0.041106789043193384,0.0097925515959508,1019.0,10.132460431493897,0.6442764047711131,10.99053812117155,-0.06109926099608669,0.169,0.999999999999685,24904.539951871368,1.4454743598011586,291,2026-10-08 01:47:15.839243,112.3,0.010631399533891443,0.3560570671989578,0.10801057474736009
0249,cdot_cos,R,Q-R,292,58,59786,0.03571931018845588,0.1180211595075772,0.05479716097415481,0.9978789509526985,1019.0,10.23455393307484,0.6454115670344094,11.028803707094898,-0.34326629298893274,0.031,0.9999999999996846,-248.56977818616005,1.4504414506033925,292,2026-10-08 01:47:15.870244,112.3,0.4395489322977866,1.9435842692989274,3.293338760675609
0249,cdot_cos,S,R-S,293,58,59816,-0.00469899903966273,-0.030120385744987772,-0.04041830922811861,0.010571392019539565,1019.0,10.25296265619043,0.6454235840522381,11.04787819315872,-0.062260441232060836,0.03,0.9999999999996789,23383.99224851186,1.4554085401371553,293,2026-10-08 01:47:15.900243,112.3,0.01096120350415905,0.6540641025555516,0.613624103852987
0249,cdot_cos,T,S-T,294,58,60065,-0.03314464092101524,0.006333093188832445,-0.02844564188135251,0.039375281184236235,1019.0,10.273797779228174,0.6454683422432924,11.0674826024562,-0.0705977667944804,0.249,0.9999999999996734,-186.27485530640988,1.460376150927602,294,2026-10-08 01:47:16.149244,112.3,0.888610594683411,0.24783043650942363,0.0836751929226646
0249,cdot_cos,P,T-P,295,59,60605,0.021361120427367555,-6.305047206284597e-05,0.054505761348382795,0.9978085478141712,1039.0,10.376382213572123,0.6466017073303946,11.105755123663615,-0.34918130414064685,0.54,0.9999999999996736,-245.80211664933375,1.4653444633252561,295,2026-10-08 01:47:16.689243,112.3,0.4503099446521812,0.11287200898056615,0.18997117471101754
0249,cdot_cos,Q,P-Q,296,59,60793,-0.013109428057012493,-0.028506678976759875,-0.03447054848438005,0.020411330508586834,1039.0,10.395699548927185,0.6466248744845409,11.124961281477578,-0.06613938472601931,0.188,0.9999999999996667,12217.379727663403,1.4703119313650135,296,2026-10-08 01:47:16.877243,112.3,0.013849915484801316,0.32422343551561705,0.10275178380352112
0249,cdot_cos,R,Q-R,297,59,60823,0.03166337197474641,0.10868932853654914,0.0447728000317589,0.9934906525715087,1039.0,10.498290225325995,0.647751666329549,11.163156422387443,-0.35280207339126995,0.03,0.9999999999996669,-254.40607325587735,1.475279017858047,297,2026-10-08 01:47:16.907244,112.3,0.4437334696445305,2.0365497055350033,3.419689213293668
0249,cdot_cos,S,R-S,298,59,60854,-0.001854649717933044,-0.02749313633627755,-0.03351802169267946,0.02266353272619619,1039.0,10.517892531259285,0.6477773516154552,11.182377209358402,-0.06780294535380992,0.031,0.9999999999996608,11095.812952099517,1.4802461079208462,298,2026-10-08 01:47:16.938244,112.3,0.01494550996008672,0.6370998969852131,0.6323324494609727
0249,cdot_cos,T,S-T,299,59,61104,-0.03398874908144674,0.004255797687635825,-0.03213409936351369,0.026373722967837146,1039.0,10.537790418939078,0.6478072406993733,11.201640694656096,-0.06895202867537642,0.25,0.9999999999996544,-38.44491603406611,1.4852137356501889,299,2026-10-08 01:47:17.188244,112.3,0.9834731248388782,0.24679964554650624,0.07959155071917223
0249,cdot_cos,P,T-P,300,60,61644,0.02324716510706153,-6.625576392687171e-05,0.05723591418850826,0.9983862719131473,999.0,10.641292354032538,0.6489378492041429,11.23993968138393,-0.3602359902299253,0.54,0.9999999999996549,-257.6346810816925,1.4901820843574527,300,2026-10-08 01:47:17.728243,112.3,0.4454848406568937,0.11318277382408232,0.19167025017307418
0249,cdot_cos,Q,P-Q,301,60,61813,-0.016207700735543677,-0.028974969957969776,-0.039454865842605207,0.011765117050196184,999.0,10.660027814669087,0.6489511625164865,11.25888849989527,-0.0655835590202622,0.169,0.9999999999996481,22132.165429879235,1.4951495149503624,301,2026-10-08 01:47:17.897243,112.3,0.011189505866650476,0.36279557222922315,0.11086071382573284
0249,cdot_cos,R,Q-R,302,60,61842,0.04210308277583345,0.1142864501454272,0.058310783511377126,0.9985695018098433,999.0,10.763917257446016,0.6500802894240882,11.297197634317772,-0.365216700365675,0.029,0.9999999999996482,-265.3671073890567,1.5001165970983799,302,2026-10-08 01:47:17.926244,112.3,0.440244233636823,2.1065922271450432,3.582394578514778
0249,cdot_cos,S,R-S,303,60,61873,-0.00397285834418864,-0.029846855866631494,-0.04607594112002209,0.005628162604060033,999.0,10.7822101638435,0.6500866486866056,11.315996830664604,-0.06467377835676141,0.031,0.9999999999996414,47260.65659167581,1.5050836854141398,303,2026-10-08 01:47:17.957243,112.3,0.009589755359238972,0.6161065536796932,0.5900937547575462
0249,cdot_cos,T,S-T,304,60,62123,-0.03675390440777203,0.0047560200563171616,-0.03278104606358339,0.024570976405202498,999.0,10.802115863774157,0.6501144108147336,11.33513875077503,-0.07049792162054812,0.25,0.9999999999996354,-209.78734904339245,1.5100513277628824,304,2026-10-08 01:47:18.207244,112.3,0.9207061060853633,0.24863861965820178,0.0796227997226282
0249,cdot_cos,P,T-P,305,61,62643,0.024806212981368585,-4.0646111563288166e-05,0.06156011738914061,0.9990064192862422,1019.0,10.9065294736726,0.6512422998806688,11.373464570191764,-0.37136468167744124,0.52,0.9999999999996355,-266.75208506204285,1.5150196619333016,305,2026-10-08 01:47:18.727243,112.3,0.44478455963947044,0.11832409909630337,0.20079540365085352
0249,cdot_cos,Q,P-Q,306,61,62813,-0.01710899255379683,-0.029614663357435598,-0.041915205535165416,0.008950300457325523,1019.0,10.925172926834312,0.6512523972359046,11.392271158771301,-0.06668360314487064,0.17,0.9999999999996286,30174.344808118763,1.519987103814325,306,2026-10-08 01:47:18.897243,112.3,0.010367748236884446,0.3627453619646872,0.10966737153948045
0249,cdot_cos,R,Q-R,307,61,62843,0.03798194760746532,0.12486956707695328,0.055090940161262154,0.9979476443433425,1019.0,11.029862896740594,0.6523773867617706,11.430582243523844,-0.3760022928935187,0.03,0.9999999999996285,-274.95250634491794,1.5249541867549037,307,2026-10-08 01:47:18.927244,112.3,0.4392655843322049,2.0565052651789393,3.489665663542733
0249,cdot_cos,S,R-S,308,61,62873,-0.004275612368703315,-0.027578957375737175,-0.04225755997616864,0.008615632895395561,1019.0,11.048563242745049,0.6523870918124393,11.449354004046667,-0.06754038658749488,0.03,0.9999999999996221,31783.647178890616,1.529921270831767,308,2026-10-08 01:47:18.957243,112.3,0.010388317216685235,0.6531672059218785,0.6233448668151453
0249,cdot_cos,T,S-T,309,61,63123,-0.035410257347006716,0.006680530449849872,-0.0311346449783034,0.02941424638465087,1019.0,11.069052929095907,0.6524202244374379,11.468507963522603,-0.07413103357496613,0.25,0.9999999999996155,-198.91713945845802,1.534888928114271,309,2026-10-08 01:47:19.207244,112.3,0.9149321492727754,0.25152641764934813,0.0819587454034334
0249,cdot_cos,P,T-P,310,62,63662,0.026997367477921256,-3.251053155663377e-05,0.06240762482492797,0.9990965412772571,999.0,11.174326451569723,0.653544743011648,11.506849693937774,-0.3824606434134923,0.539,0.9999999999996159,-274.1880987204641,1.5398573476379664,310,2026-10-08 01:47:19.746243,112.3,0.4465636065776292,0.11500108932142457,0.19531265765086403
0249,cdot_cos,Q,P-Q,311,62,63832,-0.016089001124328067,-0.029086721065389804,-0.04308636860224932,0.007855933693963434,999.0,11.193024103384403,0.6535535783711032,11.525550203537149,-0.06830671874343298,0.17,0.9999999999996085,35556.439583919564,1.5448247982588026,311,2026-10-08 01:47:19.916243,112.3,0.010060224496981095,0.3651660652566058,0.1099861871451763
0249,cdot_cos,R,Q-R,312,62,63862,0.035743610321863684,0.1224038960295026,0.05183261144619175,0.9970435412735972,999.0,11.298482913756969,0.6546740655918731,11.563856943656534,-0.386812138535804,0.03,0.9999999999996086,-284.25618238957225,1.549791879300355,312,2026-10-08 01:47:19.946244,112.3,0.4389318446915023,2.076311450838405,3.5152936790855334
0249,cdot_cos,S,R-S,313,62,63892,-0.003763918742704017,-0.029054151123802437,-0.0395075290645677,0.011696553996692614,999.0,11.317602790434707,0.6546872001326924,11.582606303086434,-0.07051696055296132,0.03,0.9999999999996018,24081.175149875053,1.5547589614918056,313,2026-10-08 01:47:19.976243,112.3,0.01127263293761609,0.6316014509072451,0.6373292225912763
0249,cdot_cos,T,S-T,314,62,64142,-0.04659467844122688,0.005952226151875294,-0.04283075969852287,0.008082855920093253,999.0,11.336379000811403,0.6546962765656,11.601254938386614,-0.06936464309897768,0.25,0.999999999999595,126.95708388031504,1.5597266336043332,314,2026-10-08 01:47:20.226244,112.3,0.9835247646275631,0.2498897498107837,0.07510484150678565
0249,cdot_cos,P,T-P,315,63,64661,0.02547234945316588,2.2249089432576734e-05,0.07206702789439276,0.9996944609054038,1019.0,11.442547665340099,0.6558179865356097,11.639622039667671,-0.39377255145432594,0.519,0.9999999999995954,-289.20836671580986,1.564695035873644,315,2026-10-08 01:47:20.745243,112.3,0.43874104440747586,0.12107626034669612,0.2045639008260028
0249,cdot_cos,Q,P-Q,316,63,64849,-0.011556056945113193,-0.026907837035982107,-0.037028406398279076,0.015393601367931052,1019.0,11.462056159051274,0.6558352454347385,11.658389991871218,-0.072753215507899,0.188,0.9999999999995876,18600.220880365003,1.569662544286332,316,2026-10-08 01:47:20.933243,112.3,0.012125532897105279,0.33397703024092157,0.10376858357008051
0249,cdot_cos,R,Q-R,317,63,64879,0.034611623216537775,0.1324228827062392,0.046167680161650966,0.9944292013746593,1019.0,11.568123028710685,0.6569493000948865,11.696657465894768,-0.3971106720527974,0.03,0.9999999999995879,-291.1503969668791,1.574629623406437,317,2026-10-08 01:47:20.963244,112.3,0.44184611977718596,2.0985401818246414,3.535562321980379
0249,cdot_cos,S,R-S,318,63,64910,-0.0008910485806166116,-0.02553349344205779,-0.035502671797154384,0.018218163276526627,1019.0,11.587968569960752,0.6569696937523388,11.715455585307229,-0.0747051523405669,0.031,0.9999999999995813,15809.107339670347,1.579596706445865,318,2026-10-08 01:47:20.994244,112.3,0.013357107892801185,0.6284508770386952,0.6401787500021645
0249,cdot_cos,T,S-T,319,63,65161,-0.04155412810987259,0.0025722896350609103,-0.040663079529255984,0.010287714833101525,1019.0,11.607086983087084,0.6569812097029956,11.734067324985572,-0.07208794565284002,0.251,0.9999999999995739,227.26796647011244,1.5845643963178249,319,2026-10-08 01:47:21.245243,112.3,0.964345403077133,0.2511803617978363,0.07616897659893228
0249,cdot_cos,P,T-P,320,64,65680,0.02346602899882037,3.935681110686852e-05,0.06502015710869297,0.9993261060235873,1020.0,11.714061111583266,0.6580989617034456,11.77243991958943,-0.4049157139913653,0.519,0.9999999999995745,-297.76530769304287,1.5895328343914132,320,2026-10-08 01:47:21.764243,112.3,0.439565727863465,0.12137595415019377,0.20611585452058154
0249,cdot_cos,Q,P-Q,321,64,65850,-0.019303446592683654,-0.0334918538939125,-0.04276947559150403,0.008138221381038976,1020.0,11.733075223494986,0.6581080571679628,11.790983173913578,-0.07235965062310946,0.17,0.9999999999995663,36562.84544222604,1.5945003027329692,321,2026-10-08 01:47:21.934243,112.3,0.010093363714142855,0.3712967371525893,0.11184771712776065
0249,cdot_cos,R,Q-R,322,64,65881,0.03658845231440903,0.11840638506626813,0.05589189890709268,0.9981238587736293,1020.0,11.840302002215147,0.6592227003371814,11.829336505059938,-0.4096115456236128,0.031,0.9999999999995663,-302.564896384665,1.5994673828621988,322,2026-10-08 01:47:21.965244,112.3,0.4389605750628026,2.039362931057754,3.458928345811647
0249,cdot_cos,S,R-S,323,64,65910,-0.00485068069675779,-0.031288173397731184,-0.04143913301116682,0.009437193487213136,1020.0,11.859515725220566,0.6592332308364801,11.847880045857352,-0.07378997963168185,0.029,0.9999999999995595,31890.374470131224,1.6044344585071668,323,2026-10-08 01:47:21.994244,112.3,0.010556160536463882,0.6973720194840626,0.6625421726006786
0249,cdot_cos,T,S-T,324,64,66160,-0.03511965523921966,0.006616449624067342,-0.030268974542461868,0.032320293344052585,1020.0,11.880749579345222,0.6592692942684351,11.86685537360847,-0.08168325293712082,0.25,0.9999999999995522,-218.87193973385106,1.6094021609150337,324,2026-10-08 01:47:22.244244,112.3,0.9078894123545598,0.2579188930149918,0.0849354164986238
0249,cdot_cos,P,T-P,325,65,66700,0.022298221016083922,-7.404689664832406e-05,0.057417876255303577,0.9984188611392504,1019.0,11.988475171728062,0.6603824339016894,11.905221799340293,-0.415994101000868,0.54,0.9999999999995527,-300.33145714735855,1.6143706954067076,325,2026-10-08 01:47:22.784243,112.3,0.4476949282757595,0.11784550607148385,0.1994918377459999
0249,cdot_cos,Q,P-Q,326,65,66869,-0.016643760684660964,-0.02857098256944304,-0.038941981700744886,0.012453959124985684,1019.0,12.008022725902425,0.6603963076981744,11.923774177622585,-0.0758860340663292,0.169,0.9999999999995445,24514.41948875221,1.619338169858541,326,2026-10-08 01:47:22.953243,112.3,0.011312727323657472,0.37754648280215797,0.11566600103173137
0249,cdot_cos,R,Q-R,327,65,66900,0.03961604338651166,0.12517938388866995,0.05625980407117262,0.9981996567952742,1019.0,12.116085882915192,0.6615074120654796,11.96214046793849,-0.4210727186000792,0.031,0.999999999999545,-310.669901668138,1.6243052480959257,327,2026-10-08 01:47:22.984244,112.3,0.440528883114107,2.052139383822133,3.485908290734413
0249,cdot_cos,S,R-S,328,65,66929,-0.004117217926786726,-0.02587922670374781,-0.04373326131329838,0.007309491410536136,1019.0,12.135255367699397,0.6615155417749584,11.980564463955691,-0.07508782438845385,0.029,0.9999999999995373,42558.08834405188,1.62927232170158,328,2026-10-08 01:47:23.013243,112.3,0.009974371744629777,0.6841169083231053,0.6610167166967392
0249,cdot_cos,T,S-T,329,65,67179,-0.037712869115586835,0.0071922812619777,-0.03359565118880011,0.022471235948407643,1019.0,12.155764663597932,0.6615405339727465,11.999266925634522,-0.0804644675681564,0.25,0.9999999999995306,-215.1328676772125,1.6342400394102246,329,2026-10-08 01:47:23.263244,112.3,0.9353634649421373,0.2582322196630962,0.0820371835941387
0249,cdot_cos,P,T-P,330,66,67719,0.02421901852255565,-5.347788881977637e-05,0.06193188763814249,0.9990470083610875,1019.0,12.264371477530945,0.6626507479436202,12.037657173448757,-0.42767503028151965,0.54,0.9999999999995305,-312.74202254913763,1.6392086119971891,330,2026-10-08 01:47:23.803244,112.3,0.44403315116607567,0.11851080625545506,0.20112372950558038
0249,cdot_cos,Q,P-Q,331,66,67889,-0.0176222763707908,-0.03038054501311568,-0.04184129489334645,0.009024225398381965,1019.0,12.283756334353823,0.6626607681749183,12.056064781507338,-0.07673325392177827,0.17,0.9999999999995223,35023.32091161766,1.6441760983063642,331,2026-10-08 01:47:23.973243,112.3,0.010321468978784956,0.37726123657003996,0.11402856954634145
0249,cdot_cos,R,Q-R,332,66,67919,0.038610583979876975,0.12343931152839192,0.056232860350667775,0.9981942109552793,1019.0,12.392640297964759,0.663768229800173,12.094441576470588,-0.43255880760552984,0.03,0.9999999999995224,-321.2983146047113,1.6491431716283067,332,2026-10-08 01:47:24.003244,112.3,0.43928529936541255,2.137193924699776,3.629465453697852
0249,cdot_cos,S,R-S,333,66,67949,-0.004653104230131586,-0.029591019333420097,-0.04326368821000856,0.00770223879170976,1019.0,12.41198796983581,0.6637767681904383,12.112798200344933,-0.07726018343987462,0.03,0.9999999999995149,41611.89792541626,1.6541102461430957,333,2026-10-08 01:47:24.033243,112.3,0.010064622611692312,0.6668463253922082,0.6449223957017007
0249,cdot_cos,T,S-T,334,66,68198,-0.03824596928338442,0.007247766106103577,-0.03359286505325283,0.022478109851298025,1019.0,12.432651077488291,0.6638016859016765,12.131427326641592,-0.08264312388971276,0.249,0.9999999999995071,-216.02868732082598,1.659077976206951,334,2026-10-08 01:47:24.282243,112.3,0.9369411880302784,0.261252448086691,0.0829843680822549
0249,cdot_cos,P,T-P,335,67,68738,0.02542689829675179,-3.9924212403628986e-05,0.06367286758013621,0.9992161142085841,1019.0,12.542091688982982,0.6649084269616483,12.169831338767175,-0.43928781901436614,0.54,0.9999999999995076,-322.2476404135126,1.6640465871405634,335,2026-10-08 01:47:24.822243,112.3,0.444026864456415,0.11937025713428723,0.20266779906424193
