record_id,input,event,transition,event_index,k,peak,value_cos,value_sin,value_return,x_input,rr,knowledge,decision,decision_norm,entropy,delta_t,cosine_similarity,delta_h_over_delta_d,frobenius_norm,matrix_size,timestamp,scale,P,zdot,zdot_back
0248,cdot_cos,Q,P-Q,1,0,986,-0.004431391091700426,-0.004688022799756418,-0.049477026495062096,0.22497157200680598,1040.0,0.0011174656384096617,0.5002793663805313,0.5002793663805313,,,1.0,,0.004967141530112327,1,2026-10-07 21:16:17.070244,25.0,,,
0248,cdot_cos,R,Q-R,2,0,1015,0.12732365686021246,0.1942879167238776,0.1317550479519129,0.9642181298067781,1040.0,0.00835358069278904,0.5014767140950791,0.709195170287556,-1.2359024363713176e-05,,0.9999999999999999,,0.009934283060224654,2,2026-10-07 21:16:17.099244,25.0,,,
0248,cdot_cos,S,R-S,3,0,1042,-0.0011339654579684564,-0.002630476541798883,-0.12845762231818092,0.03873745693807632,1040.0,0.01056427668207243,0.5015248172694495,0.8686664647673836,-7.541912389760894e-06,0.027,1.0000000000000002,0.10014124924182977,0.014901424594183098,3,2026-10-07 21:16:17.126244,25.0,0.527971872300688,0.07130938631547387,0.08187762923271814
0248,cdot_cos,T,S-T,4,0,1291,-0.29956101335002394,0.07788625179451243,-0.2984270478920555,0.0005749363040060525,1040.0,0.01220428755382463,0.5015255312103047,1.003051062420975,-6.733841369566854e-06,0.249,1.0000000000000002,1.1318458865243377,0.01986856616456081,4,2026-10-07 21:16:17.375243,25.0,0.8869191122534239,0.028485425678160925,0.006586389043181522
0248,cdot_cos,P,T-P,5,1,1890,0.052875431625841726,-0.001270639257947935,0.3524364449758657,0.9998509248789027,1178.0,0.02475001866979657,0.5027671079568393,1.1242214302474671,-8.360500535734109e-05,0.599,1.0,-0.06191414602627897,0.024835707897138147,5,2026-10-07 21:16:17.974244,25.0,0.3987357027826688,0.014494733221776981,0.020944459292106747
0248,cdot_cos,Q,P-Q,6,1,2018,-0.0020993270461135273,-0.0017113918663487976,-0.054974758671955254,0.2019148911471603,1178.0,0.029568977953513452,0.5030178345209402,1.232137026114329,-4.720344838545023e-05,0.128,1.0,0.14518428512923004,0.029802849480059117,6,2026-10-07 21:16:18.102243,25.0,0.46247485690503526,0.07762075715762788,0.03764811940403813
0248,cdot_cos,R,Q-R,7,1,2045,0.1306556323083387,0.29343204416773006,0.13275495935445222,0.9650706541383788,1178.0,0.04462093250214931,0.5042161818645635,1.3340306242561004,-0.00020136844463819071,0.027,0.9999999999999998,-0.12864800600016768,0.034769990999345884,7,2026-10-07 21:16:18.129244,25.0,0.46506101524598054,0.36347355860091407,0.5574797980976244
0248,cdot_cos,S,R-S,8,1,2100,0.04553149287862189,0.38662795630469504,-0.08512413942971682,0.106395168665152,1178.0,0.04919655011796281,0.5043482921379868,1.4265123898327035,-7.740788537174413e-05,0.055,1.0000000000000002,0.9383112762870224,0.0397371325893038,8,2026-10-07 21:16:18.184243,25.0,0.20161517635184356,0.06920030714798407,0.08319304756024548
0248,cdot_cos,T,S-T,9,1,2330,-0.1805356829349658,0.22108559669058347,-0.2260671758135877,0.0034993261470072177,1178.0,0.05223296628842756,0.5043526372210704,1.5130579117064078,-5.553634440267001e-05,0.23,1.0,5.03363009371291,0.044704274501387614,9,2026-10-07 21:16:18.414243,25.0,0.6744728055733498,0.046702230043460254,0.013201809436803245
0248,cdot_cos,P,T-P,10,2,3068,0.02741306235130843,-0.0005412646723539132,0.20794874528627422,0.9945067052700837,1039.0,0.07067957593795453,0.5055874784608297,1.598807988507376,-0.00040883029768835796,0.738,0.9999999999999999,-0.2861047573650315,0.04967141774131935,10,2026-10-07 21:16:19.152243,25.0,0.4214062470234744,0.016637835524155386,0.024995406029169335
0248,cdot_cos,Q,P-Q,11,2,3199,-0.038462859858404995,-0.02526948021990153,-0.06587592220971342,0.16152862710694588,1039.0,0.07679041152208091,0.505788036390116,1.677509140499669,-0.00016249147930257686,0.131,1.0000000000000002,1.2282676594358048,0.054638559475442564,11,2026-10-07 21:16:19.283243,25.0,0.2195861408593808,0.10086074577712856,0.046647599878827335
0248,cdot_cos,R,Q-R,12,2,3229,0.12192353432321952,0.17557664018309,0.1603863941816245,0.9821836171440366,1039.0,0.09710509133156221,0.5070074973539943,1.7563254908693302,-0.0006369386041081527,0.03,1.0,-0.3890629867287332,0.059605700909620606,12,2026-10-07 21:16:19.313244,25.0,0.4747880681034607,0.4193641514792857,0.6771559936493768
0248,cdot_cos,S,R-S,13,2,3258,0.003512006924484914,-0.08211581273602175,-0.1184115273987346,0.04925250957991883,1039.0,0.10195226061083805,0.5070686462820507,1.8282620047534035,-0.0001739659100213404,0.029,1.0000000000000002,7.5712315620584665,0.06457284239166501,13,2026-10-07 21:16:19.342243,25.0,0.06985846538103109,0.17768403012156403,0.16714376825089092
0248,cdot_cos,T,S-T,14,2,3509,-0.09071170477402023,0.04504052664082624,-0.09422371169850514,0.08662225296548211,1039.0,0.10741076507861293,0.5071761907023239,1.8976795407523568,-0.00020604815884587581,0.251,1.0,-0.2983162561390539,0.06953998506319646,14,2026-10-07 21:16:19.593244,25.0,0.8558136101794187,0.055805383082595125,0.021747029752091144
0248,cdot_cos,P,T-P,15,3,4107,0.05839319385792127,-0.0035794369553880877,0.14910489863194148,0.9765148686848729,997.0,0.1299665629183008,0.5083885182274451,1.968980265141626,-0.0009652942623829762,0.598,1.0,-0.6262714388681169,0.07450713012380411,15,2026-10-07 21:16:20.191243,25.0,0.45541614109964407,0.02547094640738789,0.03771872548442789
0248,cdot_cos,Q,P-Q,16,3,4233,-0.0013294600167792446,-0.001336288392548485,-0.059722653874700514,0.1834619315381134,997.0,0.13787401698184884,0.508616272691141,2.03446509204551,-0.0003818287438377207,0.126,0.9999999999999998,2.56181814870811,0.07947427216533137,16,2026-10-07 21:16:20.317244,25.0,0.21695144490307885,0.12780803493945694,0.06275757193292092
0248,cdot_cos,R,Q-R,17,3,4258,0.1530150262079203,0.210843433131875,0.15434448622469954,0.9793386391526939,997.0,0.16217418772304396,0.5098319866028006,2.102091133517618,-0.001314367911080991,0.025,0.9999999999999999,-0.7670712313970358,0.08444141346845568,17,2026-10-07 21:16:20.342243,25.0,0.49189190196051386,0.5890281703407751,0.9720068296478046
0248,cdot_cos,S,R-S,18,3,4317,-2.2798336613111768e-05,-8.897783753821247e-05,-0.1530378245445334,0.02133280496958248,997.0,0.1673254254988876,0.5098584670973342,2.163146278620822,-0.000305972355555569,0.059,1.0,38.080691969208466,0.08940855519394846,18,2026-10-07 21:16:20.401243,25.0,0.0370418082779865,0.08265320857904043,0.0873091148448075
0248,cdot_cos,T,S-T,19,3,4547,-0.2866082299383546,0.13126566653901295,-0.2865854316017415,0.0007728628492486841,997.0,0.17192726633537073,0.5098594264539846,2.222425716857501,-0.00028143010130197293,0.23,0.9999999999999997,25.581992100625,0.09437569871187756,19,2026-10-07 21:16:20.631244,25.0,0.9164887327821096,0.06799267047862032,0.020008003636883168
0248,cdot_cos,P,T-P,20,4,5104,0.046760580636110334,-5.843628812360898e-05,0.33336881057446494,0.9997599012814514,1001.0,0.19860205391905295,0.511100367645602,2.2857103327798236,-0.0017815335144271086,0.557,0.9999999999999997,-1.2088432741684068,0.09934284631823181,20,2026-10-07 21:16:21.188244,25.0,0.43083534276565577,0.03267212280510689,0.04789010338183522
0248,cdot_cos,Q,P-Q,21,4,5237,-0.005841661406585078,-0.006466830294919552,-0.05260224204269541,0.21164201373855013,1001.0,0.2083240111402598,0.5113630489812736,2.3433598828388225,-0.0007130654696141084,0.133,0.9999999999999993,4.067544586222917,0.1043099889102442,21,2026-10-07 21:16:21.321243,25.0,0.22348408646922754,0.13963081742106925,0.07309742271584106
0248,cdot_cos,R,Q-R,22,4,5267,0.12864110680171356,0.20554584044401886,0.13448276820829863,0.9664978418065975,1001.0,0.23574385135305737,0.5125625442710432,2.4041314391569024,-0.0021944443508792244,0.03,0.9999999999999996,-1.2350018327705732,0.1092771301420221,22,2026-10-07 21:16:21.351244,25.0,0.5091265037170497,0.5600273184325576,0.9139946737599186
0248,cdot_cos,S,R-S,23,4,5295,-0.0016243006169631327,-0.00417614391132265,-0.1302654074186767,0.037089191883073774,1001.0,0.24192565024621326,0.5126085719064286,2.4583843519107225,-0.0005321703572764002,0.028,0.9999999999999998,36.11469456737631,0.11424427143747472,23,2026-10-07 21:16:21.379244,25.0,0.043999590875605836,0.21035292677932882,0.22077853189842495
0248,cdot_cos,T,S-T,24,4,5546,-0.16583352897128886,0.06368289843255708,-0.16420922835432572,0.016218827803434768,1001.0,0.24752361525269978,0.5126286993819548,2.5113574856661454,-0.0004937933896743672,0.251,0.9999999999999993,1.9066955293108456,0.119211416641206,24,2026-10-07 21:16:21.630244,25.0,0.9252246794549069,0.07049120189160933,0.02230264942823313
0248,cdot_cos,P,T-P,25,5,6105,0.037976996752289036,0.001225873101062668,0.20381052572357788,0.9939116011825069,918.0,0.27731223359580115,0.5138620575223343,2.569310292292133,-0.002817244017529627,0.559,0.9999999999999992,-1.8838409962092078,0.12417856806720563,25,2026-10-07 21:16:22.189243,25.0,0.43835567062210795,0.03707594091476546,0.05328912047066434
0248,cdot_cos,Q,P-Q,26,5,6238,-0.00733941524086427,-0.009341252966628149,-0.045316411993153304,0.24362441535855428,918.0,0.28897451719540757,0.5141643491204042,2.621734056418459,-0.0011900244463029274,0.133,0.9999999999999992,5.38294673625111,0.12914571130961885,26,2026-10-07 21:16:22.322243,25.0,0.25477274835521485,0.15681541596163376,0.08768634285418357
0248,cdot_cos,R,Q-R,27,5,6268,0.11130532398297811,0.22314623495454883,0.11864473922384239,0.9510197875578557,918.0,0.31902513424159573,0.5153442827069994,2.677807450779524,-0.00329178961030324,0.03,0.9999999999999992,-1.7812571723338828,0.134112852388102,27,2026-10-07 21:16:22.352243,25.0,0.5280907746178028,0.6228835522120234,1.0016872348729389
0248,cdot_cos,S,R-S,28,5,6295,-0.0017907975548914247,-0.006506621248944444,-0.11309612153786953,0.0558612057078776,918.0,0.32634753032812897,0.5154135847105904,2.727312342693291,-0.0008514034842541815,0.027,0.9999999999999989,35.21378891801104,0.139079993510608,28,2026-10-07 21:16:22.379244,25.0,0.056908545130803165,0.24961189925403482,0.27119985505678645
0248,cdot_cos,T,S-T,29,5,6544,-0.17136703015771543,0.019488465362606757,-0.169576232602824,0.0142112830987132,918.0,0.3325041768013136,0.515431215284476,2.775682048824304,-0.0007308068100078363,0.249,0.9999999999999989,6.84020129060397,0.14404714050433934,29,2026-10-07 21:16:22.628243,25.0,0.8478779826174039,0.07824630652571948,0.024725487844115043
0248,cdot_cos,P,T-P,30,6,7023,0.0614866714040125,-0.004205273200803477,0.2328537015617279,0.9970451334203678,919.0,0.36531419097793727,0.5166680550137468,2.8299074942081175,-0.004124302091041032,0.479,0.9999999999999991,-2.743682306384101,0.14901429443113587,30,2026-10-07 21:16:23.107244,25.0,0.4391980920041138,0.04558746766653381,0.06849689807228322
0248,cdot_cos,Q,P-Q,31,6,7148,-0.0006944221246449717,-0.0007851593143126513,-0.06218109352865747,0.1744333414421475,919.0,0.376176970825853,0.5168844199326295,2.877890665935168,-0.0014508950033856383,0.125,0.9999999999999986,12.35600993664428,0.15398143828421926,31,2026-10-07 21:16:23.232243,25.0,0.1584063522486788,0.17765206441674697,0.08690223878332581
0248,cdot_cos,R,Q-R,32,6,7173,0.15458743946751974,0.25491503266791443,0.1552818615921647,0.9798075329285434,919.0,0.409727207082124,0.5180996408894977,2.93081416905812,-0.0047487604759624555,0.025,0.9999999999999986,-2.7137990452994316,0.15894857907158266,32,2026-10-07 21:16:23.257244,25.0,0.4993396810839518,0.8097752354998544,1.3420094502508406
0248,cdot_cos,S,R-S,33,6,7232,-1.8689187792466067e-05,-0.00013261053005725535,-0.1546061286553122,0.020529420111115186,919.0,0.4166657326008457,0.5181251005703947,2.9764021128330147,-0.001032683571865445,0.059,0.999999999999998,145.95928830063207,0.16391572122929415,33,2026-10-07 21:16:23.316243,25.0,0.02736566438005401,0.11201381298925339,0.11760212743596112
0248,cdot_cos,T,S-T,34,6,7462,-0.30804168581526586,0.09193875345890928,-0.3080229966274734,0.00045236219609170656,919.0,0.4229448370148559,0.5181256615689691,3.0211658223772972,-0.000949487052488103,0.23,0.9999999999999982,148.30076791260998,0.16888286965274568,34,2026-10-07 21:16:23.546243,25.0,0.9161065547609321,0.09094636540657645,0.02730045397395737
0248,cdot_cos,P,T-P,35,7,7942,0.04337331457362777,-0.0026682054058105808,0.3514150003888936,0.9998470696473685,978.0,0.4585010606878709,0.5193655112332848,3.0726078176076586,-0.0056434394712553595,0.48,0.999999999999998,-3.7859044962181385,0.17385002827038834,35,2026-10-07 21:16:24.026243,25.0,0.4352851983712771,0.050776487763806666,0.07407546598544787
0248,cdot_cos,Q,P-Q,36,7,8069,-0.006253928452777889,-0.006646057223339271,-0.049627243026405664,0.22431745690442775,978.0,0.4716902652681103,0.5196436414853561,3.1178618705116103,-0.002209045161602194,0.127,0.9999999999999971,12.348150854054195,0.17881717310179485,36,2026-10-07 21:16:24.153243,25.0,0.2112535334297031,0.19324113459398573,0.10385200456881434
0248,cdot_cos,R,Q-R,37,7,8096,0.13660178796366598,0.20286373401885577,0.14285571641644387,0.972652264642563,978.0,0.5075843088747433,0.5208494857973821,3.1682037590613628,-0.006327841699463773,0.027,0.9999999999999973,-3.41569512480552,0.18378431375602663,37,2026-10-07 21:16:24.180243,25.0,0.5215757862590829,0.808400620241378,1.3294090224678872
0248,cdot_cos,S,R-S,38,7,8151,-0.0012257013190601033,-0.0053638541320898524,-0.1378274892827261,0.030897735917561623,978.0,0.5153438987611447,0.5208877873165025,3.210967993113789,-0.0014289264740671738,0.055,0.999999999999997,127.90394057198917,0.1887514559278756,38,2026-10-07 21:16:24.235244,25.0,0.03243917135371507,0.13771058487313678,0.1410834524800266
0248,cdot_cos,T,S-T,39,7,8381,-0.15488409612690543,0.06257971424091277,-0.15365839480784532,0.02101129674250883,978.0,0.5227324732107883,0.5209138332459751,3.253105869508031,-0.0013807467344701815,0.23,0.9999999999999964,1.8497992036647457,0.19371860667886412,39,2026-10-07 21:16:24.465244,25.0,0.9657078017037684,0.09793304613059238,0.03212423673758079
0248,cdot_cos,P,T-P,40,8,8920,0.01778869961497754,0.0011385688917415798,0.17267279574188296,0.9868334257606626,939.0,0.5603930999812172,0.522136996763476,3.3022843476475665,-0.007341736130838812,0.539,0.9999999999999964,-4.87341987484021,0.19868577392967815,40,2026-10-07 21:16:25.004243,25.0,0.44399949690297286,0.046263214874278445,0.06987129270951561
0248,cdot_cos,Q,P-Q,41,8,9055,-0.047056572817708656,-0.03619061771653521,-0.0648452724326862,0.16504883878782214,939.0,0.5726042188452605,0.5223415465246978,3.344617851816499,-0.002490009033644782,0.135,0.9999999999999957,23.71905529595957,0.20365292017884237,41,2026-10-07 21:16:25.139244,25.0,0.14249081906381916,0.18765052545687852,0.09045273232624626
0248,cdot_cos,R,Q-R,42,8,9086,0.10655469358037632,0.20926210123244038,0.15361126639808498,0.978964454000066,939.0,0.6110587418545744,0.523554648924343,3.393021958148336,-0.008190211999842177,0.031,0.9999999999999953,-4.698863812209442,0.20862006073983744,42,2026-10-07 21:16:25.170244,25.0,0.4985868596922724,0.8044970527925185,1.240468484171418
0248,cdot_cos,S,R-S,43,8,9113,0.03006115533735721,-0.11070106505671914,-0.0764935382430191,0.12871836664019223,939.0,0.6224830361183966,0.5237141323712871,3.4342232645121915,-0.0025356527372514146,0.027,0.9999999999999948,35.45546181086984,0.21358720125126657,43,2026-10-07 21:16:25.197243,25.0,0.1075261546840752,0.36214072980623446,0.42312200977119213
0248,cdot_cos,T,S-T,44,8,9378,-0.11128506104657596,0.01799995547674597,-0.14134621638393316,0.02836965309849084,939.0,0.6306143412641111,0.5237492820287158,3.4741597427352775,-0.0018333640350458864,0.265,0.9999999999999941,19.979958656163227,0.21855435689089947,44,2026-10-07 21:16:25.462244,25.0,0.6817718894971893,0.09100335738395972,0.030684170361186692
0248,cdot_cos,P,T-P,45,9,9859,0.07100230856113311,-0.001735766881486741,0.18228736960770908,0.9896173708655054,938.0,0.6707148155318953,0.5249752563029957,3.52164112136294,-0.009387204495867864,0.481,0.9999999999999943,-6.161499975404659,0.22352152756760574,45,2026-10-07 21:16:25.943244,25.0,0.44722412151188917,0.05432658763468521,0.08336896937169269
0248,cdot_cos,Q,P-Q,46,9,9986,-0.0012770094390991032,-0.0014565894782911592,-0.07227931800023221,0.14100315900692306,938.0,0.6828765185686783,0.5251499120294018,3.5617400466004834,-0.0029611903322721224,0.127,0.9999999999999931,36.79246192395335,0.22848867460582875,46,2026-10-07 21:16:26.070244,25.0,0.11416870486050751,0.1591749924160989,0.09576144123451172
0248,cdot_cos,R,Q-R,47,9,10013,0.017177951507362062,0.4609391053626423,0.018454960946461166,0.6133400820848975,938.0,0.7111452636055844,0.5259095629895061,3.605454369996571,-0.00708749710596375,0.027,0.9999999999999926,-5.431845663862418,0.23345581461931403,47,2026-10-07 21:16:26.097243,25.0,0.558670627420469,0.6674565724424005,1.0469905569224491
0248,cdot_cos,S,R-S,48,9,10068,-0.179785887178416,0.5108842678331412,-0.19696383868577808,0.007216833698649406,938.0,0.7189191734805679,0.5259185006754894,3.643670310432902,-0.001999452575531803,0.055,0.9999999999999917,569.2798493851641,0.23842295691242085,48,2026-10-07 21:16:26.152243,25.0,0.07849512281414603,0.13840843062195018,0.14134381590879086
0248,cdot_cos,T,S-T,49,9,10298,-0.6032634617987056,-0.018438964941729565,-0.42347757462028957,2.5242925776822813e-05,938.0,0.7263701909739989,0.5259185319375557,3.6814297796234015,-0.0019368071806707557,0.23,0.9999999999999912,2003.8788966141676,0.24339011248567494,49,2026-10-07 21:16:26.382244,25.0,0.9681728215633542,0.10858377113629734,0.03239572823230879
0248,cdot_cos,P,T-P,50,10,10797,0.04925756870897802,-0.0031643458811070283,0.6525210305076836,0.9999999177107902,1039.0,0.7688677082032647,0.5271568184758069,3.7275616724807468,-0.011425503737099035,0.499,0.999999999999991,-7.662763232352449,0.24835729001194948,50,2026-10-07 21:16:26.881243,25.0,0.43583834633841595,0.05786699791490318,0.08516536518890934
0248,cdot_cos,Q,P-Q,51,10,10924,-0.002701442763584386,-0.0025796211159933692,-0.051959011472562405,0.21433752502095846,1039.0,0.7841214548930723,0.5274221868159331,3.7665478730200777,-0.004259133190422848,0.127,0.9999999999999897,27.00537126345516,0.2533244380081533,51,2026-10-07 21:16:27.008243,25.0,0.18589208266192395,0.22823017595770234,0.12010824165202844
0248,cdot_cos,R,Q-R,52,10,10949,0.15098897778785372,0.19475156794202178,0.1536904205514381,0.979005166039397,1039.0,0.8268381728965211,0.5286340803726194,3.812034642761966,-0.012369165892977107,0.025,0.9999999999999895,-6.692033848855372,0.25829157752097515,52,2026-10-07 21:16:27.033243,25.0,0.5190965995741116,1.0287422399715829,1.7086687201379513
0248,cdot_cos,S,R-S,53,10,11007,-0.00016006117484530926,-0.0005100085773667161,-0.15114903896269904,0.022341249195675972,1039.0,0.8355585668916514,0.5286617323341684,3.8487155829895636,-0.0026057089513951523,0.058,0.9999999999999886,353.0837016495848,0.263258720305904,53,2026-10-07 21:16:27.091244,25.0,0.023589622627241912,0.14454690627970376,0.15035162060569585
0248,cdot_cos,T,S-T,54,10,11236,-0.20796013783702258,0.14355722574822988,-0.20780007666217726,0.005513636951853196,1039.0,0.8436056140249667,0.5286685565842894,3.8849046986246396,-0.002428757440225487,0.229,0.9999999999999872,25.929810313553265,0.26822587900070277,54,2026-10-07 21:16:27.320243,25.0,0.9297339522338177,0.11480902955382716,0.03513994381360383
0248,cdot_cos,P,T-P,55,11,11836,0.03868316478552058,0.0015945730407287198,0.24664330262254316,0.9979049540845336,958.0,0.8881411024273043,0.5299034884822486,3.9298695351953494,-0.013858586648695562,0.6,0.9999999999999875,-9.255432811605683,0.2731930743004772,55,2026-10-07 21:16:27.920243,25.0,0.4383458342167752,0.051172040683187446,0.07422581400389594
0248,cdot_cos,Q,P-Q,56,11,11977,-0.007943297216393096,-0.009722086988070765,-0.04662646200191367,0.23764007455595035,958.0,0.9050120628447916,0.5301975205118956,3.9676350435823324,-0.005435690655261436,0.141,0.9999999999999851,28.64618525928773,0.2781602250266795,56,2026-10-07 21:16:28.061243,25.0,0.21234266551250755,0.21489781083457518,0.11965220154246362
0248,cdot_cos,R,Q-R,57,11,12004,0.11118988680074926,0.21241868765262015,0.11913318401714236,0.9515854730599189,958.0,0.9487422850826545,0.5313747050324679,4.011791155921192,-0.014561463058666244,0.027,0.9999999999999848,-7.752202177249673,0.2831273641958259,57,2026-10-07 21:16:28.088243,25.0,0.5343484588819357,1.0041516955053615,1.6196378606615862
0248,cdot_cos,S,R-S,58,11,12063,-4.638045884434769e-05,-0.015122779974915823,-0.11123626725959361,0.05836470594146656,958.0,0.9592362544020812,0.5314468954388919,4.04737908345485,-0.003596470586597009,0.059,0.9999999999999833,151.88988419961095,0.2880945071843969,58,2026-10-07 21:16:28.147244,25.0,0.04741482748198761,0.16850368373771493,0.17786388676994405
0248,cdot_cos,T,S-T,59,11,12294,-0.1386985725517538,0.02906392466252245,-0.13865219209290947,0.03028631779519044,958.0,0.9686257197637048,0.5314843556006642,4.082408909654075,-0.0032514413691947684,0.231,0.999999999999982,9.210563998613301,0.29306166951162443,59,2026-10-07 21:16:28.378243,25.0,0.8993205241434332,0.12073188241455358,0.040647036197505024
0248,cdot_cos,P,T-P,60,12,12794,0.06077729456714627,0.0011836063010137738,0.19947586711890009,0.9932194719612145,1038.0,1.015014384077605,0.5327126373800061,4.126374466412206,-0.016523282393459085,0.5,0.9999999999999813,-10.805208745647587,0.2980288639798567,60,2026-10-07 21:16:28.878243,25.0,0.4478841769031726,0.06166479569618455,0.09277732862780019
0248,cdot_cos,Q,P-Q,61,12,12929,-0.0007948208823551401,-0.0008363512976798261,-0.06157211544950141,0.176636637457532,1038.0,1.0302905154598894,0.5329310369939763,4.162324600664368,-0.005610066491308169,0.135,0.9999999999999792,49.96902560295084,0.3029960158637555,61,2026-10-07 21:16:29.013243,25.0,0.1429455169860412,0.21339241811063653,0.1131565287576626
0248,cdot_cos,R,Q-R,62,12,12960,0.07436709634449203,0.3572551442365682,0.07516191722684716,0.8675017315348392,1038.0,1.0726303369674768,0.534003461214166,4.2047476053151565,-0.015982446330389595,0.031,0.9999999999999786,-9.671900022219297,0.307963155154081,62,2026-10-07 21:16:29.044243,25.0,0.5225755328947288,0.9593192529027952,1.3658006937931424
0248,cdot_cos,S,R-S,63,12,12984,0.022840397476402003,0.3889265259300183,-0.051526698868090026,0.21616314675665868,1038.0,1.0897683091398627,0.5342706382048739,4.240641871812102,-0.006651730765624049,0.024,0.9999999999999771,34.92335002368221,0.3129302938147393,63,2026-10-07 21:16:29.068243,25.0,0.24591974525660004,0.5368824127053353,0.7140821738494119
0248,cdot_cos,T,S-T,64,12,13253,-0.2862911135027496,0.15711956967557628,-0.3091315109791516,0.0004400035007606142,1038.0,1.0984006927773329,0.5342711820278598,4.274169603687135,-0.0033904004634157264,0.269,0.9999999999999756,5997.043865939659,0.31789746522946916,64,2026-10-07 21:16:29.337244,25.0,0.38215434660004843,0.10634906538715336,0.03209064549245431
0248,cdot_cos,P,T-P,65,13,13832,0.04167270602019248,-0.002953812397464434,0.32796381952294207,0.9997251734406125,1059.0,1.1469841063181512,0.5355065809786895,4.317392242714748,-0.019573465412906547,0.579,0.9999999999999755,-13.099464702169534,0.3228646803397749,65,2026-10-07 21:16:29.916243,25.0,0.43745305302836446,0.05720665742939323,0.0839091770998589
0248,cdot_cos,Q,P-Q,66,13,13959,-0.008984084805344827,-0.007602286582967525,-0.05065679082553731,0.21987074429485778,1059.0,1.1646460020805702,0.5357782258281696,4.352683074568344,-0.007325052949242057,0.127,0.999999999999972,45.08980194952567,0.3278318328694348,66,2026-10-07 21:16:30.043243,25.0,0.18784725247713158,0.26064870505517024,0.1390700453733784
0248,cdot_cos,R,Q-R,67,13,13984,0.1423224963412059,0.17525749961584366,0.1513065811465507,0.9777446155306758,1059.0,1.2131888774021644,0.5369859457336096,4.395419597011654,-0.02070183411060377,0.025,0.9999999999999711,-11.076062505145416,0.33279897080961585,67,2026-10-07 21:16:30.068243,25.0,0.524052159188326,1.1729990706034554,1.9417150128637672
0248,cdot_cos,S,R-S,68,13,14042,-0.0017699303758491748,-0.005258089888810997,-0.14409242671705508,0.02653723671676759,1059.0,1.223295955610743,0.5370187188098405,4.428369998926777,-0.0044165864736003995,0.058,0.999999999999969,496.9093386974478,0.33776611416438496,68,2026-10-07 21:16:30.126244,25.0,0.02503969708770943,0.17704711285343455,0.17425996911342395
0248,cdot_cos,T,S-T,69,13,14271,-0.13374973844972182,0.09002952404188651,-0.13197980807387263,0.03558851087794351,1059.0,1.2337263424931628,0.5370626695673132,4.461177787030288,-0.00459622443616303,0.229,0.9999999999999665,-4.087255212254219,0.34273328422893073,69,2026-10-07 21:16:30.355244,25.0,0.9616701082007713,0.131659664235055,0.04554754097126558
0248,cdot_cos,P,T-P,70,14,14891,0.03543733473077493,-0.001813585467261512,0.16918707318049675,0.9856517742622664,959.0,1.2835960818303982,0.5382796890960952,4.5035712033897966,-0.022506473709951954,0.62,0.999999999999966,-14.716484699068657,0.34770051817884623,70,2026-10-07 21:16:30.975244,25.0,0.4512281840710494,0.056148830134401494,0.08043506344715383
0248,cdot_cos,Q,P-Q,71,14,15018,-0.007720182753826889,-0.00844590255506338,-0.043157517484601816,0.25370705481461814,959.0,1.3033508918598207,0.5385928770455953,4.538264502622583,-0.009161146448040985,0.127,0.9999999999999621,42.6112412154206,0.3526676723965467,71,2026-10-07 21:16:31.102243,25.0,0.23299666592254867,0.27453346336822243,0.15554968527104313
0248,cdot_cos,R,Q-R,72,14,15046,0.12963151097062742,0.20136727461391798,0.1373516937244543,0.9687441003375155,959.0,1.3533275815259267,0.5397884581005145,4.580257210780988,-0.023792064205719478,0.028,0.9999999999999611,-12.237495481783283,0.357634810145526,72,2026-10-07 21:16:31.130244,25.0,0.5406682035814464,1.0868092643901268,1.7848817737895009
0248,cdot_cos,S,R-S,73,14,15101,-0.002113217256238933,-0.01542674485723489,-0.13174472822686634,0.03579077241640347,959.0,1.3642122106656678,0.539832620802139,4.612332195554921,-0.0053004048690416875,0.055,0.999999999999958,418.7166694167571,0.3626019530803881,73,2026-10-07 21:16:31.185244,25.0,0.03053976046430118,0.19181719178549675,0.1979023479952925
0248,cdot_cos,T,S-T,74,14,15330,-0.15552971205501837,0.04776805140050319,-0.15341649479877945,0.02113605374807141,959.0,1.3744274726223313,0.5398587005612628,4.644040404667418,-0.005013029581908616,0.229,0.9999999999999551,11.019092843939237,0.36756912750378845,74,2026-10-07 21:16:31.414243,25.0,0.9442864920673708,0.13603375194082812,0.0446081308151247
0248,cdot_cos,P,T-P,75,15,15850,0.062457796245726394,-0.00010151247991061952,0.21798750830074476,0.9957207441255473,1018.0,1.426515669054567,0.541087069757831,4.685951761464875,-0.02613277942063019,0.52,0.9999999999999546,-17.193324203932658,0.37253635707321026,75,2026-10-07 21:16:31.934243,25.0,0.4456725352631154,0.06616430027833123,0.10016960852353023
0248,cdot_cos,Q,P-Q,76,15,15980,-0.0017416259371183555,-0.0018131097497222138,-0.06419942218284475,0.1672859677968853,1018.0,1.4432383449117958,0.5412933932340303,4.718886721057552,-0.008595332992506715,0.13,0.9999999999999498,84.99976227228532,0.377503513896715,76,2026-10-07 21:16:32.064243,25.0,0.12998383249516315,0.23884737133240685,0.12863596813252887
0248,cdot_cos,R,Q-R,77,15,16010,0.05999561709558969,0.4325766129164743,0.06173724303270805,0.8239629492397651,1018.0,1.4886159856009928,0.5423094265356785,4.75874623507598,-0.023820340252162987,0.03,0.9999999999999484,-14.984752207391136,0.38247065154548016,77,2026-10-07 21:16:32.094244,25.0,0.5277355671294919,1.0240348840860707,1.5125880229732345
0248,cdot_cos,S,R-S,78,15,16037,-0.01047857751205791,0.4736184782075005,-0.0704741946076476,0.14655818320448008,1018.0,1.50468043795696,0.5424901116327242,4.7911432691007585,-0.00860899596330595,0.027,0.999999999999945,84.18704440802955,0.3874377889297118,78,2026-10-07 21:16:32.121243,25.0,0.17085967071272576,0.4755440013030118,0.5949797168876744
0248,cdot_cos,T,S-T,79,15,16289,-0.49199194884161,0.13449971650790515,-0.48151337132955213,5.916058058733726e-06,1018.0,1.5142953616713555,0.5424901189261451,4.821757977729851,-0.005196875686314144,0.252,0.9999999999999419,467835.37370149005,0.39240497269224556,79,2026-10-07 21:16:32.373244,25.0,0.5186264191902493,0.12618334769606698,0.03815445918410885
0248,cdot_cos,P,T-P,80,16,16868,0.04300785871165161,-0.002210129312422183,0.5349998075532616,0.9999984464947713,1037.0,1.5682768451957778,0.5437226719959117,4.863203774837569,-0.029778920100975492,0.579,0.9999999999999406,-19.944004860833328,0.39737222666643923,80,2026-10-07 21:16:32.952243,25.0,0.4380226095352124,0.06383937781993376,0.09323226860867416
0248,cdot_cos,Q,P-Q,81,16,16995,-0.0058771618031063155,-0.0057006136630200115,-0.048885020514757925,0.22756261610923567,1037.0,1.5882213611868388,0.544003081206962,4.896028136671558,-0.011265146803589397,0.127,0.9999999999999352,66.02412676832766,0.40233938482178094,81,2026-10-07 21:16:33.079243,25.0,0.19331080107672088,0.2896853564460338,0.15704343300047993
0248,cdot_cos,R,Q-R,82,16,17022,0.1409168908707584,0.18622761478882774,0.14679405267386472,0.975152853555517,1037.0,1.6418569257330704,0.5452043746157724,4.937036007213157,-0.030987465224517927,0.027,0.999999999999934,-16.417569826223883,0.40730652123216954,82,2026-10-07 21:16:33.106244,25.0,0.529161727082215,1.2012870533961142,1.9865023906011718
0248,cdot_cos,S,R-S,83,16,17077,-0.0014302099072536912,-0.004595245894979458,-0.1423471007780121,0.027688003091271205,1037.0,1.653090862070229,0.5452384759270698,4.967359336142901,-0.006620567936945752,0.055,0.9999999999999293,714.5442905440448,0.41227366452417935,83,2026-10-07 21:16:33.161243,25.0,0.025210758732032226,0.20196960949049023,0.20425338794833678
0248,cdot_cos,T,S-T,84,16,17307,-0.15111368451486296,0.08756552557250062,-0.14968347460760925,0.023155687292832575,1037.0,1.6640735827770243,0.5452669947869154,4.997454975121407,-0.006516091459818824,0.23,0.9999999999999248,3.6634170402426713,0.41724084872029643,84,2026-10-07 21:16:33.391244,25.0,0.9840942428933873,0.14379143584816226,0.04775095959476261
0248,cdot_cos,P,T-P,85,17,17905,0.028385012008230303,-0.003178072920356204,0.17949869652309325,0.9888760374542477,940.0,1.7192349225603836,0.5464846284586669,5.038339770088964,-0.033364982827344826,0.598,0.999999999999924,-22.050056589603766,0.42220812218742104,85,2026-10-07 21:16:33.989243,25.0,0.44722087090971496,0.059528222820540426,0.09224304311598536
0248,cdot_cos,Q,P-Q,86,17,17996,-0.04794317815364756,-0.02905935996319743,-0.07632819016187786,0.12918267305205966,940.0,1.7352693372703907,0.5466436543340757,5.069365210338291,-0.009902101971656965,0.091,0.9999999999999172,147.54127776607234,0.4271752734749278,86,2026-10-07 21:16:34.080243,25.0,0.09352889291239475,0.3950784594920682,0.17620235945062754
0248,cdot_cos,R,Q-R,87,17,18055,0.13118009637298075,0.19984545638069343,0.17912327452662832,0.9887723192039805,940.0,1.79113920218794,0.547860530802509,5.110103353607174,-0.035204421779095114,0.059,0.9999999999999154,-20.792841725351888,0.43214241733645403,87,2026-10-07 21:16:34.139244,25.0,0.48737295958653715,0.5758598954343318,0.9469468630093103
0248,cdot_cos,S,R-S,88,17,18114,0.003000492215717006,-0.07401563777540493,-0.12817960415726376,0.0389971014365999,940.0,1.8032208049316418,0.5479085126835019,5.139837964413355,-0.007759344682808794,0.059,0.99999999999991,571.9883532766097,0.4371095617195365,88,2026-10-07 21:16:34.198244,25.0,0.02909946659315707,0.2002987003864126,0.20477292785935336
0248,cdot_cos,T,S-T,89,17,18345,-0.13811077887497403,0.03706145700145539,-0.14111127109069102,0.028532007978257418,940.0,1.8147744488335367,0.5479436177903728,5.169290274851682,-0.007468957544402826,0.231,0.9999999999999045,8.271934322092637,0.4420767512212312,89,2026-10-07 21:16:34.429244,25.0,0.9618668899515177,0.14842128080254435,0.05001577446707722
0248,cdot_cos,P,T-P,90,18,18845,0.06778205232112645,-0.006475200748970275,0.20589283119610047,0.9942186548687392,958.0,1.8717914366624173,0.5491665805254237,5.209852176973275,-0.03753971814467368,0.5,0.9999999999999029,-24.588452074969062,0.4470440141668181,90,2026-10-07 21:16:34.929244,25.0,0.4488625652006713,0.07473870723915454,0.1140339756577613
0248,cdot_cos,Q,P-Q,91,18,18934,-9.769271682463326e-06,-6.4986958645403735e-06,-0.06779182159280892,0.15514622053282603,958.0,1.8895131560726912,0.5493573687036578,5.240535905391737,-0.011903539770973751,0.089,0.9999999999998958,134.36984728811467,0.452011166267326,91,2026-10-07 21:16:35.018244,25.0,0.11605859611493922,0.38179328431176995,0.19912044281206626
0248,cdot_cos,R,Q-R,92,18,18993,0.06547366167157126,0.4510472531885783,0.06548343094325372,0.8371380079866916,958.0,1.9397506412699124,0.5503865717748742,5.27912315960209,-0.03433956696922612,0.059,0.9999999999998936,-21.799417263433504,0.45697831052420296,92,2026-10-07 21:16:35.077244,25.0,0.5202957415971635,0.5741075758507314,0.851482799952901
0248,cdot_cos,S,R-S,93,18,19017,-0.005179513426157545,0.4853528511450843,-0.07065317509772881,0.14599940084914056,958.0,1.9572578500230775,0.5505660239898357,5.309467078669737,-0.012177779579609409,0.024,0.9999999999998876,123.4968729383986,0.4619454451515385,93,2026-10-07 21:16:35.101243,25.0,0.16204932178481915,0.5833757005008303,0.7294670313818807
0248,cdot_cos,T,S-T,94,18,19284,-0.5362336811165546,0.0547348338099382,-0.531054167690397,1.7145568507196157e-06,958.0,1.9677526748939522,0.5505660260971714,5.337936292319604,-0.007352514206595516,0.267,0.999999999999882,2289746.83897573,0.46691265080677896,94,2026-10-07 21:16:35.368243,25.0,0.5187806114280656,0.1298646288087846,0.03930646019054202
0248,cdot_cos,P,T-P,95,19,19803,0.03830057105279249,-0.001561941604087017,0.5745342521693471,0.9999994218062879,1039.0,2.0266055618069685,0.5517947990152423,5.378231083829016,-0.041938588643499156,0.519,0.9999999999998809,-28.14683976857343,0.4718799330717528,95,2026-10-07 21:16:35.887244,25.0,0.4383735864984168,0.07862116322526404,0.1133966992543666
0248,cdot_cos,Q,P-Q,96,19,19933,-0.0058624250518990425,-0.005894359286230347,-0.044162996104691536,0.24897715927400893,1039.0,2.0493614423217763,0.5521006378733371,5.409460126540311,-0.01654502901996059,0.13,0.9999999999998728,83.02921277475582,0.47684709907940764,96,2026-10-07 21:16:36.017244,25.0,0.21549554232982357,0.31138356543044443,0.17504523472929087
0248,cdot_cos,R,Q-R,97,19,19962,0.13622840195278693,0.19090953856842618,0.14209082700468598,0.9721389929099546,1039.0,2.107565288818884,0.5532944156794696,5.44931876703004,-0.043136634318991195,0.029,0.9999999999998712,-22.275171445161813,0.4818142341984418,97,2026-10-07 21:16:36.046243,25.0,0.539857195264057,1.2166960491278969,2.0070291895554395
0248,cdot_cos,S,R-S,98,19,19991,-0.0013459768064647646,-0.0029255346382849054,-0.1375743787592517,0.031087772007194987,1039.0,2.1199298131711943,0.5533325811153366,5.477713830280261,-0.009319134651006613,0.029,0.9999999999998637,886.0766004571086,0.48678136975689534,98,2026-10-07 21:16:36.075244,25.0,0.026547385251352577,0.41066694589657,0.4263629087003545
0248,cdot_cos,T,S-T,99,19,20243,-0.17309919984210487,0.09553682409985104,-0.1717532230356401,0.013468646882825312,1039.0,2.131383971680885,0.5533491159352696,5.505754933141451,-0.008681570785638573,0.252,0.9999999999998572,38.558863534686346,0.49174857785437803,99,2026-10-07 21:16:36.327244,25.0,0.9291930401232308,0.14188838434622333,0.0454530099590904
0248,cdot_cos,P,T-P,100,20,20842,0.024657494015365246,0.0022677541971885167,0.1977566938574701,0.9929238032527484,958.0,2.191441558881691,0.5545677540005285,5.54567832367779,-0.04626114589931574,0.599,0.9999999999998559,-30.837355392877267,0.49671590253711906,100,2026-10-07 21:16:36.926244,25.0,0.44382027386460177,0.06647484943553138,0.10026308380768913
0248,cdot_cos,Q,P-Q,101,20,20951,-0.03785056303231342,-0.02895144738452994,-0.06250805704767867,0.17325935163214312,958.0,2.2110208413046517,0.554780332366842,5.5754742165185505,-0.015357918542570688,0.109,0.999999999999846,145.37334110080963,0.5016830638868649,101,2026-10-07 21:16:37.035244,25.0,0.13369401758700103,0.36451699713991675,0.17962644424734686
0248,cdot_cos,R,Q-R,102,20,21009,0.11053630278359894,0.20924420536374658,0.14838686581591237,0.9760996515623158,958.0,2.2709062642581928,0.5559775687514334,5.615099094573241,-0.04779611744469105,0.058,0.9999999999998436,-27.09423077982167,0.5066502083511197,102,2026-10-07 21:16:37.093244,25.0,0.5072869122078117,0.647647426412354,1.0325072923024317
0248,cdot_cos,S,R-S,103,20,21051,0.013951202409514874,-0.07502797863064456,-0.09658510037408406,0.08206405509718441,958.0,2.2861479427684848,0.5560781951137256,5.643578203246267,-0.012368125218246026,0.042,0.9999999999998354,352.0746593580745,0.5116173477050143,103,2026-10-07 21:16:37.135243,25.0,0.05701394599446157,0.3264615782460966,0.36289710738790504
0248,cdot_cos,T,S-T,104,20,21301,-0.13798609841360365,0.02821172208458671,-0.15193730082311852,0.021914844038745086,958.0,2.298329036830865,0.5561050661621049,5.671182070687175,-0.00994392121702368,0.25,0.9999999999998268,90.21620470495765,0.5165845618912417,104,2026-10-07 21:16:37.385243,25.0,0.783654118840674,0.1473638044504053,0.04872437624952042
0248,cdot_cos,P,T-P,105,21,21800,0.05351556259260496,-0.0025732693888475193,0.1915016610062086,0.9917359452044631,1019.0,2.3598298449936874,0.5573207446673686,5.710839175943054,-0.050984014343999705,0.499,0.9999999999998253,-33.75900202995955,0.5215518689002074,105,2026-10-07 21:16:37.884243,25.0,0.4471058021852114,0.08299036482257774,0.1232481125507466
0248,cdot_cos,Q,P-Q,106,21,21927,-0.002502727561390134,-0.0025134305792962833,-0.05601829015399509,0.1977435621868599,1019.0,2.3811534209237974,0.5575630588207756,5.740464067433808,-0.017989469901601135,0.127,0.9999999999998143,136.16433038880535,0.5265190392670915,106,2026-10-07 21:16:38.011244,25.0,0.15975670620965388,0.31337693649571424,0.1679021726780317
0248,cdot_cos,R,Q-R,107,21,21955,0.09310640952780067,0.3457250150814545,0.0956091370891908,0.9160791308360011,1019.0,2.439427586863599,0.5586852591941225,5.779086310821616,-0.049961517937117235,0.028,0.9999999999998119,-28.49049848394015,0.5314861725477156,107,2026-10-07 21:16:38.039244,25.0,0.5273275007446454,1.280609800805981,2.081220212135764
0248,cdot_cos,S,R-S,108,21,22009,-0.03396505598020263,0.4108527912454815,-0.1270714655080033,0.040048688572151006,1019.0,2.4528675697689324,0.558734305399151,5.806538283146722,-0.011693954761378508,0.054,0.999999999999802,780.2349468927426,0.536453316516881,108,2026-10-07 21:16:38.093244,25.0,0.03791445982847939,0.23056969209404815,0.24888857232099162
0248,cdot_cos,T,S-T,109,21,22239,-0.2728521060324756,0.1622675417056557,-0.23888705005227298,0.002542209491077798,1019.0,2.464329113609756,0.5587374187140558,5.833390969584979,-0.010023285510151855,0.23,0.9999999999997929,536.6207089003644,0.5414205298986242,109,2026-10-07 21:16:38.323244,25.0,0.846471450056996,0.16263487992064277,0.049832799307928916
0248,cdot_cos,P,T-P,110,22,22819,0.03456203132318251,0.0009782371819306189,0.30741413735565815,0.9995407026961163,1157.0,2.527679614532428,0.5599611451810291,5.872923139723566,-0.056210679216267684,0.58,0.9999999999997914,-37.74323343708677,0.5463878853484619,110,2026-10-07 21:16:38.903244,25.0,0.4396907641119497,0.07692865695431572,0.10922500159081384
0248,cdot_cos,Q,P-Q,111,22,22928,-0.004093284687637693,-0.002757563462740945,-0.0386553160108202,0.27560205366914453,1157.0,2.5535663556767623,0.5602984341888667,5.903111520073407,-0.023375965090318328,0.109,0.9999999999997797,97.34890068448522,0.5513550509533043,111,2026-10-07 21:16:39.012243,25.0,0.24545647005540244,0.40372338590424034,0.2374930380214147
0248,cdot_cos,R,Q-R,112,22,22987,0.12682769341307648,0.16098153109001026,0.13092097810071418,0.9634917074264145,1157.0,2.6156913126595525,0.5614771410162089,5.94211676501083,-0.05703784661977218,0.059,0.9999999999997771,-28.558315561262553,0.5563221965323333,112,2026-10-07 21:16:39.071244,25.0,0.5542344603313921,0.6424498179727279,1.0529653725896644
0248,cdot_cos,S,R-S,113,22,23046,-0.0018855134322891998,-0.005523184939747518,-0.1287132068453657,0.038500227756090646,1157.0,2.629375434197544,0.5615242267174725,5.96908565248939,-0.012747545848909487,0.059,0.9999999999997661,940.6316478745788,0.5612893427601641,113,2026-10-07 21:16:39.130244,25.0,0.030979863673019865,0.25064855729582364,0.23193426335579154
0248,cdot_cos,T,S-T,114,22,23277,-0.09916257010920634,0.08417523570842941,-0.09727705667691715,0.08077032198415272,1157.0,2.6452678424204596,0.5616230050576873,5.996494026587437,-0.014887438704504456,0.231,0.9999999999997553,-21.663583847859254,0.5662565635707947,114,2026-10-07 21:16:39.361243,25.0,0.8661145128987429,0.17152010573419416,0.06879830399530514
0248,cdot_cos,P,T-P,115,23,23976,0.042662577886223504,8.868688234933444e-06,0.14182514799542983,0.9719585312767333,1018.0,2.708617723046742,0.5628112798527053,6.03547988468674,-0.06019925929110147,0.699,0.9999999999997535,-38.132442745206156,0.5712239926777934,115,2026-10-07 21:16:40.060243,25.0,0.4710941500936189,0.062415147922108095,0.09062929989453823
0248,cdot_cos,Q,P-Q,116,23,24108,-0.006304734338159499,-0.006676978797835264,-0.048967312224383004,0.22720119226905522,1018.0,2.7325242192155668,0.5630889428784444,6.064654980494581,-0.023084503982263103,0.132,0.999999999999738,133.66833848348838,0.5761911704546688,116,2026-10-07 21:16:40.192243,25.0,0.20033227843178272,0.33188716919369143,0.18110981946079469
0248,cdot_cos,R,Q-R,117,23,24138,0.12889527969071687,0.19648393905337483,0.13520001402887638,0.9670736163696356,1018.0,2.7962359357138764,0.5642703611287581,6.103518650242341,-0.06247351115152229,0.03,0.9999999999997342,-33.34044243755348,0.5811583023345871,117,2026-10-07 21:16:40.222244,25.0,0.5323301866659753,1.2937693600284443,2.1237238832769885
0248,cdot_cos,S,R-S,118,23,24166,-0.0016002423442317434,-0.003811709942278322,-0.13049552203494863,0.03688428269401658,1018.0,2.8101503808172734,0.5643154061818278,6.130035875944987,-0.013835267511280551,0.028,0.9999999999997208,1079.768816453216,0.586125433817948,118,2026-10-07 21:16:40.250243,25.0,0.02973215760238285,0.46372041282334775,0.49694446797846464
0248,cdot_cos,T,S-T,119,23,24435,-0.23166769548243837,0.09453997611527294,-0.23006745313820662,0.003167354097330275,1018.0,2.822204278831984,0.5643192742740846,6.155997995707856,-0.012040798275040088,0.269,0.999999999999708,463.9158316668467,0.5910926793124359,119,2026-10-07 21:16:40.519244,25.0,0.8615411882481975,0.14546591530967784,0.044810029794462684
0248,cdot_cos,P,T-P,120,24,24994,0.05795728078294654,-0.00399395783815107,0.2896249762653849,0.9992836495201822,977.0,2.88841104325388,0.5655392439275373,6.195173577224082,-0.06701053527628298,0.559,0.9999999999997053,-45.058282266013,0.5960600660916424,120,2026-10-07 21:16:41.078244,25.0,0.4402930076911738,0.07916662497683884,0.1184378612198501
0248,cdot_cos,Q,P-Q,121,24,25084,-0.0004747568310356115,-0.0003081445182843596,-0.05843203761398215,0.1883448540412173,977.0,2.9107125655560897,0.5657690952118621,6.223461745954579,-0.022919300131729464,0.09,0.9999999999996879,191.82505450889795,0.6010272264014093,121,2026-10-07 21:16:41.168243,25.0,0.14605674018583023,0.48935230699940463,0.24779469224677345
0248,cdot_cos,R,Q-R,122,24,25143,0.15565679768207313,0.2159253182131676,0.15613155451310876,0.9802235507909726,977.0,2.976494458513773,0.5669648763829394,6.262333459231384,-0.06858663034733564,0.059,0.9999999999996846,-38.190374058546965,0.6059943721621247,122,2026-10-07 21:16:41.227243,25.0,0.5138446541610441,0.6699529600039897,1.1149473382658173
0248,cdot_cos,S,R-S,123,24,25202,-0.00012999384922341667,-0.0005707784147254357,-0.15578679153129654,0.01994422631512339,977.0,2.9897670148365605,0.5669891984300571,6.288216129197242,-0.014024097264498183,0.059,0.9999999999996695,2243.336377839747,0.6109615186343526,123,2026-10-07 21:16:41.286243,25.0,0.020432528471039116,0.215574469139393,0.22495858174216213
0248,cdot_cos,T,S-T,124,24,25433,-0.2932650985063073,0.12906610410850428,-0.29313510465708387,0.0006562071516086976,977.0,3.0019322458722213,0.5669899986712708,6.313735152824272,-0.012908870291333188,0.231,0.9999999999996539,1393.613518240897,0.6159287533326061,124,2026-10-07 21:16:41.517244,25.0,0.9172343311447974,0.1726652385359903,0.052663337816713444
0248,cdot_cos,P,T-P,125,25,25971,0.057192459508095816,-0.0004137158962892264,0.3504575580144031,0.9998433655164394,978.0,3.069538355040188,0.5682088941691255,6.352770358700994,-0.07264505718751597,0.538,0.9999999999996516,-49.00845642741371,0.6208961497602062,125,2026-10-07 21:16:42.055244,25.0,0.4394188798850618,0.08349747511654906,0.125661912951611
0248,cdot_cos,Q,P-Q,126,25,26102,-0.0037205073897408907,-0.004160200579873404,-0.06091296689783671,0.17904602206852524,978.0,3.091775529097628,0.5684270800072783,6.380580093416971,-0.024245235104025098,0.131,0.999999999999633,221.8284307233267,0.6258633335909212,126,2026-10-07 21:16:42.186244,25.0,0.1358422220957472,0.3397799721636373,0.16974942028580212
0248,cdot_cos,R,Q-R,127,25,26130,0.14174968190902035,0.22618974033224537,0.14547018929876124,0.9743381941489266,978.0,3.158560707747061,0.5696139429249675,6.4192251054147285,-0.0738187667649835,0.028,0.9999999999996289,-41.768540344555205,0.630830462775276,127,2026-10-07 21:16:42.214243,25.0,0.5109123144464526,1.4423617463960194,2.3851849517654604
0248,cdot_cos,S,R-S,128,25,26182,-6.578086963033076e-05,-0.00029837859156437867,-0.14181546277865067,0.028048068777091564,978.0,3.172547786895805,0.5696480971228519,6.444834494818398,-0.01565963753394605,0.052,0.9999999999996126,1702.8398508382027,0.6357976058102042,128,2026-10-07 21:16:42.266243,25.0,0.02438099909282452,0.25395590443516153,0.2689822913220038
0248,cdot_cos,T,S-T,129,25,26412,-0.2768646247023058,0.11856255505456077,-0.27679884383267545,0.000986883592023023,978.0,3.184972121808318,0.5696492988412035,6.469974300574239,-0.013968041085387913,0.23,0.9999999999995955,1407.6480119460102,0.6407648475570056,129,2026-10-07 21:16:42.496243,25.0,0.8859411317878382,0.17686508751403848,0.054018847445706966
0248,cdot_cos,P,T-P,130,26,26949,0.03765429885687445,-0.0007621404643152446,0.3145189235591802,0.9996154196212218,939.0,3.253905727152263,0.570866096898391,6.508876997327122,-0.07843551708383104,0.537,0.9999999999995931,-52.98124501238607,0.6457322639252031,130,2026-10-07 21:16:43.033243,25.0,0.4395882056364441,0.08847425912466304,0.12836798015632234
0248,cdot_cos,Q,P-Q,131,26,27082,-0.008639437694788596,-0.010652379902978225,-0.046293736551663044,0.23915033579289943,939.0,3.279993476108206,0.5711570801541506,6.537193793044122,-0.030116698683993817,0.133,0.9999999999995739,166.053604265656,0.6506994524573215,131,2026-10-07 21:16:43.166244,25.0,0.20101288113759394,0.3507706282289849,0.19614848839054896
0248,cdot_cos,R,Q-R,132,26,27112,0.11733846152652185,0.21864758283751856,0.12597789922131045,0.9588869454727635,939.0,3.347210714261173,0.5723232982196093,6.575496330156094,-0.0786525008232728,0.03,0.9999999999995695,-41.618118923744454,0.6556665819671041,132,2026-10-07 21:16:43.196243,25.0,0.5395112412895644,1.3772574713603345,2.2405746050988995
0248,cdot_cos,S,R-S,133,26,27141,-0.0019471594905267878,-0.006590031972806168,-0.11928562101704863,0.04823925733315345,939.0,3.362628924389826,0.572381946682914,6.601032878684716,-0.01826554330996732,0.029,0.9999999999995516,1029.6426216583084,0.6606337114893663,133,2026-10-07 21:16:43.225244,25.0,0.03666038066037859,0.4936715461200305,0.5316624182294164
0248,cdot_cos,T,S-T,134,26,27390,-0.1842352730754006,0.032664968856003083,-0.18228811358487382,0.010382438030259813,939.0,3.3758436639361347,0.5723945692073606,6.625948429442509,-0.0157218385403117,0.249,0.9999999999995334,201.52108085848045,0.6656009728289296,134,2026-10-07 21:16:43.474244,25.0,0.8506161091459208,0.1673783669513424,0.05307124315786625
0248,cdot_cos,P,T-P,135,27,27888,0.054686759239035515,-0.002928166892253039,0.23892203231443612,0.9974600071982619,959.0,3.4459833511315945,0.573606796646505,6.664711042082784,-0.08441771441285195,0.498,0.9999999999995308,-56.66913126552101,0.670568387464483,135,2026-10-07 21:16:43.972243,25.0,0.4431879284680044,0.09440699764647974,0.1408427453724093
0248,cdot_cos,Q,P-Q,136,27,28016,-0.0026721795689378697,-0.0029558631707632664,-0.05735893880797339,0.19248032643209526,959.0,3.4698730335920285,0.5738406194419322,6.6920765920092515,-0.029145009381744295,0.128,0.99999999999951,236.3871534857487,0.6755355768690864,136,2026-10-07 21:16:44.100243,25.0,0.15009717361657152,0.3649522235323194,0.18663814422214056
0248,cdot_cos,R,Q-R,137,27,28042,0.14737153823682758,0.22933261737690555,0.15004371780576545,0.9770471532762014,959.0,3.5394111203558682,0.575027013438171,6.730521166309396,-0.08591924901431842,0.026,0.9999999999995061,-47.85445628734294,0.68050270323606,137,2026-10-07 21:16:44.126244,25.0,0.5164452324051237,1.6126250983592183,2.674541798609222
0248,cdot_cos,S,R-S,138,27,28099,-0.0001492632300184907,-0.0007672728919196327,-0.14752080146684607,0.024410702410899855,959.0,3.553729538706708,0.5750566434914139,6.755388515888696,-0.017902753256622297,0.057,0.9999999999994861,2295.523912831225,0.6854698501135921,138,2026-10-07 21:16:44.183244,25.0,0.022388230953932813,0.23874908373144096,0.251200321944554
0248,cdot_cos,T,S-T,139,27,28329,-0.2857625312576386,0.11080267824100729,-0.2856132680276201,0.0007918616418691317,959.0,3.5666285159012525,0.5750576046551603,6.779831715973273,-0.016189858900847846,0.23,0.9999999999994661,1782.1046229022907,0.6904371083439842,139,2026-10-07 21:16:44.413243,25.0,0.8996041462494975,0.18361285204580602,0.05608250954149866
0248,cdot_cos,P,T-P,140,28,28847,0.04265457166067414,-0.002741652329542454,0.3284171029183128,0.9997282693774056,1038.0,3.6381914506477786,0.576270622494081,6.8185285825904725,-0.0908177681272411,0.518,0.9999999999994634,-61.52251585417318,0.6954045565036829,140,2026-10-07 21:16:44.931243,25.0,0.43966927899489877,0.09460848291559949,0.13815238368055227
0248,cdot_cos,Q,P-Q,141,28,28974,-0.0060058663632057115,-0.005292443519143119,-0.04866043802387986,0.22855104123181502,1038.0,3.6646429042018136,0.5765478058480364,6.846128689916523,-0.03401928752327153,0.127,0.9999999999994416,204.91302884336113,0.7003717489608748,141,2026-10-07 21:16:45.058244,25.0,0.18832305403119248,0.3830393515089782,0.20827916184279527
0248,cdot_cos,R,Q-R,142,28,28999,0.14515092367734464,0.18511861230744098,0.15115679004055035,0.9776629829114738,1038.0,3.735483445931059,0.5777329553926844,6.884485565062839,-0.09225285766005352,0.025,0.9999999999994373,-49.1360524076971,0.7053388737050839,142,2026-10-07 21:16:45.083244,25.0,0.5319325099058385,1.709456707462369,2.833621669169819
0248,cdot_cos,S,R-S,143,28,29057,-0.0009152033282690499,-0.002969805252951168,-0.1460661270056137,0.02529191676470899,1038.0,3.750115739574932,0.5777636031265063,6.909050666715241,-0.019274776909969222,0.058,0.9999999999994155,2381.1901125938202,0.710306021809245,143,2026-10-07 21:16:45.141243,25.0,0.022681722138923766,0.24721831316930581,0.2522809248943616
0248,cdot_cos,T,S-T,144,28,29286,-0.16559694687345125,0.10718045099905811,-0.1646817435451822,0.01603141732490057,1038.0,3.7641607702586986,0.5777830290471898,6.933399215496399,-0.01857183730101054,0.229,0.9999999999993942,36.18565217122819,0.7152732880664421,144,2026-10-07 21:16:45.370244,25.0,0.9628575884864314,0.18896841386388633,0.06133201171950437
0248,cdot_cos,P,T-P,145,29,29885,0.03895603053780624,-0.0020876746792925847,0.2045529774112575,0.994022898165092,959.0,3.836663273124592,0.5789870547272491,6.971930330195431,-0.09689970792924293,0.599,0.9999999999993912,-65.05498339900497,0.720240815530759,145,2026-10-07 21:16:45.969243,25.0,0.4455973245050232,0.08305148369034895,0.12103923683788555
0248,cdot_cos,Q,P-Q,146,29,30013,-0.009448347847918087,-0.0095829729196437,-0.048404378385724325,0.22968168390375723,959.0,3.8636564477197366,0.579265127213853,6.999290355450527,-0.03654206793891397,0.128,0.9999999999993664,217.05721672599788,0.7252080121787975,146,2026-10-07 21:16:46.097243,25.0,0.19171789644534568,0.3858184909888585,0.21088417652456726
0248,cdot_cos,R,Q-R,147,29,30039,0.13317533070630982,0.2052648622464002,0.14262367855422792,0.972497536607165,959.0,3.9354328068177398,0.5804419575042583,7.03748796360855,-0.09833783541698685,0.026,0.9999999999993613,-52.51034748331627,0.7301751362298963,147,2026-10-07 21:16:46.123244,25.0,0.5334431560935631,1.676515685385473,2.760629196077045
0248,cdot_cos,S,R-S,148,29,30096,-0.0010039833659217499,-0.005179157760422822,-0.13417931407223158,0.03374867376366878,959.0,3.950835263359781,0.5804827808163053,7.061881052751983,-0.021337581532812337,0.057,0.9999999999993376,1886.1834090159427,0.7351422838053675,148,2026-10-07 21:16:46.180243,25.0,0.02708789605236312,0.2588556481439696,0.2702185358252881
0248,cdot_cos,T,S-T,149,29,30325,-0.1745070173067771,0.05201211003756669,-0.17350303394085534,0.012899594970321556,959.0,3.9649423507061523,0.5804983842256464,7.085889062433855,-0.019615985517713937,0.229,0.999999999999313,110.3346055640985,0.7401095586462474,149,2026-10-07 21:16:46.409244,25.0,0.9159761503588257,0.1922809783763436,0.06160300151253763
0248,cdot_cos,P,T-P,150,30,30844,0.06289792930566929,-0.0003837595268898574,0.23740494661244638,0.9973620813670514,1017.0,4.0388999514561466,0.5817043083799749,7.12439702526623,-0.1038990285150132,0.519,0.9999999999993101,-69.89083243318036,0.7450770529781322,150,2026-10-07 21:16:46.928244,25.0,0.44432391067973565,0.09375195600796245,0.14250019412330298
0248,cdot_cos,Q,P-Q,151,30,30974,-0.0027069638870877532,-0.002832621889642581,-0.06560489319275704,0.1624484178292178,1017.0,4.062256881042417,0.5819006349312734,7.150518283349815,-0.03320745842825229,0.13,0.9999999999992819,360.0713689472819,0.7500442551031223,151,2026-10-07 21:16:47.058244,25.0,0.11898165893000727,0.34763102409477015,0.17966868912515985
0248,cdot_cos,R,Q-R,152,30,31004,0.07521216654203071,0.36084238512386013,0.07791913042911847,0.8752260243422928,1017.0,4.129284017720787,0.5829579387689163,7.187191777262533,-0.09628925448438594,0.03,0.9999999999992747,-59.66288384686516,0.7550113811624776,152,2026-10-07 21:16:47.088243,25.0,0.5193755278558845,1.5027984099174052,2.2342378892789823
0248,cdot_cos,S,R-S,153,30,31033,0.007656763659196303,0.39924524186191535,-0.0675554028828344,0.1559225202706426,1017.0,4.152424785637462,0.5831462189189422,7.213123984929705,-0.033604964363094514,0.029,0.9999999999992513,332.93095481739016,0.7599785071341774,153,2026-10-07 21:16:47.117243,25.0,0.15484537007107493,0.632631542097373,0.7979575143680984
0248,cdot_cos,T,S-T,154,30,31283,-0.3782004615081446,0.12330701401550799,-0.38585722516734094,6.465175654602261e-05,1017.0,4.165976647162434,0.5831462969824498,7.236658853513233,-0.019767172830321412,0.25,0.9999999999992248,177263.25613075885,0.764945807630664,154,2026-10-07 21:16:47.367244,25.0,0.49656594659147085,0.17779053883746165,0.05420744609989114
0248,cdot_cos,P,T-P,155,31,31861,0.04879329984161322,2.8949436478427396e-05,0.42699376134975786,0.9999768812632096,1037.0,4.2413200550561925,0.5843532141515932,7.2751425749817935,-0.1109803185765255,0.578,0.9999999999992217,-75.57531542196723,0.7699133725555982,155,2026-10-07 21:16:47.945244,25.0,0.4396018797413414,0.08833335000315548,0.1303519167712077
0248,cdot_cos,Q,P-Q,156,31,31995,-0.003890138312935403,-0.004039224819445271,-0.05268343815454862,0.21130352337101432,1037.0,4.268089999766082,0.5846081169765847,7.301757043878522,-0.03990380127615417,0.134,0.9999999999991921,278.8376994361149,0.7748805818182702,156,2026-10-07 21:16:48.079243,25.0,0.168436466511868,0.3761785208485896,0.19977570679022158
0248,cdot_cos,R,Q-R,157,31,32025,0.1355272961594176,0.2031553657841564,0.13941743447235302,0.9702705225586673,1037.0,4.3421358986436145,0.5857780050786681,7.339781421773568,-0.11159024576625776,0.03,0.999999999999186,-61.27632579768969,0.7798477067452445,157,2026-10-07 21:16:48.109244,25.0,0.5260243356367548,1.4975266550675492,2.4681966292510777
0248,cdot_cos,S,R-S,158,31,32051,-0.0008260519152372737,-0.0018524225792385998,-0.13635334807465488,0.03202052742495246,1037.0,4.357941599070135,0.5858165969027453,7.363604499932774,-0.024067764977672317,0.026,0.9999999999991575,2267.9021497743893,0.7848148290267973,158,2026-10-07 21:16:48.135243,25.0,0.026344329650022143,0.5728636563973557,0.6079115548661781
0248,cdot_cos,T,S-T,159,31,32321,-0.22784165847801474,0.1257913452857126,-0.22701560656277747,0.0034176105966308265,1037.0,4.371924808776277,0.5858207158178738,7.386922216685484,-0.021365453165981464,0.27,0.9999999999991291,656.0736814042588,0.7897821564372306,159,2026-10-07 21:16:48.405244,25.0,0.8811913898313901,0.16754296493131585,0.051789665578303196
0248,cdot_cos,P,T-P,160,32,32898,0.04581770675949912,0.00014185796541033922,0.2736593652375139,0.99893262410463,980.0,4.448414800133046,0.5870241159190066,7.425337178344356,-0.11798179846651675,0.577,0.9999999999991245,-80.2861369295079,0.7947497475344593,160,2026-10-07 21:16:48.982244,25.0,0.44091246988417304,0.08985751991865237,0.13256497635488512
0248,cdot_cos,Q,P-Q,161,32,33030,-0.006838435087766427,-0.007766476316969266,-0.05265614184726555,0.21141727198092292,980.0,4.475620386762402,0.5872786745969615,7.451735482953502,-0.04244875904603431,0.132,0.9999999999990915,296.7215261617288,0.7997169591645081,161,2026-10-07 21:16:49.114244,25.0,0.16874048320198462,0.3866952619621414,0.2061029290102737
0248,cdot_cos,R,Q-R,162,32,33060,0.12574310623563312,0.20818647232050388,0.13258154132339955,0.9649242141491161,980.0,4.550502349291051,0.5884399050408963,7.4896217868462855,-0.11807508834851857,0.03,0.9999999999990852,-65.12603049419454,0.8046840828051098,162,2026-10-07 21:16:49.144243,25.0,0.5270322573637958,1.5236461587009607,2.49606541762164
0248,cdot_cos,S,R-S,163,32,33089,-0.00175764981749448,-0.004878082835976188,-0.1275007560531276,0.03963811957900088,980.0,4.5670391562844594,0.5884875862643023,7.513311082040677,-0.026338690536384154,0.029,0.9999999999990536,1923.9522658833139,0.8096512062876208,163,2026-10-07 21:16:49.173243,25.0,0.030716598237725573,0.5349324616209784,0.5702347239106353
0248,cdot_cos,T,S-T,164,32,33339,-0.19516462871970433,0.06559245501634461,-0.19340697890220984,0.007882671759455154,980.0,4.581528432065068,0.5884970682374119,7.536444225780493,-0.023155894182256283,0.25,0.9999999999990219,335.66814811099465,0.8146185272696851,164,2026-10-07 21:16:49.423244,25.0,0.8715772239904394,0.18427531057712798,0.057957103122433296
0248,cdot_cos,P,T-P,165,33,33878,0.06191093267788298,-0.0007399274239994164,0.2570755613975873,0.9983851370767584,978.0,4.659176811573023,0.5896974805281291,7.574805957532654,-0.12523202906501124,0.539,0.9999999999990175,-85.034230049217,0.819586111932933,165,2026-10-07 21:16:49.962244,25.0,0.44259680450041883,0.094811719106093,0.14406007329861903
0248,cdot_cos,Q,P-Q,166,33,34008,-0.003401320872874912,-0.0037580292814354214,-0.0653122535507579,0.16344628354167978,978.0,4.683735465261436,0.5898938994811773,7.600256204431124,-0.04004068059968621,0.13,0.9999999999989813,433.7226481622051,0.8245533260886315,166,2026-10-07 21:16:50.092243,25.0,0.11912047651660664,0.38957056144631486,0.18891272068009685
0248,cdot_cos,R,Q-R,167,33,34037,0.14465515026025638,0.2295176657868125,0.1480564711331313,0.975906196451363,978.0,4.760465157549065,0.591066080511457,7.6382621294915305,-0.12634622553655903,0.029,0.9999999999989745,-73.62817065575419,0.8295204477625046,167,2026-10-07 21:16:50.121243,25.0,0.505055154264522,1.5973398330074984,2.645851458194113
0248,cdot_cos,S,R-S,168,33,34088,-1.9789617776437238e-05,-8.748177076652199e-05,-0.14467493987803282,0.026163617673254154,978.0,4.776381175575871,0.5910974919886696,7.661504171406489,-0.026464435097103525,0.051,0.9999999999989406,3179.7864762507147,0.8344875909590471,168,2026-10-07 21:16:50.172243,25.0,0.022955690968840915,0.29524226076074583,0.3120787848393264
0248,cdot_cos,T,S-T,169,33,34317,-0.38415924059260176,0.08553869703570402,-0.3841394509748253,6.748847164478782e-05,978.0,4.790579868146661,0.5910975730129169,7.684273490759909,-0.023683493751061,0.229,0.9999999999989052,34322.33483578649,0.8394549026135824,169,2026-10-07 21:16:50.401243,25.0,0.8892106880520333,0.20330522101907111,0.062003024326595754
0248,cdot_cos,P,T-P,170,34,34856,0.04637920968647079,0.0002856674280328963,0.43053845027907256,0.999978841787192,999.0,4.8694949668026055,0.5922975663933271,7.722620601415399,-0.13279089007265452,0.539,0.9999999999989011,-90.92333183062686,0.8444225133321848,170,2026-10-07 21:16:50.940243,25.0,0.4397063312428085,0.09955087410244903,0.14641020158802254
0248,cdot_cos,Q,P-Q,171,34,34989,-0.004937602813640187,-0.005469526648761962,-0.05131681250011098,0.21705353182552695,999.0,4.897895710429101,0.5925578899009496,7.748705358627716,-0.04831137986117558,0.133,0.9999999999988641,324.5174090615827,0.8493897347682965,171,2026-10-07 21:16:51.073244,25.0,0.17400936009057225,0.3965111833259989,0.21353942576312718
0248,cdot_cos,R,Q-R,172,34,35021,0.12607746963084285,0.20857100395515843,0.13101507244448304,0.9635743625114458,999.0,4.974966941567321,0.5937129252860229,7.786477558422889,-0.1324004096312118,0.032,0.9999999999988569,-72.80212438227373,0.8543568582916444,172,2026-10-07 21:16:51.105243,25.0,0.5298763757559287,1.4702202791332801,2.4084759730693683
0248,cdot_cos,S,R-S,173,34,35046,-0.0015505087653981374,-0.003959641255380745,-0.127627978396241,0.03951722256973192,999.0,4.991989808293631,0.5937602725041913,7.809702606760983,-0.029521153497822257,0.025,0.9999999999988206,2172.8680187206005,0.8593239755995242,173,2026-10-07 21:16:51.130244,25.0,0.03065579764671093,0.6398052859874959,0.6809146690524059
0248,cdot_cos,T,S-T,174,34,35315,-0.19165625557625157,0.07494125314781395,-0.19010574681085343,0.008555033056211653,999.0,5.006957205866696,0.5937705224135467,7.832376667869079,-0.02603965149078161,0.269,0.9999999999987833,339.6617361509699,0.8642913374744244,174,2026-10-07 21:16:51.399244,25.0,0.8748524607335537,0.17637367031519513,0.05564088317124403
0248,cdot_cos,P,T-P,175,35,35855,0.05016312996987172,-0.0007558409071020276,0.24181938554612328,0.9976370640128069,958.0,5.086878842923206,0.5949652435097702,7.8706560670381185,-0.14023258108831202,0.54,0.999999999998779,-95.58124482650325,0.8692589766621226,175,2026-10-07 21:16:51.939244,25.0,0.44294442276384005,0.09940158845667453,0.14800303158613026
0248,cdot_cos,Q,P-Q,176,35,35985,-0.0062894400511519085,-0.00719090173323052,-0.05645257002102363,0.19602684730962922,958.0,5.1143109213999045,0.5951998639188172,7.89622453634605,-0.048635958996363894,0.13,0.9999999999987382,390.40347113880586,0.874226199598464,176,2026-10-07 21:16:52.069243,25.0,0.15208576067958568,0.40753408522492285,0.21101598828229348
0248,cdot_cos,R,Q-R,177,35,36014,0.13105879921222324,0.21941214785712715,0.13734823926337514,0.9687414852937101,958.0,5.192837705081686,0.5963586897517075,7.934042441589423,-0.14054128515441272,0.029,0.9999999999987312,-79.30900705658507,0.8791933189187072,177,2026-10-07 21:16:52.098243,25.0,0.5199938579495612,1.6468124899535752,2.7078201269579925
0248,cdot_cos,S,R-S,178,35,36044,-0.0012461713619595061,-0.003584704178033111,-0.13230497057418275,0.03531055632143832,958.0,5.209826045817212,0.5964009086516259,7.956986679579643,-0.030685169139451043,0.03,0.9999999999986917,2602.0601253772343,0.8841604400796542,178,2026-10-07 21:16:52.128243,25.0,0.027872781858465697,0.5294552533440466,0.5662780245175192
0248,cdot_cos,T,S-T,179,35,36294,-0.24103621284698287,0.06465949912415524,-0.23979004148502336,0.002485603641102391,958.0,5.224605020282329,0.5964038804981032,7.979346209025804,-0.026775960397573302,0.25,0.9999999999986516,1315.414094123178,0.8891277942253,179,2026-10-07 21:16:52.378243,25.0,0.8641603327211467,0.19190379423172033,0.05911589786046889
0248,cdot_cos,P,T-P,180,36,36813,0.053330399755627624,-0.0027530507923232564,0.2943666126026105,0.9993636754602481,978.0,5.305777942933072,0.5975981679379613,8.017627025793004,-0.14827535193775104,0.519,0.9999999999986467,-101.73379329403176,0.8940954388680645,180,2026-10-07 21:16:52.897243,25.0,0.4406883599048256,0.10499276087007885,0.15640254846000565
0248,cdot_cos,Q,P-Q,181,36,36941,-0.0031577749631245956,-0.0033998501159532217,-0.05648817471875222,0.19588660246912548,978.0,5.333587506065471,0.597832126638764,8.043015287294645,-0.05131460365108863,0.128,0.9999999999986046,414.4353168059435,0.899062664350766,181,2026-10-07 21:16:53.025243,25.0,0.1511420480061034,0.39359223151483325,0.21726221197186646
0248,cdot_cos,R,Q-R,182,36,36968,0.07255114390160616,0.35478245431376926,0.07570891886473076,0.8690656904125847,978.0,5.406537554200869,0.5988695636020785,8.079198798065034,-0.13576792496663953,0.027,0.9999999999985931,-81.40573769968987,0.9040297803843707,182,2026-10-07 21:16:53.052243,25.0,0.5368471955193254,1.6554387706052431,2.7018536346443853
0248,cdot_cos,S,R-S,183,36,37023,-0.07570906323394128,0.41004946521330654,-0.14826020713554744,0.02397433080274263,978.0,5.422981199678154,0.5988981701710204,8.101750959699677,-0.03085740623348274,0.055,0.9999999999985502,3667.3576249672915,0.9089969282947452,183,2026-10-07 21:16:53.107244,25.0,0.03337831294138485,0.28436732642828394,0.29897537231426763
0248,cdot_cos,T,S-T,184,36,37252,-0.37281310867834766,0.08486440662199882,-0.2971040454444064,0.0005942588425827198,978.0,5.437817960107981,0.5988988792419654,8.123866356080377,-0.027922402653901498,0.229,0.9999999999985071,4139.22415019815,0.9139642699851441,184,2026-10-07 21:16:53.336244,25.0,0.90022291838561,0.21212401699279276,0.06478934685513761
0248,cdot_cos,P,T-P,185,37,37791,0.05306071550317934,-0.004238091520835936,0.42587382418152697,0.9999762248438083,939.0,5.520133999460853,0.600091464413528,8.162133206696469,-0.15614798159410176,0.539,0.9999999999985024,-107.51901163770867,0.918931963095802,185,2026-10-07 21:16:53.875243,25.0,0.43991230965598505,0.10278788712423088,0.15271992458788974
0248,cdot_cos,Q,P-Q,186,37,37881,-0.002243427565961185,-0.001535939940792653,-0.05530414306914053,0.20059117940625637,939.0,5.5486233024279015,0.600330549862282,8.187424351198384,-0.05457786433815913,0.09,0.9999999999984569,424.82768309530707,0.9238991494114572,186,2026-10-07 21:16:53.965244,25.0,0.15551500754135913,0.6096686172295258,0.3165478107449814
0248,cdot_cos,R,Q-R,187,37,37941,0.1475303565534892,0.22510730889432326,0.1497737841194504,0.9768953266677328,939.0,5.629874350562168,0.6014942302935653,8.225317167115659,-0.15704455191784966,0.06,0.999999999998451,-88.05397497892709,0.9288663025277017,187,2026-10-07 21:16:54.025243,25.0,0.5207584825878075,0.8161257276158759,1.3541841355711053
0248,cdot_cos,S,R-S,188,37,38000,-0.0002769707644205689,-0.001633821214332311,-0.14780732731790977,0.024240693271300753,939.0,5.646558389741807,0.6015230913578754,8.247676400680083,-0.032529165496214194,0.059,0.9999999999984053,4314.303349445226,0.9338334555016926,188,2026-10-07 21:16:54.084243,25.0,0.021757264329569155,0.27116164976697,0.28278032507862355
0248,cdot_cos,T,S-T,189,37,38229,-0.21518724601192776,0.06736357669750996,-0.2149102752475072,0.004619875780551956,939.0,5.66187142523467,0.6015285917200206,8.269658243638498,-0.02994067416466735,0.229,0.9999999999983589,470.60380084398753,0.9388008078690898,189,2026-10-07 21:16:54.313244,25.0,0.9171777291889345,0.21533911304340017,0.06686915062385881
0248,cdot_cos,P,T-P,190,38,38730,0.04053127032485284,-0.0015206497681223867,0.2557185163367806,0.9983295041844328,938.0,5.745183703515684,0.6027165861221482,8.307882292461581,-0.16414985580520003,0.501,0.9999999999983548,-112.97122393857875,0.9437684851605354,190,2026-10-07 21:16:54.814244,25.0,0.44148926190455257,0.11414596040595444,0.16629197261679365
0248,cdot_cos,Q,P-Q,191,38,38860,-0.0072356440783807865,-0.008591182881661844,-0.04776691440323363,0.23251345392242825,938.0,5.776245677561437,0.602993099809495,8.333538301345495,-0.06180025202091807,0.13,0.9999999999983081,370.14299279842646,0.9487357222451387,191,2026-10-07 21:16:54.944243,25.0,0.1908751552047775,0.43297004777566295,0.2389382618904056
0248,cdot_cos,R,Q-R,192,38,38889,0.12527837426108773,0.22099596224129917,0.13251401833946852,0.9648670356006601,938.0,5.857755915937356,0.60413985113844,8.371215276480523,-0.16359307528881872,0.029,0.9999999999983008,-88.76625707645402,0.9537028382391317,192,2026-10-07 21:16:54.973243,25.0,0.5367451605575523,1.7158875628848616,2.8106978750317118
0248,cdot_cos,S,R-S,193,38,38919,-0.0015981015549550739,-0.005074197183669695,-0.1268764758160428,0.04023651778980413,938.0,5.875767156208759,0.6041876477545106,8.393650998793554,-0.03645673292613858,0.03,0.9999999999982532,2659.9444231566895,0.9586699563009434,193,2026-10-07 21:16:55.003244,25.0,0.030582683460212437,0.5548485944854391,0.600374675713411
0248,cdot_cos,T,S-T,194,38,39169,-0.2734716091354904,0.055472017533786715,-0.2718735075805353,0.0011160558531826382,938.0,5.891046831606483,0.6041889734793657,8.415386563449937,-0.031015461104201076,0.25,0.999999999998205,4104.374901727218,0.963637346043286,194,2026-10-07 21:16:55.253243,25.0,0.8390899234779727,0.19956882743475468,0.06111870159089605
0248,cdot_cos,P,T-P,195,39,39668,0.04889193443961401,-0.0011114897578106931,0.32236354357510444,0.9996838850846356,999.0,5.975551569926136,0.6053758468620002,8.453621772902439,-0.1728066370728754,0.499,0.9999999999982008,-119.46613517774402,0.9686050490701061,195,2026-10-07 21:16:55.752243,25.0,0.4402030102509431,0.11440787086781269,0.1693481729852772
0248,cdot_cos,Q,P-Q,196,39,39799,-0.004917757851438281,-0.005289145879419887,-0.05380969229105229,0.20664928486058873,999.0,6.00522588673256,0.6056210365400257,8.478703042328483,-0.06125264588644521,0.131,0.9999999999981511,454.9701769044354,0.9735722926382291,196,2026-10-07 21:16:55.883244,25.0,0.1618296598932257,0.430450524328205,0.2265215023391125
0248,cdot_cos,R,Q-R,197,39,39828,0.13778541978789532,0.21255377771815775,0.1427031776393336,0.9725506439358377,999.0,6.088329607300126,0.6067742536424775,8.516491103396174,-0.17297681969098067,0.029,0.9999999999981438,-96.88043436661536,0.9785394075963065,197,2026-10-07 21:16:55.912243,25.0,0.5241952676230945,1.7355619249733683,2.86564553681262
0248,cdot_cos,S,R-S,198,39,39855,-0.0006904810711719898,-0.001693399158123722,-0.1384759008590673,0.030416023778671232,999.0,6.105888478381015,0.6068103008027271,8.538586411841356,-0.036851073063815805,0.027,0.9999999999980933,3776.3237293722914,0.9835065208152861,198,2026-10-07 21:16:55.939244,25.0,0.02487374261856313,0.6132857134467528,0.6503285585514587
0248,cdot_cos,T,S-T,199,39,40107,-0.24409643059635472,0.11943748821550318,-0.24340594952518274,0.002271255363672283,999.0,6.12144703582625,0.606812992505199,8.560159294264201,-0.03274158709346099,0.252,0.9999999999980418,1526.7237048803784,0.9884739258770606,199,2026-10-07 21:16:56.191243,25.0,0.8820445362055127,0.2005840051608225,0.061740307322362166
0248,cdot_cos,P,T-P,200,40,40667,0.031063788558856185,5.274065072360509e-05,0.2751602191552109,0.9989718910311249,978.0,6.2069828169820696,0.60799625969509,8.598374378325333,-0.1812971823697623,0.56,0.9999999999980382,-125.54695722611513,0.9934417371379644,200,2026-10-07 21:16:56.751244,25.0,0.44069433002936304,0.1080625381765367,0.15274246634967728
0248,cdot_cos,Q,P-Q,201,40,40776,-0.005939664125355638,-0.005006110236156733,-0.037003452684211825,0.28392265667609373,978.0,6.242477078583971,0.6083323310452924,8.62460860129723,-0.07594718397531318,0.109,0.9999999999979882,313.47509488981063,0.9984089565724248,201,2026-10-07 21:16:56.860243,25.0,0.24978663517293714,0.5422693791542161,0.32563542754038377
0248,cdot_cos,R,Q-R,202,40,40836,0.11359495684206734,0.2107495284491882,0.11953462096742298,0.952045743846742,978.0,6.325197541637689,0.6094584900978833,8.662042005718439,-0.17849396902007472,0.06,0.9999999999979797,-91.05888267632605,1.0033761119860856,202,2026-10-07 21:16:56.920243,25.0,0.5629799839397878,0.851765290721566,1.3786743842286213
0248,cdot_cos,S,R-S,203,40,40895,-0.0005761233171663355,-0.01512386589117673,-0.11417108015923368,0.05446065406310077,978.0,6.344688913470559,0.6095228755660492,8.684373595152406,-0.04239798592364798,0.059,0.999999999997926,2113.7686340303208,1.0083432671359123,203,2026-10-07 21:16:56.979244,25.0,0.04035809030560563,0.3279441411764754,0.3303622344554346
0248,cdot_cos,T,S-T,204,40,41124,-0.11775672747627053,0.03131827757614987,-0.1171806041591042,0.050713663607774497,978.0,6.363894950296513,0.6095828277684828,8.706593698559557,-0.041902607216976306,0.229,0.9999999999978736,8.262894215109599,1.013310654083707,204,2026-10-07 21:16:57.208243,25.0,0.9882474617897387,0.22922214004615765,0.08386915644521159
0248,cdot_cos,P,T-P,205,41,41645,0.0556148359905797,-0.0007954498046192196,0.17337156346685023,0.9870584869763862,978.0,6.4496726536116995,0.6107490381887432,8.744605056547591,-0.18848694923705198,0.521,0.9999999999978676,-125.69287623699536,1.0182784459100622,205,2026-10-07 21:16:57.729243,25.0,0.45946633242968454,0.11022065535640709,0.16464050540342945
0248,cdot_cos,Q,P-Q,206,41,41774,-0.003070682831384816,-0.0033282459870788536,-0.058685518821964516,0.18737801815951202,978.0,6.478744873177889,0.6109702828841481,8.769083326497109,-0.06444227083237677,0.129,0.9999999999978105,560.6673560133248,1.0232456971783288,206,2026-10-07 21:16:57.858243,25.0,0.14589090823891876,0.3985885306792984,0.22536604314875533
0248,cdot_cos,R,Q-R,207,41,41801,0.05555390921151385,0.3894155291648013,0.05862459204289866,0.8123899421906685,978.0,6.5525084945269585,0.6119289744734038,8.804134980564934,-0.16465880879050823,0.027,0.9999999999977928,-104.53470029495226,1.0282128064989329,207,2026-10-07 21:16:57.885243,25.0,0.5440949531819013,1.8106858287764027,2.731985975891465
0248,cdot_cos,S,R-S,208,41,41832,-0.026253729699393213,0.4269855833164593,-0.08180763891090706,0.1145392093523289,978.0,6.576521907931815,0.612064071342549,8.82732375661053,-0.05399926968747939,0.031,0.9999999999977398,819.1125360873243,1.0331799223547564,208,2026-10-07 21:16:57.916243,25.0,0.1288278271689641,0.64204494748661,0.7746262388663286
0248,cdot_cos,T,S-T,209,41,42084,-0.4239213834815361,0.09418249808699239,-0.39766765378214286,4.812352239857377e-05,978.0,6.592315281271128,0.6120641280997305,8.848518644793065,-0.03562244630593675,0.252,0.9999999999976813,323779.70315942325,1.038147353348388,209,2026-10-07 21:16:58.168243,25.0,0.5969764367523358,0.20540998505987879,0.06267211642584775
0248,cdot_cos,P,T-P,210,42,42623,0.04375934275846247,-0.0035013132682744155,0.46768072623999857,0.9999916397858591,939.0,6.680048540401994,0.6132428658782203,8.88674381738211,-0.19921758794600392,0.539,0.9999999999976763,-138.78840962378524,1.0431152002840105,210,2026-10-07 21:16:58.707244,25.0,0.43990862411083226,0.11148442187397367,0.16277042510364614
0248,cdot_cos,Q,P-Q,211,42,42713,-0.004686129435253746,-0.0032110407948780445,-0.04844547219371622,0.2294999682443253,939.0,6.712495488051272,0.6135132018853703,8.911804954705467,-0.07432585099750058,0.09,0.999999999997617,461.98705923481447,1.0480823995793245,211,2026-10-07 21:16:58.797244,25.0,0.18631303489574927,0.6604649862301286,0.3605216405475373
0248,cdot_cos,R,Q-R,212,42,42772,0.14264378937110106,0.21476673276507385,0.1473299188063548,0.9754753933895856,939.0,6.798932237923417,0.6146614659677437,8.949617020932777,-0.19953651521603882,0.059,0.9999999999976094,-109.04343882265215,1.0530495548809828,212,2026-10-07 21:16:58.856243,25.0,0.5339209300600641,0.8848349480777972,1.4650296588499117
0248,cdot_cos,S,R-S,213,42,42831,-0.0007367478599849339,-0.004390218781288029,-0.14338053723108599,0.02700088759054636,939.0,6.816906011924452,0.6146932315137363,8.971163388936091,-0.041811258326281006,0.059,0.9999999999975475,4965.293432277035,1.0580167113049206,213,2026-10-07 21:16:58.915244,25.0,0.022998748517293062,0.29212479600274865,0.30464023730568274
0248,cdot_cos,T,S-T,214,42,43062,-0.19854545579754607,0.05978714798841728,-0.19780870793756114,0.007067066166352661,939.0,6.833402963851741,0.6147015454944504,8.992319433050683,-0.03847266722514621,0.231,0.9999999999974848,401.56348877157313,1.0629841243724754,214,2026-10-07 21:16:59.146244,25.0,0.9168803825841577,0.22743314830601472,0.07141537630861065
0248,cdot_cos,P,T-P,215,43,43562,0.036543915227701465,0.0012234674742359834,0.23508937102524752,0.9972053066200662,899.0,6.921980126441831,0.6158740246413189,9.030497140395571,-0.2079238426478948,0.5,0.9999999999974797,-144.52382873958132,1.0679519454085495,215,2026-10-07 21:16:59.646244,25.0,0.442653710840695,0.11859407843026304,0.17715432518017948
0248,cdot_cos,Q,P-Q,216,43,43696,-0.021223447846263347,-0.02175110496477929,-0.05776736307396481,0.1908982563748504,899.0,6.951997042282004,0.6160983231118857,9.054770916688193,-0.07105284358139219,0.134,0.9999999999974156,610.2181558377064,1.0729192146453532,216,2026-10-07 21:16:59.780244,25.0,0.14568233261232127,0.43445855922992016,0.22400683462815893
0248,cdot_cos,R,Q-R,217,43,43726,0.1073438405199334,0.23143948043926288,0.12856728836619674,0.9613645045547876,899.0,7.038415020315449,0.6172271390276233,9.09233540744149,-0.20604639395974994,0.03,0.9999999999974056,-119.58863132272153,1.077886325731452,217,2026-10-07 21:16:59.810244,25.0,0.5193584672128663,1.7853590678989395,2.8805992677815104
0248,cdot_cos,S,R-S,218,43,43752,-0.001718892678391907,-0.00698641158133825,-0.10906273319832531,0.06142370395187077,899.0,7.0591185863559405,0.6172992187577263,9.114325630756184,-0.04973794506444277,0.026,0.9999999999973427,2168.5493088260455,1.0828534315279288,218,2026-10-07 21:16:59.836244,25.0,0.04316868790101667,0.7269790692449639,0.7962910015573486
0248,cdot_cos,T,S-T,219,43,44019,-0.1761237746511386,0.010387451783053649,-0.1744048819727467,0.01261564028328241,899.0,7.0762179319161875,0.6173140223704703,9.135425177397389,-0.04118877321292227,0.267,0.9999999999972781,577.5057750683427,1.0878209133050956,219,2026-10-07 21:17:00.103244,25.0,0.8125638929608268,0.19990321336873074,0.06404249273500771
0248,cdot_cos,P,T-P,220,44,44461,0.06807884777752529,0.0016129514610846675,0.2442026224286639,0.9977734335967686,958.0,7.165866902294843,0.6184841516338466,9.173614612482703,-0.21732229531208402,0.442,0.9999999999972721,-150.5248416665853,1.0927886737517074,220,2026-10-07 21:17:00.545243,25.0,0.4446483744275529,0.13267442299636448,0.20282572483858632
0248,cdot_cos,Q,P-Q,221,44,44570,-8.841262224429231e-05,-7.620670716813688e-05,-0.06816726039976959,0.15391992458091178,958.0,7.193502121844974,0.6186645377778826,9.197122174294059,-0.06753129584392373,0.109,0.9999999999972045,830.3908277917793,1.0977559093766383,221,2026-10-07 21:17:00.654243,25.0,0.108815932747721,0.38953364181631317,0.25353412431312883
0248,cdot_cos,R,Q-R,222,44,44627,0.00864110559204215,0.45797180039044766,0.008729518214286441,0.55434396952697,958.0,7.250785236210799,0.6193139285680437,9.227582423070501,-0.14071644360516866,0.057,0.9999999999971679,-112.69816090721861,1.1027230628367801,222,2026-10-07 21:17:00.711244,25.0,0.5944673282369551,0.7338752562593108,1.0049669186986883
0248,cdot_cos,S,R-S,223,44,44651,-0.06541416253165531,0.48372969763146373,-0.07405526812369746,0.13571075084563125,958.0,7.277163901058535,0.6194728431236495,9.25071502231017,-0.06516425716608523,0.024,0.9999999999971069,475.42647148383054,1.1076901639614647,223,2026-10-07 21:17:00.735244,25.0,0.31367073483208,0.8891197337235016,1.0991110353223421
0248,cdot_cos,T,S-T,224,44,44918,-0.5163410161071977,0.007960261492067333,-0.4509268535755424,1.2709204685054011e-05,958.0,7.293462983429527,0.6194728580046741,9.271433528878905,-0.040382560925795556,0.267,0.999999999997037,1665321.9014503693,1.1126576581003713,224,2026-10-07 21:17:01.002244,25.0,0.5413586822994707,0.20050403795845495,0.06104525232581224
0248,cdot_cos,P,T-P,225,45,45419,0.040812470506758,-0.0019681162257987115,0.5571534866139557,0.9999991071417992,958.0,7.38423305732835,0.6206430456969378,9.309658705203615,-0.22627404880101146,0.501,0.9999999999970324,-158.8561297509527,1.1176255372018862,225,2026-10-07 21:17:01.503244,25.0,0.4397572043261544,0.12457688627358157,0.18117779221321972
0248,cdot_cos,Q,P-Q,226,45,45549,-0.006058903150714898,-0.006961803744203815,-0.046871373657472896,0.23653260762523273,958.0,7.418289023475656,0.6209196289587845,9.334482388055552,-0.08559333403918094,0.13,0.9999999999969653,508.637846782749,1.1225928105364547,226,2026-10-07 21:17:01.633244,25.0,0.19328407400968223,0.47257238450577266,0.26196897036388966
0248,cdot_cos,R,Q-R,227,45,45579,0.12990335674422188,0.22017548129236314,0.13596225989493677,0.9676750355007294,958.0,7.507101877299851,0.6220503346537166,9.372146983688912,-0.22480462492675002,0.03,0.9999999999969562,-123.11894378132251,1.1275599192324706,227,2026-10-07 21:17:01.663244,25.0,0.538345588103315,1.800977761317446,2.960428460806508
0248,cdot_cos,S,R-S,228,45,45606,-0.0011632115670269108,-0.0033184234005488172,-0.1310665683112488,0.036380478354319054,958.0,7.5263476891547025,0.6220928186002302,9.393409263562942,-0.04906589203551656,0.027,0.9999999999968848,4136.591520160748,1.1325270238303369,228,2026-10-07 21:17:01.690243,25.0,0.02782867459212789,0.6755054288450213,0.7128078464759824
0248,cdot_cos,T,S-T,229,45,45858,-0.18535477686307048,0.056380963620609126,-0.18419156529604355,0.009904726249965287,958.0,7.543579170457482,0.6221043846947092,9.414161307579425,-0.04403656127639364,0.252,0.9999999999968121,434.83396822317053,1.1374945081931274,229,2026-10-07 21:17:01.942244,25.0,0.8920723213340926,0.215908113292506,0.06837889405864932
0248,cdot_cos,P,T-P,230,46,46377,0.05218321291088553,-0.002647725888920275,0.23753798977395602,0.9973708176877685,919.0,7.635165378254126,0.6232683359343769,9.452346285184426,-0.2354600952389408,0.519,0.999999999996807,-164.46009715767207,1.1424624502403145,230,2026-10-07 21:17:02.461244,25.0,0.44353589631073165,0.11808999035385168,0.17646668168910096
0248,cdot_cos,Q,P-Q,231,46,46507,-0.005594964069596764,-0.006800962533127744,-0.0577781769804823,0.1908565030152921,919.0,7.66615658044478,0.6234909076141572,9.476255956219331,-0.08030032612427355,0.13,0.9999999999967332,697.1226944410408,1.1474297292985793,231,2026-10-07 21:17:02.591244,25.0,0.14482294891980124,0.4645725298231023,0.2383938630050358
0248,cdot_cos,R,Q-R,232,46,46534,0.13053833666593087,0.23522487867804837,0.13613330073552762,0.9678085225504021,919.0,7.755954236008132,0.6246187359229963,9.513923835858794,-0.23422896370259305,0.027,0.9999999999967232,-136.48233190453584,1.1523968314445483,232,2026-10-07 21:17:02.618243,25.0,0.5183152335146963,2.023138025031471,3.3258390949389613
0248,cdot_cos,S,R-S,233,46,46565,-0.0005869326087902237,-0.0020306692639190565,-0.1311252692747211,0.0363290664402037,919.0,7.77540603379648,0.6246610454923246,9.535051732938987,-0.05109539771815515,0.031,0.9999999999966481,4328.419525227271,1.157363941559014,233,2026-10-07 21:17:02.649244,25.0,0.027760255856178882,0.5828349513640018,0.6274773480112094
0248,cdot_cos,T,S-T,234,46,46817,-0.33795118165876653,-0.02630271068069325,-0.3373642490499763,0.00021728003991344734,919.0,7.7920900029927,0.6246612985353505,9.555495158134137,-0.04392690783166671,0.252,0.9999999999965709,28329.1343910704,1.1623314401725138,234,2026-10-07 21:17:02.901243,25.0,0.8494286637746503,0.21717891706376571,0.06620622696912942
0248,cdot_cos,P,T-P,235,47,47296,0.058459146495535956,0.0002529849322733172,0.3964103281543025,0.9999503398553576,978.0,7.884864207996618,0.6258251115204524,9.593732277940203,-0.2456748633403814,0.479,0.9999999999965659,-173.3508373693261,1.1672993443780135,235,2026-10-07 21:17:03.380243,25.0,0.4399038873050887,0.12857712070952293,0.19368310021694637
0248,cdot_cos,Q,P-Q,236,47,47426,-0.002527420237406825,-0.0028686844788962888,-0.06098656673294278,0.17877572345559722,978.0,7.915266884632423,0.6260330305077461,9.617317475359537,-0.08112362219600902,0.13,0.9999999999964885,791.4199818218628,1.1722666293901507,236,2026-10-07 21:17:03.510243,25.0,0.13154568691982269,0.4656283287326633,0.23386674335235114
0248,cdot_cos,R,Q-R,237,47,47460,0.13198770729000614,0.22698501445594552,0.13451512752741296,0.9665240266008922,978.0,8.00592757346711,0.6271563056561097,9.654964298219886,-0.24346773039287184,0.034,0.9999999999964788,-144.5274636702883,1.177233742905238,237,2026-10-07 21:17:03.544243,25.0,0.5133490357619446,1.6209172974991686,2.6664908480790235
0248,cdot_cos,S,R-S,238,47,47485,-0.000569514287179111,-0.0015417040703736894,-0.13255722157718525,0.035096369502772735,978.0,8.025489260862367,0.627197068239114,9.675940813413737,-0.05289395440465962,0.025,0.9999999999964,4675.213441894163,1.1822008410029858,238,2026-10-07 21:17:03.569243,25.0,0.027243492242115693,0.7313266590029954,0.7824674958102662
0248,cdot_cos,T,S-T,239,47,47735,-0.24688905653506607,0.08979378257323606,-0.24631954224788696,0.0021120360888095906,978.0,8.04249390641726,0.6271995212000305,9.696285002321366,-0.046084583872729255,0.25,0.9999999999963191,2775.9800354457457,1.1871683505904882,239,2026-10-07 21:17:03.819244,25.0,0.8626397626453877,0.22144543107746273,0.06801858221957247
0248,cdot_cos,P,T-P,240,48,48274,0.05412684039157206,0.0007483067204237992,0.3010158969266381,0.9994610762658616,1017.0,8.136211976401098,0.6283595787835715,9.73452073256137,-0.2554126705316987,0.539,0.9999999999963146,-180.44628958849762,1.1921363962668428,240,2026-10-07 21:17:04.358243,25.0,0.44062190153768865,0.11681141042956716,0.17387397028541418
0248,cdot_cos,Q,P-Q,241,48,48384,-0.0018235173028049246,-0.0014649896511860618,-0.055950357694376986,0.19801312240516594,1017.0,8.168416606860333,0.6285892342722531,9.75834577923037,-0.08842904930861033,0.11,0.9999999999962337,727.1048568519321,1.1971036496183032,241,2026-10-07 21:17:04.468243,25.0,0.15132363437732216,0.5611679199076811,0.29276936781122875
0248,cdot_cos,R,Q-R,242,48,48442,0.12726779846968111,0.21018417886402763,0.12909131577248603,0.9618481703181773,1017.0,8.259668918780788,0.6297039571926434,9.795911433869462,-0.2521508537845159,0.058,0.9999999999962235,-146.8721971004102,1.202070807198451,242,2026-10-07 21:17:04.526243,25.0,0.5224108081864247,0.9599294585361067,1.57331572276646
0248,cdot_cos,S,R-S,243,48,48465,-0.0004720308982692422,-0.0011501195791322918,-0.12773982936795036,0.03941122482409494,1017.0,8.279768424050522,0.6297496030040742,9.816841614075683,-0.055913154915422196,0.023,0.9999999999961396,4299.139235729858,1.207037899560065,243,2026-10-07 21:17:04.549243,25.0,0.02990625976475986,0.8111326017342513,0.8738915334666825
0248,cdot_cos,T,S-T,244,48,48733,-0.24009081941653843,0.11551691793176623,-0.23961878851826918,0.002496241507683079,1017.0,8.296981018460563,0.6297524940558639,9.837065261360458,-0.04799016949315599,0.268,0.9999999999960546,2740.520059404391,1.2120054577232888,244,2026-10-07 21:17:04.817244,25.0,0.847812303139383,0.20874210419097317,0.0642260985449323
0248,cdot_cos,P,T-P,245,49,49291,0.04598466072372595,0.0002772039214715752,0.2860754801402644,0.9992172287742719,940.0,8.391654191896883,0.6309090003533332,9.875305048572226,-0.2653945731258443,0.558,0.999999999996049,-187.98376118522955,1.2169735751733528,245,2026-10-07 21:17:05.375243,25.0,0.44079548576464805,0.11499618934803686,0.16966518536974864
0248,cdot_cos,Q,P-Q,246,49,49427,-0.006424706452920557,-0.008041895153909188,-0.05240936717664651,0.21244766007081484,940.0,8.425316765772973,0.6311546966632279,9.899292526864432,-0.09506473411550248,0.136,0.9999999999959638,693.2535498125847,1.2219408828315512,246,2026-10-07 21:17:05.511244,25.0,0.16667244972248682,0.4602882303131883,0.24751892555948085
0248,cdot_cos,R,Q-R,247,49,49456,0.11432520229257902,0.2220944488499426,0.12074990874549957,0.9534139359744813,940.0,8.51685259054207,0.6322564836338926,9.936708678053131,-0.2601012953555202,0.029,0.9999999999959507,-149.78990098280318,1.226907983662346,247,2026-10-07 21:17:05.540244,25.0,0.5301958556624379,1.9461350705267895,3.1564077506585457
0248,cdot_cos,S,R-S,248,49,49483,-0.0012898546576933622,-0.004360893361528827,-0.11561505695027238,0.052631346301062885,940.0,8.538192599863526,0.6323172655395244,9.957760317844185,-0.061037985316635186,0.027,0.9999999999958632,3275.042267429593,1.2318750815632842,248,2026-10-07 21:17:05.567244,25.0,0.03833844479614581,0.7180563487485443,0.7903707156094802
0248,cdot_cos,T,S-T,249,49,49750,-0.2329842029863916,0.04162360794479749,-0.23169434832869826,0.0030414988514593775,940.0,8.555627633374492,0.6323207779203742,9.977871642078226,-0.04998192694540263,0.267,0.9999999999957734,3147.739053341,1.2368426535748958,249,2026-10-07 21:17:05.834244,25.0,0.8015554528207899,0.2117562619019977,0.0652997509773986
0248,cdot_cos,P,T-P,250,50,50231,0.05490246806448572,0.0008328566463135508,0.28788667105087734,0.9992518560860635,938.0,8.651270443719193,0.6334739709609258,10.016121337782183,-0.2756338665668202,0.481,0.999999999995766,-195.67577299415544,1.2418106552179227,250,2026-10-07 21:17:06.315244,25.0,0.44101979901312716,0.13316885114311475,0.19884160154823566
0248,cdot_cos,Q,P-Q,251,50,50341,-0.0023569253340693544,-0.002124180241807139,-0.05725939339855507,0.1928674351700979,938.0,8.683736068174168,0.6336963754116939,10.039657777840784,-0.09423548502203302,0.11,0.9999999999956768,815.6238821586198,1.2467779171973443,251,2026-10-07 21:17:06.425244,25.0,0.14588338420098343,0.5682216274140117,0.295142040499773
0248,cdot_cos,R,Q-R,252,50,50397,0.11936393117567495,0.23688593999747537,0.1217208565097443,0.9544802829752732,938.0,8.776279201750276,0.6347961911438448,10.077096316641368,-0.2702106592701207,0.056,0.9999999999956649,-160.00423444019543,1.2517450716883212,252,2026-10-07 21:17:06.481244,25.0,0.5213926963919588,1.0150291108823595,1.6525559567162063
0248,cdot_cos,S,R-S,253,50,50421,-0.0006687466655750793,-0.0022111412033105913,-0.12003267784125003,0.04738897992723748,938.0,8.797419328592992,0.6348507593558638,10.09793872850971,-0.06212368958082945,0.024,0.9999999999955731,3813.3367759396983,1.2567121619212536,253,2026-10-07 21:17:06.505243,25.0,0.035099826243681756,0.8050644213893529,0.8808386184465297
0248,cdot_cos,T,S-T,254,50,50689,-0.2558360459085088,0.052609798384545915,-0.2551672992429337,0.0016936360489955696,938.0,8.814922293976965,0.6348527095065774,10.117906489961484,-0.051548298310658505,0.268,0.9999999999954791,5422.858447053728,1.2616797523555594,254,2026-10-07 21:17:06.773243,25.0,0.8145210538047545,0.212911376515597,0.06530957232825456
0248,cdot_cos,P,T-P,255,51,51169,0.04989404515035841,-0.0035760325486294013,0.30573009105886717,0.9995209623818441,840.0,8.911539826405352,0.6360028421816984,10.156170525499283,-0.2860085964632981,0.48,0.9999999999954718,-203.8550014483795,1.2666477843545993,255,2026-10-07 21:17:07.253243,25.0,0.44053445792340196,0.13559901391529222,0.20128652589247453
0248,cdot_cos,Q,P-Q,256,51,51297,-0.004921393092927456,-0.006906151972901728,-0.054815438243285865,0.2025574965766556,840.0,8.945097347335645,0.6362357330416534,10.179792020171758,-0.10003958196565406,0.128,0.9999999999953801,798.5243153537095,1.2716150885556425,256,2026-10-07 21:17:07.381243,25.0,0.15583549703359903,0.49798457296544585,0.262168132267912
0248,cdot_cos,R,Q-R,257,51,51323,0.12256813337853785,0.26516551272808353,0.1274895264714653,0.9603511921446785,840.0,9.039023877084507,0.6373390282697003,10.21734231340383,-0.28163903032012927,0.026,0.9999999999953675,-164.59732965213493,1.27658218035738,257,2026-10-07 21:17:07.407244,25.0,0.5247700906943615,2.212583676816384,3.6125588364946695
0248,cdot_cos,S,R-S,258,51,51379,4.48154564009897e-06,-0.0029772246783928507,-0.12256365183289775,0.04461299581445099,840.0,9.060151698530097,0.6373902466732974,10.23802376268102,-0.06375332479018332,0.056,0.9999999999952721,4254.051087657702,1.2815493368539264,258,2026-10-07 21:17:07.463244,25.0,0.03278983412836774,0.3457398329495146,0.37728252581411703
0248,cdot_cos,T,S-T,259,51,51609,-0.2923149673256381,-0.016548513189354158,-0.2923194488712782,0.0006697164376322475,840.0,9.077746738374852,0.637391015524308,10.2578580905794,-0.0532066921429702,0.23,0.9999999999951724,13717.394529403282,1.2865168632056314,259,2026-10-07 21:17:07.693243,25.0,0.8201893587775898,0.2503829191891535,0.07650017323806556
0248,cdot_cos,P,T-P,260,52,52009,0.0382053285879262,-3.211252747322271e-05,0.3305202959135643,0.9997421842168469,838.0,9.175327841357108,0.6385379588425387,10.296135999512915,-0.29654810872052545,0.4,0.9999999999951665,-212.16516344759958,1.2914847569614294,260,2026-10-07 21:17:08.093244,25.0,0.4401763234497136,0.16831474532591706,0.24395275745563882
0248,cdot_cos,Q,P-Q,261,52,52139,-0.0074085205783373485,-0.011505245268188805,-0.04561384916626354,0.2422567985778419,838.0,9.212398534635586,0.6388156483555454,10.320404034274912,-0.11345075562623012,0.13,0.9999999999950789,659.3599848687923,1.2964520725177289,261,2026-10-07 21:17:08.223244,25.0,0.19911101215790214,0.4952956624941466,0.28515917906521626
0248,cdot_cos,R,Q-R,262,52,52174,0.09100737110873966,0.2580180125185428,0.09841589168707701,0.9213184676580279,838.0,9.304104713605586,0.6398708712898432,10.357236403526962,-0.28226182220521795,0.035,0.9999999999950637,-159.97668463424645,1.3014191831107407,262,2026-10-07 21:17:08.258244,25.0,0.5498743227251155,1.6707098323403509,2.620176542
0248,cdot_cos,S,R-S,263,52,52218,-1.716980958106769e-05,-0.006079551679004191,-0.09102454091832073,0.09316287754154803,838.0,9.32934822289941,0.6399774994468082,10.37871248938002,-0.07817749562599233,0.044,0.9999999999949705,1913.9815634845174,1.3063863146125871,263,2026-10-07 21:17:08.302243,25.0,0.07349592963591231,0.4953353425148607,0.5737161203141948
0248,cdot_cos,T,S-T,264,52,52448,-0.1940453317402666,-0.03135611702640877,-0.19402816193068553,0.007762145692689961,838.0,9.347694223746894,0.6399863828695552,10.398569492720176,-0.05694868439582278,0.23,0.9999999999948698,2389.710794430028,1.311353856233415,264,2026-10-07 21:17:08.532243,25.0,0.6888230374992439,0.2538449863644912,0.07976522107601378
0248,cdot_cos,P,T-P,265,53,52847,0.06474920148696724,-0.0002567255364760324,0.25879453322723384,0.9984529595634114,918.0,9.446116916627076,0.6411282656080262,10.436833922433115,-0.3069998999682868,0.399,0.999999999994865,-218.9815181086818,1.316321776564189,265,2026-10-07 21:17:08.931243,25.0,0.4428609951309258,0.1615441719275817,0.2466734157398065
0248,cdot_cos,Q,P-Q,266,53,52977,-0.0026213860659612216,-0.003242339702897232,-0.06737058755292846,0.1565315792685292,918.0,9.476606472945104,0.6413071386963114,10.459425444139173,-0.09573434923586976,0.13,0.9999999999947665,1181.0918722190718,1.321289099308188,266,2026-10-07 21:17:09.061243,25.0,0.11005341525306885,0.3711671320151898,0.23453504860021085
0248,cdot_cos,R,Q-R,267,53,53006,0.012611008481702077,0.42039702864787715,0.0152323945476633,0.5940684173497117,918.0,9.542620370951026,0.6419856396162708,10.49015449289244,-0.2081603430698084,0.029,0.9999999999947186,-165.69762918033044,1.3262561959090329,267,2026-10-07 21:17:09.090244,25.0,0.5826939202833671,1.5957382883526117,2.2763413105490327
0248,cdot_cos,S,R-S,268,53,53034,-0.07233695760005505,0.44167103290308457,-0.08494796608175713,0.10681463823484438,918.0,9.569159293669555,0.642107575166914,10.511776750830345,-0.08407928667930788,0.028,0.9999999999946243,1017.5954078688926,1.3312232911608777,268,2026-10-07 21:17:09.118243,25.0,0.22860435496935297,0.7926371202724436,0.9478186685189119
0248,cdot_cos,T,S-T,269,53,53286,-0.42322603251882535,0.0399921051389303,-0.3508890749187703,0.00015495406511846434,918.0,9.587008049686283,0.6421077520432613,10.531372879943381,-0.056678888206402406,0.252,0.9999999999945197,154912.73357901446,1.3361908950205466,269,2026-10-07 21:17:09.370244,25.0,0.6166632563872084,0.232681011498364,0.07082839689177503
0248,cdot_cos,P,T-P,270,54,53765,0.04107090381017301,-0.0025084272757778855,0.4642969363289984,0.999990901786719,1019.0,9.68643052346473,0.6432484100451783,10.569673014295645,-0.31719937646065477,0.479,0.9999999999945166,-228.39491575601375,1.3411590216192744,270,2026-10-07 21:17:09.849244,25.0,0.43985303062196984,0.1426512142641723,0.20756257573788758
0248,cdot_cos,Q,P-Q,271,54,53894,-0.005877223058139671,-0.005962288810221052,-0.04694812686831268,0.2361862709854878,1019.0,9.72366791295136,0.6435175838502659,10.59366030379306,-0.11960508119735744,0.129,0.9999999999944202,734.0769849390737,1.3461263471864087,271,2026-10-07 21:17:09.978244,25.0,0.19165545444819956,0.5225533020995612,0.2886619340048753
0248,cdot_cos,R,Q-R,272,54,53921,0.13655919326546748,0.19043088424788426,0.14243641632360715,0.972372045992968,1019.0,9.821249275406418,0.6446248085069619,10.631448731797697,-0.3151655390960331,0.027,0.9999999999944122,-176.62220283482185,1.3510934377044932,272,2026-10-07 21:17:10.005243,25.0,0.5376751216478606,2.188416109351326,3.614124535372514
0248,cdot_cos,S,R-S,273,54,53975,-0.0009395120261569744,-0.003333323375525004,-0.13749870529162445,0.031144807209379045,1019.0,9.841842382856331,0.6446602471093608,10.651559408178736,-0.06691027574464971,0.054,0.9999999999943057,7005.221609964704,1.3560605926426257,273,2026-10-07 21:17:10.059244,25.0,0.02447088796231561,0.3672887817352635,0.38135384166506886
0248,cdot_cos,T,S-T,274,54,54203,-0.1742694033757685,0.09306050686049616,-0.17332989134961152,0.012954827800749524,1019.0,9.860916463833826,0.6446749874942193,10.671293934067709,-0.062098593393602505,0.228,0.9999999999941973,326.42854289352806,1.3610281565241107,274,2026-10-07 21:17:10.287244,25.0,0.9254413106364009,0.26100038800360637,0.08365824990129274
0248,cdot_cos,P,T-P,275,55,54784,0.03783495526658187,-0.0023208972177310317,0.21210435864235036,0.9950460755674253,939.0,9.960858559785976,0.6458063584012154,10.709511323121545,-0.3268721702731954,0.581,0.999999999994194,-234.0289778023285,1.365996559573102,275,2026-10-07 21:17:10.868243,25.0,0.44484837775195196,0.11922680657670322,0.1720173768539583
0248,cdot_cos,Q,P-Q,276,55,54911,-0.006444083710181434,-0.007335965133461314,-0.0442790389767633,0.2484350901475226,939.0,9.999458013075955,0.6460885761740132,10.73365501696137,-0.1270806165635243,0.127,0.999999999994092,707.9339891638074,1.3709638862305882,276,2026-10-07 21:17:10.995244,25.0,0.20759548671939956,0.5382058866946458,0.30393270307070375
0248,cdot_cos,R,Q-R,277,55,54939,0.12964531674983765,0.21110356687413248,0.13608940046001908,0.9677743119578538,939.0,10.097562855006416,0.6471869787754461,10.7713636351648,-0.3247434065075602,0.028,0.9999999999940804,-179.95477221756246,1.375930976803053,277,2026-10-07 21:17:11.023244,25.0,0.544071961348844,2.1315496829326097,3.503744354659309
0248,cdot_cos,S,R-S,278,55,54994,-0.0008886634453089468,-0.005284958286546183,-0.1305339801951466,0.03685014336675869,939.0,10.118824795320181,0.6472287722416084,10.791485809435617,-0.07079487885599728,0.055,0.9999999999939684,6076.27342191382,1.3808981340236677,278,2026-10-07 21:17:11.078244,25.0,0.027678396628451694,0.3613355282770282,0.3865807329775544
0248,cdot_cos,T,S-T,279,55,55223,-0.2253844112966676,0.05580233404524514,-0.22449574785135867,0.00363902547756562,939.0,10.137309763116889,0.6472328993079206,10.810946482393435,-0.061669220817798624,0.229,0.9999999999938528,2211.173106451708,1.385865714358393,279,2026-10-07 21:17:11.307244,25.0,0.8624505070691998,0.26105972740488004,0.08072038339173628
0248,cdot_cos,P,T-P,280,56,55723,0.018127198738207822,0.001046778205129947,0.24351161003487543,0.9977347226966302,978.0,10.238390150471616,0.6483636129118218,10.849224375526715,-0.33871598883106435,0.5,0.9999999999938477,-245.01939930448052,1.3908339618861285,280,2026-10-07 21:17:11.807244,25.0,0.44134325084542775,0.14794308701448244,0.20216077470945493
0248,cdot_cos,Q,P-Q,281,56,55856,-0.007801376646121787,-0.008930779845097537,-0.02592857538432961,0.3433920344114674,978.0,10.285252850131371,0.6487523886907028,10.875098645989462,-0.15809498435002683,0.133,0.9999999999937542,464.5891392742527,1.3958013100964166,281,2026-10-07 21:17:11.940243,25.0,0.3190255482125666,0.545543899166964,0.3523511252613156
0248,cdot_cos,R,Q-R,282,56,55888,0.11797259891140076,0.20628899772792406,0.12577397555752254,0.9586854937243828,978.0,10.383504827650029,0.6498367317330317,10.912641512629486,-0.3333299278899575,0.032,0.999999999993741,-161.60471059377807,1.4007684090690842,282,2026-10-07 21:17:11.972243,25.0,0.5911353900408589,1.884294859920893,3.070374297458045
0248,cdot_cos,S,R-S,283,56,55913,-0.0021766340544215512,-0.005968828067376314,-0.1201492329658223,0.047257611305674095,978.0,10.405847721166309,0.6498901436133222,10.932871537853623,-0.07623757045683509,0.025,0.9999999999936257,4813.392751477423,1.4057354915617855,283,2026-10-07 21:17:11.997243,25.0,0.03431225292105301,0.8547939416561334,0.8937157406511886
0248,cdot_cos,T,S-T,284,56,56180,-0.15000030041279097,0.04683552033243809,-0.1478236663583694,0.024231033432072377,978.0,10.426244524732835,0.6499175287506909,10.952631987943244,-0.06973777249707545,0.267,0.9999999999935084,237.34764855324136,1.4107031835153785,284,2026-10-07 21:17:12.264243,25.0,0.9110081764469821,0.22854706140795059,0.07639252272107473
0248,cdot_cos,P,T-P,285,57,56701,0.050846306075878936,0.0010476544320997538,0.20084660648866992,0.9934463971961398,939.0,10.527891851958154,0.6510394375269487,10.990838247893006,-0.34905442270579423,0.521,0.999999999993501,-248.96556308293407,1.415671523641503,285,2026-10-07 21:17:12.785243,25.0,0.449234858680776,0.1318984550091325,0.19510043613304925
0248,cdot_cos,Q,P-Q,286,57,56834,-0.0030392382604091913,-0.0037644654159663237,-0.05388554433628813,0.20633856803201578,939.0,10.563682714852352,0.6512722484377431,11.014041671036686,-0.12367283710836083,0.133,0.9999999999933856,968.0885866919731,1.4206388787089945,286,2026-10-07 21:17:12.918243,25.0,0.1616370845207829,0.5060237209896776,0.2691042322871986
0248,cdot_cos,R,Q-R,287,57,56867,0.11912735950500569,0.23367715700286135,0.12216659776541489,0.9549619988341983,939.0,10.662494161741408,0.6523487864695373,11.051518028733206,-0.3431202768910243,0.033,0.9999999999933703,-203.84550596593886,1.4256059785423458,287,2026-10-07 21:17:12.951244,25.0,0.5275222767872249,1.8390525428225555,2.994286269365359
0248,cdot_cos,S,R-S,288,57,56891,-0.0007806505987880332,-0.002564388624670585,-0.11990801010379372,0.04752987628479475,939.0,10.68506018267864,0.6524023268193951,11.071663378351383,-0.07880247248460237,0.024,0.9999999999932486,4936.796362151094,1.4305730561472823,288,2026-10-07 21:17:12.975244,25.0,0.034937951161154154,0.8627590648111472,0.9402508723846588
0248,cdot_cos,T,S-T,289,57,57159,-0.22463206182497675,0.04649042941683288,-0.2238514112261887,0.003697900564561766,939.0,10.703906596852343,0.6524064921829206,11.090939121078728,-0.06594061515557281,0.268,0.9999999999931234,3087.8114840395347,1.435540768232056,289,2026-10-07 21:17:13.243244,25.0,0.8227917661830481,0.22738369870335112,0.07032244094665392
0248,cdot_cos,P,T-P,290,58,57640,0.0647021687282722,-5.586025795322367e-06,0.2893342305532489,0.9992784274257978,919.0,10.806937845183636,0.6535312361589352,11.129265143406185,-0.3619933324895396,0.481,0.9999999999931154,-263.21787326481086,1.4405090419711464,290,2026-10-07 21:17:13.724244,25.0,0.44138390496600527,0.1399057682691884,0.21420217948293754
0248,cdot_cos,Q,P-Q,291,58,57770,-0.0038456134345768024,-0.004768149853532777,-0.068547782162849,0.15268512894500472,919.0,10.838495945927303,0.6537029412311236,11.151366986564009,-0.11154510308929483,0.13,0.999999999992989,1458.595405529904,1.4454763958629349,291,2026-10-07 21:17:13.854244,25.0,0.10589955540457928,0.5085212924170147,0.24275462110512516
0248,cdot_cos,R,Q-R,292,58,57800,0.1308540272884164,0.24713625077684032,0.1346996407229932,0.9666729554877701,919.0,10.93915338121206,0.6547891019975518,11.189071428954602,-0.3574262810931166,0.03,0.9999999999929745,-226.37641277763393,1.450443486354211,292,2026-10-07 21:17:13.884243,25.0,0.502619742999403,2.0410135669868565,3.3552478428252526
0248,cdot_cos,S,R-S,293,58,57829,-0.00028061028498565057,-0.000968869557099487,-0.13113463757340207,0.03632086789919821,919.0,10.960956759946514,0.6548298809967826,11.208912404954198,-0.07785314701516466,0.029,0.9999999999928467,6855.811553771507,1.4554105752965802,293,2026-10-07 21:17:13.913243,25.0,0.02756986652526207,0.6981745189102995,0.7518406460156488
0248,cdot_cos,T,S-T,294,58,58079,-0.4237087476123154,0.012609961185099041,-0.42342813732732976,2.5274142823330723e-05,919.0,10.979647503308858,0.6548299093723557,11.228024394538002,-0.06686230832791397,0.25,0.999999999992715,387334.50927391497,1.4603782567381467,294,2026-10-07 21:17:14.163244,25.0,0.8484194032767987,0.24532488280361164,0.07476297344937421
0248,cdot_cos,P,T-P,295,59,58559,0.0441367793309557,0.0017893730061405613,0.46784552694327114,0.999991674158944,938.0,11.08361920134832,0.6559517465345752,11.266372039377117,-0.3734391629771123,0.48,0.9999999999927078,-273.2810651794223,1.4653465627551436,295,2026-10-07 21:17:14.643244,25.0,0.44001111744243615,0.14860522277662658,0.21660770424887973
0248,cdot_cos,Q,P-Q,296,59,58668,-0.0035117704160623846,-0.0031417451654457943,-0.047648549747018085,0.23304192896418882,938.0,11.12230851717442,0.6562129346489842,11.289946001154501,-0.13981000835031993,0.109,0.9999999999925875,894.4861643318982,1.4703138663352993,296,2026-10-07 21:17:14.752243,25.0,0.18804999393565533,0.6378279836877292,0.3549478516155894
0248,cdot_cos,R,Q-R,297,59,58724,0.11692843083163369,0.22937551208671603,0.12044020124769608,0.9530688284718779,938.0,11.222665701792245,0.6572801283662143,11.327392544052264,-0.36438605258303824,0.056,0.999999999992572,-210.4360629254925,1.4752810269705512,297,2026-10-07 21:17:14.808243,25.0,0.5399312284619978,1.1027209583609952,1.7920925824611735
0248,cdot_cos,S,R-S,298,59,58749,-0.0010195500306762527,-0.0033191558127820646,-0.11794798086230994,0.04979801180263216,938.0,11.24581326451085,0.6573358458415789,11.347408050616204,-0.08450438976389929,0.025,0.9999999999924396,5023.22944440162,1.4802481033407289,298,2026-10-07 21:17:14.833244,25.0,0.0364418671981009,0.8587340091794715,0.9259025087442296
0248,cdot_cos,T,S-T,299,59,59016,-0.1813342006336767,0.034138920482302895,-0.18031465060300045,0.010901793968200709,938.0,11.265602402251218,0.6573480429475189,11.366642235958208,-0.07238069678160439,0.267,0.9999999999923055,993.9811166606103,1.4852158489731397,299,2026-10-07 21:17:15.100243,25.0,0.84577747881658,0.23282065411196518,0.07411662075044133
0248,cdot_cos,P,T-P,300,60,59497,0.04208562885120003,-0.003564033875667903,0.2234198294848767,0.9962621346992043,879.0,11.37013949380664,0.6584617983739824,11.4049253834083,-0.38386509074905917,0.481,0.9999999999922962,-279.67037157924517,1.4901841944648697,300,2026-10-07 21:17:15.581243,25.0,0.4442168846409486,0.14917733614442552,0.21733283067655212
0248,cdot_cos,Q,P-Q,301,60,59587,-0.005693034140160814,-0.004231091045410465,-0.04777866299136084,0.23246104437322077,879.0,11.409110999622156,0.6587214237187561,11.42842306846361,-0.1439598434670941,0.09,0.9999999999921714,924.0440200132696,1.49515144985116,301,2026-10-07 21:17:15.671244,25.0,0.18891211303568417,0.7857230473345942,0.4330167312835087
0248,cdot_cos,R,Q-R,302,60,59645,0.13015815837395955,0.22584837061180463,0.13585119251412037,0.967588067759866,879.0,11.511569642326867,0.6598010559656203,11.466153469160535,-0.3802468665301585,0.058,0.9999999999921576,-218.8588046988697,1.5001186169602057,302,2026-10-07 21:17:15.729243,25.0,0.5371895533954283,1.0748369417842027,1.7665283224950201
0248,cdot_cos,S,R-S,303,60,59704,-0.0004665351596973628,-0.006249617680327236,-0.1306246935336569,0.036769737433143324,879.0,11.533792084869123,0.6598420509149923,11.485835093139723,-0.08291637494361981,0.059,0.9999999999920196,7252.856660194351,1.50508578828362,303,2026-10-07 21:17:15.788243,25.0,0.027711494385290848,0.3555222587241653,0.37665156851281967
0248,cdot_cos,T,S-T,304,60,59936,-0.19217290175684473,0.02067484359373415,-0.19170636659714738,0.008222217223902937,879.0,11.553521268856318,0.6598512176200768,11.504932856424757,-0.07374659337531263,0.232,0.9999999999918776,1000.3356150031672,1.5100534527372023,304,2026-10-07 21:17:16.020243,25.0,0.8830779843326244,0.27000640694043043,0.08503958615170319
0248,cdot_cos,P,T-P,305,61,60376,0.0543209169288557,-0.0010160159154508081,0.24649381868570042,0.9978971265389288,918.0,11.659075057689483,0.6609628530787427,11.54325416040227,-0.39606404963842173,0.44,0.9999999999918697,-289.94888004916186,1.515021717802591,305,2026-10-07 21:17:16.460243,25.0,0.44317021736107387,0.1600033472045565,0.23989497462082857
0248,cdot_cos,Q,P-Q,306,61,60506,-0.00477007056582258,-0.005884178348717487,-0.059090987494678275,0.18583941461574763,918.0,11.694324214396328,0.6611696786085333,11.565780912570512,-0.13302644949062573,0.13,0.9999999999917356,1271.7849697479346,1.519989092782376,306,2026-10-07 21:17:16.590244,25.0,0.138437947266215,0.5327107190525272,0.27114735928342415
0248,cdot_cos,R,Q-R,307,61,60535,0.13037604758997237,0.24309642852154592,0.13514611815579494,0.9670306852291723,918.0,11.79757984464314,0.6622449177580898,11.603503681641447,-0.3913776253408402,0.029,0.9999999999917207,-240.27322289814893,1.5249561762171593,307,2026-10-07 21:17:16.619244,25.0,0.5167959475781688,2.166183492101097,3.560538974027998
0248,cdot_cos,S,R-S,308,61,60563,-0.0005188064704573893,-0.0017769776479367434,-0.13089485406042975,0.03653127264242031,918.0,11.819962856938192,0.6622855040221486,11.623098769659975,-0.0852889086102798,0.028,0.9999999999915784,7541.682483690305,1.5299232578708488,308,2026-10-07 21:17:16.647244,25.0,0.027630210815188763,0.7423605572164846,0.7993932962518459
0248,cdot_cos,T,S-T,309,61,60815,-0.34301105665384,0.06670945403686081,-0.34249225018338264,0.0001911413379720425,918.0,11.839152035847263,0.662285716373995,11.6419558311569,-0.07324774272623565,0.252,0.9999999999914323,56703.843577969616,1.5348909970510727,309,2026-10-07 21:17:16.899244,25.0,0.8484114307992251,0.24957270663040887,0.07614753535345817
0248,cdot_cos,P,T-P,310,62,61294,0.056589548677829705,0.0012945990505782894,0.39960060533166974,0.9999541465899395,959.0,11.945747501079918,0.663395735904878,11.680323074196535,-0.4083906783413647,0.479,0.999999999991425,-301.9252601335215,1.5398594108042936,310,2026-10-07 21:17:17.378243,25.0,0.4401485650426882,0.14835077155161414,0.2225375057049157
0248,cdot_cos,Q,P-Q,311,62,61425,-0.0025339288644030504,-0.002992202333514949,-0.05912347754223275,0.18571654983035588,959.0,11.98127207499371,0.663601696407861,11.702780313060686,-0.13687454843014799,0.131,0.9999999999912849,1318.2922258330423,1.5448267956625488,311,2026-10-07 21:17:17.509243,25.0,0.1375612464400217,0.5307232520263748,0.27117995354039476
0248,cdot_cos,R,Q-R,312,62,61459,0.12517705161006312,0.2311600214058937,0.12771098047446616,0.9605614620830921,959.0,12.084796993110828,0.6646659699941267,11.740378934000313,-0.40056644956845866,0.034,0.999999999991269,-247.76702582983881,1.5497938924419934,312,2026-10-07 21:17:17.543243,25.0,0.5177320119838043,1.8604951024368641,3.0448505328564264
0248,cdot_cos,S,R-S,313,62,61484,-0.0005152292415749936,-0.0015397045260196575,-0.1256922808516381,0.04139547541699018,959.0,12.107785741959416,0.6647117974529636,11.759989324606751,-0.08941153684735939,0.025,0.9999999999911217,6789.704701471688,1.5547609632716295,313,2026-10-07 21:17:17.568243,25.0,0.03080645852106609,0.8485322598100353,0.9195499539435303
0248,cdot_cos,T,S-T,314,62,61734,-0.2671249076933684,0.0932633137837216,-0.2666096784517934,0.0012728260708307286,959.0,12.12722360610133,0.6647132065042605,11.778785180925041,-0.07573332496632262,0.25,0.9999999999909701,9707.39100236081,1.5597287137044993,314,2026-10-07 21:17:17.818244,25.0,0.8347606749459345,0.25373331857952763,0.07775145656765403
0248,cdot_cos,P,T-P,315,63,62253,0.05652638755901005,0.0014355373069319657,0.32365129525237846,0.9996938968836633,918.0,12.23465240124918,0.6658189855932917,11.817152370124488,-0.42006142086327614,0.519,0.9999999999909625,-311.3895888541604,1.5646972857300017,315,2026-10-07 21:17:18.337244,25.0,0.4405598716340538,0.13820230535151032,0.20699189816541486
0248,cdot_cos,Q,P-Q,316,63,62388,-0.0019506571400084345,-0.0025098916053342213,-0.05847704469901849,0.18817290732426467,918.0,12.270677599056198,0.6660269237742814,11.839592435841519,-0.1416491786912471,0.135,0.9999999999908163,1338.9183306636885,1.569664689471372,316,2026-10-07 21:17:18.472243,25.0,0.14008505336157204,0.5184353494948724,0.2668533170890178
0248,cdot_cos,R,Q-R,317,63,62417,0.12124467129333459,0.24914791036792178,0.12319532843334302,0.9560552781338236,918.0,12.374629945612796,0.6670824029891397,11.877103598177925,-0.4104196547894264,0.029,0.9999999999907977,-254.64307805840622,1.5746317691544254,317,2026-10-07 21:17:18.501244,25.0,0.5195109149726526,2.1986141563824693,3.5845636743654525
0248,cdot_cos,S,R-S,318,63,62443,-0.00013935052704947763,-0.0005069330045366054,-0.12138402182038407,0.04588698752281056,918.0,12.39819722012638,0.6671330199163493,11.896725025580576,-0.0935216976590537,0.026,0.9999999999906448,6260.711082240164,1.5795988407046464,318,2026-10-07 21:17:18.527244,25.0,0.03375939170423975,0.8278213663053258,0.9064336351378881
0248,cdot_cos,T,S-T,319,63,62710,-0.4570323458410457,-0.08698389958070786,-0.4568929953139962,1.0948196361581665e-05,918.0,12.417676656660673,0.667133031992604,11.915416044797029,-0.07743434897520532,0.267,0.9999999999904874,1332147.1874249137,1.5845666607954725,319,2026-10-07 21:17:18.794244,25.0,0.8124063087260186,0.23929744607560563,0.07295669113966985
0248,cdot_cos,P,T-P,320,64,63171,0.05212256749554206,-0.0009763369641714925,0.5091549133365878,0.9999970357182499,978.0,12.525982056330754,0.6682351474936777,11.953793366968084,-0.4320293961168207,0.461,0.9999999999904775,-321.7403682246968,1.589535091471547,320,2026-10-07 21:17:19.255244,25.0,0.44009440508445746,0.15776078726178436,0.23493579104139167
0248,cdot_cos,Q,P-Q,321,64,63302,-0.003921824212132706,-0.004372266934747522,-0.056044391707674765,0.19764006315974736,978.0,12.563132102516038,0.6684527527852185,11.976356359599551,-0.1490063099061608,0.131,0.9999999999903295,1300.6259370195182,1.5945024900902458,321,2026-10-07 21:17:19.386244,25.0,0.1496578839546257,0.5473098207674879,0.2835881388189589
0248,cdot_cos,R,Q-R,322,64,63331,0.13886710727029625,0.22380906354023383,0.14278893148242897,0.9726078178691434,978.0,12.669377229371836,0.6695225619161516,12.014193798253524,-0.42787784193284295,0.029,0.9999999999903135,-260.67409967184346,1.5994695681487177,322,2026-10-07 21:17:19.415244,25.0,0.5211303787561151,2.2166277718805363,3.6636250639930426
0248,cdot_cos,S,R-S,323,64,63359,-0.0004284688504469471,-0.0011365272037868854,-0.1392955761207432,0.029817480491871905,978.0,12.691696513285109,0.6695553317021777,12.033423808750742,-0.09033945731387583,0.028,0.9999999999901527,10300.292603355423,1.604436644198664,323,2026-10-07 21:17:19.443244,25.0,0.023841345829889518,0.751474045027781,0.7971172826168882
0248,cdot_cos,T,S-T,324,64,63611,-0.26106699887688,0.11420410522577976,-0.26063853002643306,0.001477443888036759,978.0,12.711459775893392,0.6695569553887967,12.052066177646163,-0.08012628281330872,0.252,0.9999999999899902,6290.114349325025,1.6094044354705122,324,2026-10-07 21:17:19.695244,25.0,0.880325568541302,0.2556943106972636,0.07842564527096378
0248,cdot_cos,P,T-P,325,65,64149,0.0440909987147295,-0.0029309269456507187,0.3051579975916095,0.9995140651481529,1020.0,12.82056644587653,0.6706544774455743,12.090437043801709,-0.44384409815084364,0.538,0.9999999999899806,-331.3990940696311,1.6143731496290064,325,2026-10-07 21:17:20.233243,25.0,0.4406642593178766,0.13957547808035287,0.20280050182739404
0248,cdot_cos,Q,P-Q,326,65,64276,-0.0024139987110427153,-0.002356674671106114,-0.046504997425772215,0.23819064790699765,1020.0,12.861642990307852,0.6709157501880868,12.113742104063451,-0.1680138492602708,0.127,0.9999999999898312,1055.7176620800547,1.6193405420207478,326,2026-10-07 21:17:20.360243,25.0,0.19364835198241015,0.5844964002238501,0.3234373577269425
0248,cdot_cos,R,Q-R,327,65,64300,0.14594424895111133,0.1916925757644585,0.14835824766215405,0.9760829549658556,1020.0,12.969028531533388,0.6719853166229571,12.15164849442178,-0.44103981837893536,0.024,0.9999999999898138,-255.26789193956483,1.6243076015677134,327,2026-10-07 21:17:20.384243,25.0,0.5384553985457458,2.6966760310075757,4.474397551064009
0248,cdot_cos,S,R-S,328,65,64359,-0.0007616005267134601,-0.002693116229829784,-0.14670584947782478,0.024900631030765716,1020.0,12.991083439796215,0.6720125788115341,12.170708483766552,-0.09103130883562088,0.059,0.9999999999896463,12838.606429386946,1.629274777014274,328,2026-10-07 21:17:20.443244,25.0,0.02138801631089749,0.36233802880725385,0.3738120044547019
0248,cdot_cos,T,S-T,329,65,64589,-0.18405482795540676,0.10960968887922447,-0.1832932274286933,0.010127409426567443,1020.0,13.011784418932644,0.6720236663652004,12.189448412086575,-0.08558224665305342,0.23,0.9999999999894763,491.45757004356,1.634242513611892,329,2026-10-07 21:17:20.673243,25.0,0.9383141478045406,0.28338464051077583,0.09000425711490671
0248,cdot_cos,P,T-P,330,66,65169,0.03920299135277603,0.0018264233545368725,0.22325781930818278,0.9962470216260089,997.0,13.121440374431172,0.6731134247511673,12.227756218676753,-0.454834879874721,0.58,0.9999999999894653,-338.8389921808557,1.6392114098388206,330,2026-10-07 21:17:21.253243,25.0,0.44404078339321096,0.13010873115531948,0.189061992238842
0248,cdot_cos,Q,P-Q,331,66,65313,-0.007613495604685654,-0.008855696668858203,-0.046816486957461684,0.23678048997742832,997.0,13.162710547072814,0.6733721562607847,12.250977742816389,-0.17210054995088991,0.144,0.999999999989308,1092.7711523884661,1.644178864834723,331,2026-10-07 21:17:21.397243,25.0,0.19342917597223186,0.5126087345409475,0.28659842112251555
0248,cdot_cos,R,Q-R,332,66,65338,0.11519766283426826,0.20287112848345923,0.1228111584389539,0.9556499971390925,997.0,13.269071689978965,0.6744153276711286,12.288477469240087,-0.44529105534128943,0.025,0.9999999999892828,-261.88457877728587,1.6491459244145747,332,2026-10-07 21:17:21.422244,25.0,0.541447062805326,2.621895222713171,4.254445716246025
0248,cdot_cos,S,R-S,333,66,65397,-0.00046339679411291565,-0.003548663771180013,-0.11566105962838118,0.05257403197663426,997.0,13.293805308208473,0.6744726665794308,12.30801656344272,-0.10405400282562788,0.059,0.9999999999891119,5951.2303707753945,1.6541130996966433,333,2026-10-07 21:17:21.481244,25.0,0.03764998817856278,0.3825427254843645,0.4192138682967445
0248,cdot_cos,T,S-T,334,66,65626,-0.21160698104310496,0.07455498635891439,-0.21114358424899204,0.005073744035342648,997.0,13.31421173158612,0.6744781998893264,12.326584369354547,-0.08599474300561186,0.229,0.9999999999889324,3263.7354785315674,1.6590808481968597,334,2026-10-07 21:17:21.710243,25.0,0.8105808169131712,0.2862569212960155,0.08911101911636282
0248,cdot_cos,P,T-P,335,67,66166,0.04935441653860415,-0.0026015917576797326,0.2609613975817091,0.9985344161718468,1079.0,13.424910978162048,0.6755662302353209,12.364938201460419,-0.4679817463375294,0.54,0.9999999999889189,-351.08120351438987,1.6640496556667042,335,2026-10-07 21:17:22.250243,25.0,0.44208929961956434,0.13885710154875133,0.20499860477023701
0248,cdot_cos,Q,P-Q,336,67,66294,-0.003332039651996564,-0.003073036276049181,-0.052686456190600715,0.21129094942442156,1079.0,13.464177401258771,0.6757962162137826,12.387596657021284,-0.16686871240541565,0.128,0.9999999999887512,1309.266921166994,1.6690170638767805,336,2026-10-07 21:17:22.378243,25.0,0.1645582503979103,0.5801678883247049,0.306768930443152
0248,cdot_cos,R,Q-R,337,67,66321,0.14960229820820933,0.18485458955149173,0.1529343378602059,0.9786131139458308,1079.0,13.573433957573172,0.6768603092168609,12.425551178122205,-0.4660668741819286,0.027,0.9999999999887293,-281.1767025165711,1.6739841276592209,337,2026-10-07 21:17:22.405244,25.0,0.5262578301603225,2.4348987763898537,4.046539122755593
0248,cdot_cos,S,R-S,338,67,66377,-0.0002755173343803831,-0.0007610717933574963,-0.14987781554258972,0.02304604414881854,1079.0,13.595661935183823,0.676885346285747,12.444433293424252,-0.09527770220052395,0.056,0.9999999999885455,14809.607852574727,1.6789512929311163,338,2026-10-07 21:17:22.461244,25.0,0.0204112743658205,0.38540564478016315,0.39692817161876953
