record_id,input,event,transition,event_index,k,peak,value_cos,value_sin,value_return,x_input,rr,knowledge,decision,decision_norm,entropy,delta_t,cosine_similarity,delta_h_over_delta_d,frobenius_norm,matrix_size,timestamp,scale,P,zdot,zdot_back
0401,cdot_cos,Q,P-Q,1,0,898,-0.03672754335996338,-0.047972588504424124,-0.08822789113518036,0.09924003702799196,758.0,0.000492939309371624,0.5001232348248476,0.5001232348248476,,,1.0,,0.004967141530112327,1,2026-10-07 22:31:16.982244,25.0,,,
0401,cdot_cos,R,Q-R,2,0,928,0.14631525962690942,0.3706795123157488,0.1830428029868728,0.9898096360483486,758.0,0.007650137155261746,0.5013523626671047,0.7090193108116141,-1.051024670603099e-05,,1.0,,0.009934283060224654,2,2026-10-07 22:31:17.012243,25.0,,,
0401,cdot_cos,S,R-S,3,0,971,0.02453143898180231,-0.0748406728244925,-0.12178382064510711,0.04545137480265846,758.0,0.009760499945354469,0.5014088030895835,0.8684655223134572,-6.626022225538646e-06,0.043,0.9999999999999998,0.06881990442140516,0.014901424596127168,3,2026-10-07 22:31:17.055244,25.0,0.5564335157152003,0.042273489284891184,0.04907820442076101
0401,cdot_cos,T,S-T,4,0,1164,-0.23469828310482072,0.007579424062389457,-0.25922972208662304,0.0015303259145376452,758.0,0.011285657233762387,0.5014107034108276,1.0028214068219556,-5.788533337235603e-06,0.193,1.0,0.44070911214876307,0.01986856615529424,4,2026-10-07 22:31:17.248243,25.0,0.8652985637784799,0.03614463982702187,0.007902369369989214
0401,cdot_cos,P,T-P,5,1,1542,0.037539679835928035,0.00018006002674438357,0.27223796294074876,0.9988940555795992,762.0,0.02371233091858491,0.5026510943469777,1.1239620159266563,-7.84278512409833e-05,0.378,1.0,-0.05856163229409103,0.024835707803722965,5,2026-10-07 22:31:17.626244,25.0,0.39605868421059887,0.02080324901532658,0.03287479810799609
0401,cdot_cos,Q,P-Q,6,1,1649,-0.05737764788321572,-0.05821062612448775,-0.09491732771914375,0.08526009885917676,762.0,0.02701291348934928,0.5027569659945273,1.2314980313229,-3.0191597840651858e-05,0.107,0.9999999999999998,0.455610680637902,0.029802849380639262,6,2026-10-07 22:31:17.733243,25.0,0.2023671952612674,0.08667082579201388,0.03084656608191
0401,cdot_cos,R,Q-R,7,1,1680,0.15853698095150387,0.3438621677002958,0.2159146288347196,0.995494163574739,762.0,0.04225988763807588,0.5039930991404898,1.3334404028289342,-0.0001904597742402406,0.031,0.9999999999999999,-0.12965284275651298,0.03476999091512111,7,2026-10-07 22:31:17.764243,25.0,0.43107187075373804,0.30496075701516573,0.4918378757653742
0401,cdot_cos,S,R-S,8,1,1728,0.04311178213161646,-0.1221769264197751,-0.11542519881988741,0.052868513732017605,762.0,0.045920480424289555,0.5040587462316216,1.4256934303189341,-5.820754204258127e-05,0.048,1.0,2.0145939434269016,0.039737132496371196,8,2026-10-07 22:31:17.812243,25.0,0.10309744310009941,0.06784239632550167,0.0762623497127849
0401,cdot_cos,T,S-T,9,1,1908,-0.17304917694255392,0.01785260768249933,-0.21616095907417038,0.0044782974783168505,762.0,0.04877275768532404,0.5040643069490263,1.5121929208641867,-4.8704216667977884e-05,0.18,1.0,1.7090106694964127,0.04470427429543201,9,2026-10-07 22:31:17.992243,25.0,0.8227332443653347,0.058651611933193834,0.015845984783524922
0401,cdot_cos,P,T-P,10,2,2304,0.03625763199894467,0.0020354475044428956,0.20930680894149858,0.9946891069199771,748.0,0.06703506072023933,0.5052993884138748,1.5978969677186792,-0.00038135477492267457,0.396,1.0,-0.2693349124913761,0.049671416644179886,10,2026-10-07 22:31:18.388243,25.0,0.4179947805861351,0.028893172614514673,0.0461169268558467
0401,cdot_cos,Q,P-Q,11,2,2417,-0.06041618191874771,-0.06655289092402009,-0.09667381391769238,0.08189714110658626,748.0,0.07165615039601966,0.5054010754417305,1.6762257359797823,-0.0001155652358007195,0.113,0.9999999999999997,2.6137998594966874,0.05463855838599172,11,2026-10-07 22:31:18.501244,25.0,0.10026795622544998,0.11019892018058766,0.04089459890071088
0401,cdot_cos,R,Q-R,12,2,2446,0.14177030210416608,0.35750393570947253,0.20218648402291378,0.9936609182765167,748.0,0.09194001668105214,0.506634809670979,1.7550344625878282,-0.0005983178183832268,0.029,1.0000000000000002,-0.3912938225573818,0.05960569989515758,12,2026-10-07 22:31:18.530244,25.0,0.44626168977032576,0.45758017493727376,0.69944366500112
0401,cdot_cos,S,R-S,13,2,2491,0.06905281841577429,-0.1442228771770942,-0.07271748368839179,0.1396815897010543,748.0,0.09819580054238154,0.5068082328796295,1.8273230706008279,-0.00021446167508706935,0.045,1.0000000000000002,2.2134069960015488,0.06457284152131944,13,2026-10-07 22:31:18.575244,25.0,0.16698372517911594,0.11168668200107633,0.1390174191406533
0401,cdot_cos,T,S-T,14,2,2683,-0.14431565638530136,0.001966741815963765,-0.21336847480107565,0.004800553844087546,748.0,0.10199181806114901,0.5068141930309876,1.8963250692209774,-0.00013701537480330177,0.192,1.0000000000000002,12.994015693621442,0.06953998387851124,14,2026-10-07 22:31:18.767244,25.0,0.5682248771274895,0.06908436660873524,0.019770924576913918
0401,cdot_cos,P,T-P,15,3,3052,0.07237625568339308,0.003246827963646108,0.21669191206869443,0.9955804928945466,747.0,0.12472419732013587,0.5080502165433314,1.967670027955883,-0.0009291782833593786,0.369,1.0000000000000002,-0.6408963103411955,0.07450712740604173,15,2026-10-07 22:31:19.136243,25.0,0.426330099848301,0.03854170186919935,0.06160536384549284
0401,cdot_cos,Q,P-Q,16,3,3162,-0.02446338632914618,-0.03268825358577426,-0.09683964201253925,0.08158596556343235,747.0,0.13043559404061814,0.5081515022084091,2.0326060092878193,-0.0002627384736343293,0.11,1.0000000000000002,6.579803856880007,0.07947426943201423,16,2026-10-07 22:31:19.246243,25.0,0.0791418099222695,0.13637216265176352,0.05192178836802059
0401,cdot_cos,R,Q-R,17,3,3193,0.15951762235070174,0.40195186515523307,0.18398100867984793,0.9900435191198803,747.0,0.15472607310352385,0.5093805452681107,2.1002297923040407,-0.0012487022318447268,0.031,1.0000000000000002,-0.8022206792736505,0.08444141092671226,17,2026-10-07 22:31:19.277244,25.0,0.45403055966207456,0.47106667845704214,0.783563840738894
0401,cdot_cos,S,R-S,18,3,3250,0.004653903126356661,-0.02025228193202999,-0.15486371922434508,0.02040032860924694,747.0,0.15964172810495475,0.5094058691572715,2.161226067286902,-0.00027858022729020793,0.057,1.0,38.308570946420666,0.08940855272831853,18,2026-10-07 22:31:19.334244,25.0,0.030734199454522555,0.0815027216339749,0.08623956142861232
0401,cdot_cos,T,S-T,19,3,3418,-0.39087365008139946,-0.15832909126950173,-0.3955275532077561,5.076823979818744e-05,747.0,0.164017383369797,0.5094059321782195,2.220448980198167,-0.00025530644028902064,0.168,1.0000000000000002,369.30239442594035,0.0943756955997476,19,2026-10-07 22:31:19.502244,25.0,0.9128714541624484,0.0918151764457044,0.026045567052632366
0401,cdot_cos,P,T-P,20,4,3799,0.0471069662806185,0.0005660362669282503,0.43798061636201796,0.999982433782759,763.0,0.19049162739071143,0.5106471957606802,2.2836836852566202,-0.0016917587130915624,0.381,1.0000000000000002,-1.1572499935548872,0.09934284096566685,20,2026-10-07 22:31:19.883244,25.0,0.4278048487946091,0.043558994140622045,0.069486204779303
0401,cdot_cos,Q,P-Q,21,4,3911,-0.046197539896923795,-0.05377443761261439,-0.0933045061775423,0.08845777047117885,763.0,0.197209336904951,0.5107569910020191,2.34058257421287,-0.0004694632414246186,0.112,1.0000000000000002,11.132499521486102,0.10430998340514581,21,2026-10-07 22:31:19.995244,25.0,0.0740065201447053,0.15399966987850067,0.05997954923428175
0401,cdot_cos,R,Q-R,22,4,3942,0.15261457266137593,0.3679492654338056,0.19881211255829973,0.9931068001454771,763.0,0.22498755344349558,0.5119895778051401,2.401443985966736,-0.0021137525771067864,0.031,1.0,-1.334015041795608,0.1092771248616361,22,2026-10-07 22:31:20.026243,25.0,0.45936941333987297,0.5462399361902198,0.896071501243374
0401,cdot_cos,S,R-S,23,4,4001,0.028827582954428676,-0.08437692228324287,-0.12378698970694725,0.043327451818814235,763.0,0.2310762129487446,0.5120433501255658,2.455673641223619,-0.0005004719849859915,0.059,1.0000000000000002,30.002063875040403,0.11424426684169454,23,2026-10-07 22:31:20.085243,25.0,0.03981473218496044,0.09415091258314864,0.10319761873303447
0401,cdot_cos,T,S-T,24,4,4176,-0.21764489150887056,0.013356420473790698,-0.24647247446329923,0.002103993503944457,763.0,0.23609736112830712,0.5120459613178026,2.5085026616462742,-0.0004227792967597358,0.175,0.9999999999999998,29.75372212442963,0.1192114106836207,24,2026-10-07 22:31:20.260243,25.0,0.8321300508685056,0.09905179329596821,0.028692275311785757
0401,cdot_cos,P,T-P,25,5,4562,0.025182275206212277,0.0013675132374067229,0.24282716671508284,0.9976957179103754,764.0,0.2657443406023335,0.5132840897339714,2.5664204505005204,-0.002681174553624126,0.386,1.0000000000000002,-1.824039596678106,0.12417855847942556,25,2026-10-07 22:31:20.646244,25.0,0.43071199435412083,0.04800675201270191,0.07680564630576778
0401,cdot_cos,Q,P-Q,26,5,4673,-0.06989681006451604,-0.07201521714674439,-0.09507908527072831,0.08494523728907472,764.0,0.273158573682113,0.5133894984379471,2.617783073257745,-0.0007200286347827967,0.111,0.9999999999999996,18.605161100298904,0.129145701416325,26,2026-10-07 22:31:20.757244,25.0,0.06563111030766985,0.1725776354085637,0.0667948926106262
0401,cdot_cos,R,Q-R,27,5,4704,0.14628975835661573,0.3400559591319212,0.21618656842113176,0.9955245559332085,764.0,0.3040565756630346,0.5146247554590484,2.6740686727609138,-0.0032135196274504004,0.031,0.9999999999999996,-2.018600947068137,0.13411284281847835,27,2026-10-07 22:31:20.788243,25.0,0.46027198669504277,0.6311805157070443,0.9967097413200526
0401,cdot_cos,S,R-S,28,5,4749,0.05886097131286117,-0.1443702594168433,-0.08742878704375456,0.10104021667405101,764.0,0.31229176565594974,0.5147501174563243,2.723801599198758,-0.0009145475514912754,0.045,0.9999999999999998,18.33866822415214,0.13907998465865642,28,2026-10-07 22:31:20.833244,25.0,0.08096156036347096,0.15480535480859223,0.18300422206478034
0401,cdot_cos,T,S-T,29,5,4939,-0.14332281238542693,0.011882723113059358,-0.2021837836982881,0.006339506964373634,764.0,0.3179890575958079,0.5147579829087668,2.77205657679884,-0.0006470064359924574,0.19,0.9999999999999998,34.01471402337888,0.14404713003587216,29,2026-10-07 22:31:21.023244,25.0,0.6613274926282126,0.09981916445563402,0.02998574705188518
0401,cdot_cos,P,T-P,30,6,5326,0.02404310671008871,0.0004641693803072996,0.16736591909551565,0.984993446429443,748.0,0.35022304814909067,0.5159799771015998,2.826138730489104,-0.00388033421918731,0.387,0.9999999999999996,-2.6459436568180066,0.1490142808789854,30,2026-10-07 22:31:21.410244,25.0,0.4346300251347885,0.052346043605833545,0.08329196525396057
0401,cdot_cos,Q,P-Q,31,6,5438,-0.06843857416848635,-0.06946368900334322,-0.09248168087857506,0.09013054433086087,748.0,0.3585048953467231,0.5160917847700506,2.8734774522821964,-0.0010574047428836457,0.112,0.9999999999999996,25.24808463872867,0.15398142449305274,31,2026-10-07 22:31:21.522244,25.0,0.06927457416400427,0.18744184428491753,0.07394506426457517
0401,cdot_cos,R,Q-R,32,6,5466,0.1465018784708931,0.35094198180402725,0.21494045263937944,0.9953835922161358,748.0,0.3922100212689122,0.5173264565363569,2.9264403695366785,-0.004557573974516588,0.028,0.9999999999999997,-2.8348985755980793,0.15894856573719537,32,2026-10-07 22:31:21.550244,25.0,0.46394486462260387,0.7634013146756534,1.2037544972210394
0401,cdot_cos,S,R-S,33,6,5522,0.06030974557663407,-0.13338477109268135,-0.08619213289425903,0.10388322310258273,748.0,0.4012553689685597,0.5174553011423542,2.97255439975012,-0.0012927310688147693,0.056,0.9999999999999994,25.33938367409044,0.1639157080467916,33,2026-10-07 22:31:21.606244,25.0,0.0800151621577978,0.13580893689275303,0.1615240660651337
0401,cdot_cos,T,S-T,34,6,5695,-0.15545263016223068,0.004339719869648997,-0.21576237573886475,0.004522942076520856,748.0,0.40742062220090053,0.5174609108183721,3.017289684231788,-0.0008980077010960529,0.173,0.9999999999999998,70.3647352284463,0.16888285437376443,34,2026-10-07 22:31:21.779244,25.0,0.6443233733328461,0.119472089768427,0.03563730192104538
0401,cdot_cos,P,T-P,35,7,6074,0.05235830964817504,0.00044767120847783056,0.20781093981040571,0.9944878519785286,760.0,0.4425927120284354,0.5186942363590226,3.068636492032119,-0.0053839490338221975,0.379,1.0,-3.6372727109504157,0.17385000855923333,35,2026-10-07 22:31:22.158243,25.0,0.4346533333746356,0.057750800824675035,0.09280234782990736
0401,cdot_cos,Q,P-Q,36,7,6184,-0.04643211501878055,-0.050402690917352104,-0.09879042466695559,0.07800544998265158,760.0,0.4511957292260042,0.5187909662758944,3.1127458064820446,-0.0013847017628369081,0.11,0.9999999999999992,41.344471289941175,0.17881715289539807,36,2026-10-07 22:31:22.268243,25.0,0.055678284401010844,0.2040793647938327,0.07820924725062532
0401,cdot_cos,R,Q-R,37,7,6213,0.16745481743963458,0.37541609744469306,0.21388693245841514,0.9952609737765544,760.0,0.4874901722830786,0.520025004067723,3.1631886190002136,-0.0061340571008590816,0.029,0.9999999999999994,-3.8486303818819647,0.18378429408848257,37,2026-10-07 22:31:22.297244,25.0,0.46104480638903117,0.7495713373302706,1.2515325192094624
0401,cdot_cos,S,R-S,38,7,6263,0.013385020222825035,-0.04993448089759043,-0.15406979721680955,0.020800773864408168,760.0,0.4946708667911599,0.5200507926797169,3.2058083981700873,-0.0012697982894559019,0.05,0.9999999999999994,188.6204194533317,0.18875143636197556,38,2026-10-07 22:31:22.347244,25.0,0.021693698050764845,0.13656834236838444,0.14361389016162573
0401,cdot_cos,T,S-T,39,7,6455,-0.30991550484342034,-0.05461012074940836,-0.3233005250662454,0.0003087983840801993,760.0,0.5011470065199171,0.5200511755243662,3.2477185600005942,-0.0011611322440707678,0.192,0.9999999999999993,283.8384853472555,0.1937185850791484,39,2026-10-07 22:31:22.539244,25.0,0.9106594438499767,0.11529462784714567,0.033729894420610196
0401,cdot_cos,P,T-P,40,8,6834,0.07158393891986357,0.004498617699939218,0.38149944376328393,0.9999279073304436,765.0,0.5389440038844638,0.521290748492653,3.29693218799879,-0.007076606132469701,0.379,0.9999999999999991,-4.772186906088001,0.19868574318707716,40,2026-10-07 22:31:22.918243,25.0,0.4334756664608966,0.06181754606047,0.09972822523627119
0401,cdot_cos,Q,P-Q,41,8,6947,-0.029270679568628277,-0.03860653310960252,-0.10085461848849185,0.07437388880311324,765.0,0.5480047064337533,0.5213829367153189,3.338479733140096,-0.0017728029256752695,0.113,0.9999999999999988,57.53232954731325,0.20365288851152802,41,2026-10-07 22:31:23.031244,25.0,0.05019894281457971,0.21070268548107374,0.08018320840079185
0401,cdot_cos,R,Q-R,42,8,6975,0.16083720054583597,0.37121379993997833,0.19010788011446425,0.9914454192906678,765.0,0.5865628108031865,0.5226117155690041,3.3869110294683766,-0.007873021931547118,0.028,0.9999999999999989,-4.964456368675891,0.20862002952555028,42,2026-10-07 22:31:23.059244,25.0,0.4607841310023501,0.8299387861439835,1.3770751560511854
0401,cdot_cos,S,R-S,43,8,7023,0.02177226886744873,-0.06358520702517972,-0.13906493167838724,0.02998473784161329,765.0,0.5944812784578164,0.5226488739022602,3.427237875416014,-0.0016830606690379456,0.048,0.9999999999999991,166.58339382024354,0.21358717184532497,43,2026-10-07 22:31:23.107244,25.0,0.02527851544120915,0.1544228497998313,0.16496807613812273
0401,cdot_cos,T,S-T,44,8,7212,-0.25409554584197797,0.01086205246933575,-0.2758678147094267,0.0010100999645799586,765.0,0.6013874043839703,0.5226501256557522,3.46686874219345,-0.0014863134260283781,0.189,0.9999999999999991,157.17730709085694,0.21855432236076866,44,2026-10-07 22:31:23.296243,25.0,0.8760144897608548,0.12438184794419632,0.03654034881562919
0401,cdot_cos,P,T-P,45,9,7599,0.09114663119979695,0.003695855803307596,0.3452421770417749,0.9998215554923293,760.0,0.6414976169807226,0.5238889997169566,3.514354265221518,-0.008969700794708262,0.387,0.9999999999999988,-6.04047465599924,0.22352148542943148,45,2026-10-07 22:31:23.683244,25.0,0.43417994587724545,0.06277311873994641,0.10364396019832633
0401,cdot_cos,Q,P-Q,46,9,7712,-0.034755118128699004,-0.04381663277858698,-0.12590174932849596,0.0411881711219422,760.0,0.6499737982886888,0.5239400295813463,3.5535341930195163,-0.0019695763683918476,0.113,0.9999999999999989,137.17701408826014,0.22848863172686726,46,2026-10-07 22:31:23.796243,25.0,0.02860633913970073,0.21799218175726282,0.07501045405279853
0401,cdot_cos,R,Q-R,47,9,7740,0.15554752276506925,0.36635766782430196,0.19030264089376825,0.9914866167308308,760.0,0.690763850057864,0.525168273317881,3.6003723110571824,-0.009837410972031838,0.028,0.9999999999999988,-6.405760004800291,0.2334557725828859,47,2026-10-07 22:31:23.824243,25.0,0.44942462680670936,0.8933850065955202,1.4567875631848273
0401,cdot_cos,S,R-S,48,9,7799,0.04261118646091643,-0.10242202266473434,-0.11293633630415281,0.056072259625214435,760.0,0.700003358658038,0.525237726117415,3.6389537329514168,-0.002311425889829283,0.059,0.9999999999999984,108.36114789743068,0.23842291583797195,48,2026-10-07 22:31:23.883244,25.0,0.03854255285344752,0.14100966502052908,0.15660184068091482
0401,cdot_cos,T,S-T,49,9,7973,-0.17626999443079547,0.013550794392174046,-0.2188811808917119,0.004185105318378205,760.0,0.7074029905302864,0.52524290987653,3.6767003918762167,-0.0018732934798965186,0.174,0.9999999999999984,84.52021018271705,0.24339006741380073,49,2026-10-07 22:31:24.057244,25.0,0.7914540257641325,0.14247594448326664,0.04252661995545091
0401,cdot_cos,P,T-P,50,10,8359,0.049784547253460314,0.001673585138485093,0.2260545416842558,0.9964995722744854,731.0,0.7495849873382148,0.5264770377540188,3.7227548601450073,-0.011052184438802768,0.386,0.9999999999999988,-7.437552563502251,0.24835723550933697,50,2026-10-07 22:31:24.443244,25.0,0.4358292741923576,0.06756048298569854,0.10927978447649828
0401,cdot_cos,Q,P-Q,51,10,8466,-0.05311724739355631,-0.05556033100406249,-0.10290179464701663,0.0709264246985705,731.0,0.7595596833952457,0.5265648653560623,3.7604253286231635,-0.002706994984444862,0.107,0.9999999999999981,95.01784473431931,0.25332438244620525,51,2026-10-07 22:31:24.550244,25.0,0.045829644898886114,0.24759464736183184,0.09322145847692469
0401,cdot_cos,R,Q-R,52,10,8498,0.15061058194201682,0.37851808044688834,0.20372782933557312,0.9938990778203515,731.0,0.8025702418736468,0.5277954269325539,3.805986980485348,-0.012079044701889509,0.032,0.9999999999999981,-7.616075372810616,0.2582915234926861,52,2026-10-07 22:31:24.582243,25.0,0.46029242330041076,0.821852865866661,1.3440799524500335
0401,cdot_cos,S,R-S,53,10,8554,0.03509596468359004,-0.0815880046579509,-0.11551461725842678,0.0527566883461024,731.0,0.812158266810712,0.527860736484848,3.842884199004512,-0.002783317105750501,0.056,0.9999999999999979,142.33335353880483,0.26325866684616456,53,2026-10-07 22:31:24.638243,25.0,0.035443980540635994,0.1540058349976719,0.171214731019022
0401,cdot_cos,T,S-T,54,10,8732,-0.24336114501643627,-0.11419223075068706,-0.2784571097000263,0.0009468451105768818,731.0,0.819818895393386,0.5278619086124583,3.878977024048704,-0.0022475656734692894,0.178,0.999999999999998,457.07602787535257,0.2682258209765235,54,2026-10-07 22:31:24.816243,25.0,0.7879113895483001,0.14614846346885424,0.04303723922850575
0401,cdot_cos,P,T-P,55,11,9090,0.048129150540913074,0.0026771663180581652,0.29149029555734934,0.9993162658304946,733.0,0.8641871198056241,0.5290988180546098,3.9239018884452683,-0.013428478312554339,0.358,0.9999999999999978,-9.039394686515514,0.2731929922004583,55,2026-10-07 22:31:25.174243,25.0,0.4349053196537605,0.0781835717330093,0.12393358774368182
0401,cdot_cos,Q,P-Q,56,11,9202,-0.03889138083210237,-0.0478927408415877,-0.08702053137301544,0.1019710566202836,733.0,0.8757983327542207,0.5292250134811305,3.9603574021061707,-0.0036309602352527816,0.112,0.9999999999999974,77.63766364143319,0.27816014082563023,56,2026-10-07 22:31:25.286243,25.0,0.06731804095125644,0.2525502664250831,0.10367154418389796
0401,cdot_cos,R,Q-R,57,11,9232,0.15055833846840394,0.40571624082185925,0.1894497193005063,0.9913047317034699,733.0,0.9207583794848427,0.5304516166635868,4.004821923634932,-0.014512370418302858,0.03,0.9999999999999973,-8.871173936839233,0.2831272816132783,57,2026-10-07 22:31:25.316243,25.0,0.47245990114781405,0.9091020505617553,1.498668224354068
0401,cdot_cos,S,R-S,58,11,9283,0.024287526938248486,-0.06153317384325511,-0.12627081153015546,0.04082533726712519,733.0,0.930344455787926,0.5305021246156388,4.040183855378665,-0.003188135194645526,0.051,0.999999999999997,224.20697659608828,0.28809442482703485,58,2026-10-07 22:31:25.367244,25.0,0.02866743650510769,0.17253310769800062,0.18796228045261335
0401,cdot_cos,T,S-T,59,11,9458,-0.26678035100795383,-0.08481462264105716,-0.2910678779462023,0.0006909879482021378,733.0,0.9383567564700388,0.5305029794810014,4.074870747907349,-0.0026900621723486315,0.175,0.9999999999999972,582.6332941792431,0.2930615811925195,59,2026-10-07 22:31:25.542243,25.0,0.8309771528802136,0.155415981477912,0.04578457532635876
0401,cdot_cos,P,T-P,60,12,9823,0.0603567913718167,0.00012928743856311224,0.32713714237977054,0.999719436131218,740.0,0.9847400493051952,0.5317396063207182,4.118837325759476,-0.016021150555143207,0.365,0.9999999999999969,-10.78020301245327,0.2980287590423301,60,2026-10-07 22:31:25.907244,25.0,0.4351375582481903,0.07908777468186393,0.12707751461686687
0401,cdot_cos,Q,P-Q,61,12,9936,-0.036298792435143765,-0.04989741937048854,-0.09665558380696046,0.0819314156874351,740.0,0.9960908319877995,0.5318409362672807,4.153810553678722,-0.004038247643360549,0.113,0.9999999999999966,118.25628373728225,0.3029959091738713,61,2026-10-07 22:31:26.020243,25.0,0.051439332724546205,0.25761042322221595,0.10044940427083411
0401,cdot_cos,R,Q-R,62,12,9965,0.14935283876215935,0.39246244939498437,0.1856516311973031,0.99044690221093,740.0,1.042960004953416,0.5330656766256832,4.197363390836593,-0.017159175076397682,0.029,0.999999999999997,-10.713231864222859,0.30796304972769567,62,2026-10-07 22:31:26.049243,25.0,0.4654923716379502,0.9825084564998462,1.6161783781247083
0401,cdot_cos,S,R-S,63,12,10018,0.026313086853883658,-0.06854128935059568,-0.1230397519082757,0.04410842020820038,740.0,1.0530763224647905,0.5331202098792034,4.231510538702305,-0.003807115227474678,0.053,0.9999999999999962,244.84253161184137,0.3129301934969612,63,2026-10-07 22:31:26.102243,25.0,0.029982748730842564,0.1743945015044356,0.1908739153089536
0401,cdot_cos,T,S-T,64,12,10207,-0.24528567449055486,-0.007992829287536684,-0.2715987613444385,0.001123739400052127,740.0,1.0614458221128862,0.5331215991991913,4.264972850484412,-0.0031775056920276415,0.189,0.9999999999999961,453.1782029416208,0.31789735428597826,64,2026-10-07 22:31:26.291244,25.0,0.8202502188654087,0.14986940649451766,0.04428306692114092
0401,cdot_cos,P,T-P,65,13,10563,0.0488050911480234,-0.0006118142442877143,0.2940907656385783,0.9993592749110334,733.0,1.1097269581197182,0.5343569376315739,4.308123422093413,-0.01881486026702409,0.356,0.9999999999999961,-12.65835674264363,0.32286453736982695,65,2026-10-07 22:31:26.647244,25.0,0.43556239038929584,0.08418056225877654,0.13562116855851697
0401,cdot_cos,Q,P-Q,66,13,10674,-0.0499324619662963,-0.059999071764639596,-0.0987375531143197,0.07810056686821941,733.0,1.121382382441135,0.5344534625661512,4.341920525503734,-0.004667308224291771,0.111,0.9999999999999954,146.5688850728586,0.3278316887366603,66,2026-10-07 22:31:26.758244,25.0,0.04825761810460692,0.2722784742485505,0.10500382271546724
0401,cdot_cos,R,Q-R,67,13,10703,0.1421980066392748,0.36881279787194815,0.1921304686055711,0.9918637931906594,733.0,1.1701727794028964,0.5356790857777964,4.384722362289147,-0.020060056252933754,0.029,0.9999999999999954,-12.559119215749504,0.33279882913627395,67,2026-10-07 22:31:26.787244,25.0,0.4642494592813397,1.0681930057687923,1.6824274814400464
0401,cdot_cos,S,R-S,68,13,10758,0.058156721353357727,-0.12067738322795139,-0.08404128528591706,0.10899654388334129,733.0,1.183337576775725,0.5358137442860224,4.418433399685143,-0.005558798892419602,0.055,0.9999999999999954,107.6891282367803,0.33776597357278526,68,2026-10-07 22:31:26.842243,25.0,0.07362995327366054,0.19904911705618356,0.2393599522332474
0401,cdot_cos,T,S-T,69,13,10929,-0.202227913277193,-0.009655207715273806,-0.2603846346305507,0.001486837630947871,733.0,1.1920681822790766,0.5358155811461653,4.4508185666571,-0.0037207681605698362,0.171,0.9999999999999948,1000.6372770755366,0.34273313502160696,69,2026-10-07 22:31:27.013243,25.0,0.6101854961876364,0.17186558371151228,0.05105617253421979
0401,cdot_cos,P,T-P,70,14,11296,0.03229858121996197,0.002229358840474575,0.23452649449715496,0.9971658141811215,728.0,1.2421156064050622,0.5370472724904408,4.493259931580108,-0.021848860924232397,0.367,0.9999999999999946,-14.718048355147074,0.3477003267667578,70,2026-10-07 22:31:27.380243,25.0,0.4361782670265746,0.08392286528554739,0.1363690030680807
0401,cdot_cos,Q,P-Q,71,14,11410,-0.07449549705660247,-0.08332691701761057,-0.10679407827656444,0.06477593648124669,728.0,1.2536675653986684,0.5371272677435577,4.525914895521832,-0.005170658212481931,0.114,0.9999999999999942,208.4899048620585,0.3526674802546507,71,2026-10-07 22:31:27.494244,25.0,0.03973402861173761,0.2728889227181644,0.1013329736281243
0401,cdot_cos,R,Q-R,72,14,11439,0.12599624284684133,0.3535166667784404,0.2004917399034438,0.9933883832788667,728.0,1.3043342807848037,0.5383538141208583,4.568083685189064,-0.023235134592774397,0.029,0.9999999999999942,-14.727919559021801,0.3576346204978301,72,2026-10-07 22:31:27.523244,25.0,0.4595700893339906,1.3912204749154398,1.7471281167632868
0401,cdot_cos,S,R-S,73,14,11498,0.12515847055021304,-0.21205891691395298,-0.0008377722966282919,0.4947641145442177,728.0,1.334358352943764,0.5389645319815951,4.604915073680712,-0.014200298242632553,0.059,0.9999999999999942,14.793797481607927,0.3626017661853797,73,2026-10-07 22:31:27.582243,25.0,0.529277336986368,0.3332061293332741,0.508882578965427
0401,cdot_cos,T,S-T,74,14,11662,-0.09216571343814554,-0.006176258871450863,-0.21732418398835857,0.004350499598407522,728.0,1.34365260404613,0.538969901555516,4.636394498013003,-0.004461337581014405,0.164,0.9999999999999937,1813.7306246277885,0.3675689302368013,74,2026-10-07 22:31:27.746243,25.0,0.11270643273507087,0.1838690695474895,0.05667226281930577
0401,cdot_cos,P,T-P,75,15,12024,0.05535013119425888,0.0037631678376921873,0.1475158446324044,0.9755863462621639,744.0,1.3946674077553405,0.5401737815148029,4.678042274582531,-0.025029501118649024,0.362,0.9999999999999936,-17.084895698254634,0.3725361303164208,75,2026-10-07 22:31:28.108243,25.0,0.43965856951419957,0.0902512399281707,0.14092487212489063
0401,cdot_cos,Q,P-Q,76,15,12136,-0.025552778038314062,-0.03588176041923334,-0.08090290923257294,0.11685322695959964,744.0,1.4089945017541257,0.5403179480088839,4.710382782644186,-0.007196730430266328,0.112,0.999999999999993,123.69566730507724,0.3775032857536918,76,2026-10-07 22:31:28.220243,25.0,0.08391936029292268,0.29771555870515454,0.12792048213201052
0401,cdot_cos,R,Q-R,77,15,12166,0.15566107108348723,0.40358298177156804,0.1812138491218013,0.9893379600624655,744.0,1.461355692905295,0.5415382610062088,4.751979076277198,-0.026916661218672436,0.03,0.9999999999999921,-16.159731832435007,0.38247042614015914,77,2026-10-07 22:31:28.250243,25.0,0.48064364035318247,1.0516545873051841,1.7453730383723147
0401,cdot_cos,S,R-S,78,15,12225,0.015451813594262826,-0.03801219078586789,-0.14020925748922441,0.02916374650522636,744.0,1.4720937769924367,0.5415742259576845,4.783054177231457,-0.0056412710861016915,0.059,0.999999999999992,591.5589833895085,0.3874375725210838,78,2026-10-07 22:31:28.309243,25.0,0.02302021958076457,0.17094049445791515,0.18200142520579
0401,cdot_cos,T,S-T,79,15,12402,-0.28133782801964374,0.004368298501085382,-0.2967896416139066,0.0005989453705113265,744.0,1.481526671251329,0.5415749645770805,4.813623701125757,-0.004989661714172884,0.177,0.9999999999999917,882.199107386181,0.39240474221093413,79,2026-10-07 22:31:28.486243,25.0,0.8775758455953386,0.1785297561480777,0.053293187903346764
0401,cdot_cos,P,T-P,80,16,12768,0.06295006265340554,1.0283524166126524e-05,0.34428789067304927,0.9998172479123035,729.0,1.5352933106688562,0.5428076819425371,4.855019634725498,-0.02903699968231279,0.366,0.9999999999999915,-19.507584335224053,0.3973719510788668,80,2026-10-07 22:31:28.852243,25.0,0.43685150842185994,0.092372381539854,0.14690338638668615
0401,cdot_cos,Q,P-Q,81,16,12876,-0.026826761154503474,-0.03673279625400299,-0.08977682380790901,0.09583182065626691,729.0,1.5491432545385022,0.5429258097997052,4.886332438727719,-0.007647079145273409,0.108,0.9999999999999906,181.07431261208836,0.4023391074988863,81,2026-10-07 22:31:28.960243,25.0,0.060984470964563726,0.31418545896307615,0.1282402210152407
0401,cdot_cos,R,Q-R,82,16,12906,0.15281683196201198,0.3827786777106918,0.17964359311651545,0.988915814329547,729.0,1.6031573698048807,0.5441445204495147,4.927438358895704,-0.030466381477917026,0.03,0.9999999999999903,-18.724134671515873,0.407306247671482,82,2026-10-07 22:31:28.990243,25.0,0.472839425516167,1.220902401398749,1.8004705088792816
0401,cdot_cos,S,R-S,83,16,12949,0.09977297457116967,-0.15742173363050344,-0.05304385739084232,0.20980579375126515,729.0,1.6223973986224272,0.5444030114532779,4.959747632280774,-0.011103401500537954,0.043,0.9999999999999897,74.9077518965358,0.4122733910869506,83,2026-10-07 22:31:29.033243,25.0,0.17484101320955212,0.3398577565595646,0.4474425306406162
0401,cdot_cos,T,S-T,84,16,13146,-0.10924500103527715,-0.004022437971735071,-0.2090179756064468,0.005349175065705906,729.0,1.6323851368690032,0.5444096015865508,4.989596574502749,-0.005816128740894555,0.197,0.9999999999999893,802.3013406002254,0.4172405693033458,84,2026-10-07 22:31:29.230243,25.0,0.4028984266760887,0.1637744197897673,0.05069917891662975
0401,cdot_cos,P,T-P,85,17,13497,0.04522534744084429,0.0024299050236941252,0.15447034847612146,0.9794022121109746,731.0,1.6869245200195955,0.5456159514535721,5.030330690037244,-0.032375215470011265,0.351,0.9999999999999889,-22.01607299439287,0.42220778403896264,85,2026-10-07 22:31:29.581243,25.0,0.44027645989448955,0.09726771003868245,0.15538285797889534
0401,cdot_cos,Q,P-Q,86,17,13612,-0.05057936696818653,-0.058991913519893656,-0.09580471440903082,0.08354574246878098,731.0,1.7006670693161583,0.5457188318823937,5.060788442527714,-0.00832523624875393,0.115,0.999999999999988,233.76631976301644,0.4271749441914133,86,2026-10-07 22:31:29.696243,25.0,0.05564269850168906,0.30193794676348684,0.11950042866576367
0401,cdot_cos,R,Q-R,87,17,13640,0.13126959456641993,0.36677141646031386,0.18184896153460645,0.9895041502101546,731.0,1.7563702477751975,0.5469370340745339,5.101489231173343,-0.034421078990742794,0.028,0.9999999999999879,-21.421602185875628,0.43214208370522694,87,2026-10-07 22:31:29.724244,25.0,0.46853919342037126,1.3330746227874184,1.98939923067997
0401,cdot_cos,S,R-S,88,17,13694,0.07343929148928201,-0.139247048149165,-0.05783030307713792,0.1906553378690144,731.0,1.7753192481922537,0.5471716902900158,5.132925635865443,-0.011961084276304903,0.054,0.9999999999999869,95.71446751713842,0.4371092301356551,88,2026-10-07 22:31:29.778244,25.0,0.15293294144942177,0.26931546006936163,0.3509074151306717
0401,cdot_cos,T,S-T,89,17,13885,-0.18215824843382156,-0.014794100207765977,-0.2555975399231036,0.0016755472500343202,731.0,1.7854563174626885,0.5471737524399239,5.162027056202904,-0.006451465917501258,0.191,0.9999999999999863,2671.783625906618,0.4420764115046334,89,2026-10-07 22:31:29.969243,25.0,0.42570430120870417,0.17591441311303255,0.053073661101752795
0401,cdot_cos,P,T-P,90,18,14228,0.08255460125895499,0.005937499470490516,0.26471284969277653,0.9986654440838507,744.0,1.8425185540014322,0.5484025515835321,5.202603625426927,-0.03698354576461085,0.343,0.9999999999999857,-24.847087504843746,0.44704363347258425,90,2026-10-07 22:31:30.312243,25.0,0.4379903150716077,0.10224864606198278,0.16636220565231383
0401,cdot_cos,Q,P-Q,91,18,14339,-0.02707044015458604,-0.03789263314810508,-0.10962504141354103,0.060618244756567054,744.0,1.8555988886612087,0.5484771199286801,5.232138494302398,-0.008641365500145895,0.111,0.9999999999999845,380.0832673465766,0.452010794916636,91,2026-10-07 22:31:30.423244,25.0,0.037634782823557235,0.31740930793244304,0.11784085279077962
0401,cdot_cos,R,Q-R,92,18,14369,0.161216363520334,0.41675286335658585,0.18828680367492004,0.9910505200893441,744.0,1.9129834203624345,0.5496959301918327,5.272498384117944,-0.038614087842150195,0.03,0.9999999999999845,-24.591786964835368,0.4569779347539119,92,2026-10-07 22:31:30.453243,25.0,0.46014569870833905,1.1447768622933396,1.9128177233741939
0401,cdot_cos,S,R-S,93,18,14414,0.004486607049598881,-0.022762562294514063,-0.15672975647073512,0.019488613018646572,744.0,1.924285500398809,0.5497198916790947,5.301306896373181,-0.007743715194349434,0.045,0.9999999999999826,1288.3329114852074,0.46194507916158595,93,2026-10-07 22:31:30.498244,25.0,0.01856445183810602,0.24025167884535523,0.251157334141657
0401,cdot_cos,T,S-T,94,18,14606,-0.3884543438167446,-0.1852312172865857,-0.39294095086634345,5.415945822813929e-05,744.0,1.9346060714585165,0.5497199582684875,5.329732984824532,-0.007111071576459566,0.192,0.9999999999999822,9500.666570167914,0.4669122651793901,94,2026-10-07 22:31:30.690243,25.0,0.9148766757626257,0.17967961127027773,0.05375297426930941
0401,cdot_cos,P,T-P,95,19,14972,0.06387171107830074,-0.0008929409026881134,0.45232605489504535,0.999987727672719,742.0,1.9932824711265957,0.5509491433289689,5.369988255674015,-0.041131466541049246,0.366,0.9999999999999818,-27.67719528845018,0.4718795025803253,95,2026-10-07 22:31:31.056243,25.0,0.4373097214073022,0.10046339288134246,0.16031803187999796
0401,cdot_cos,Q,P-Q,96,19,15078,-0.028482480686715144,-0.036373497713364164,-0.09235419176501589,0.09039226108910649,742.0,2.008145275047659,0.5510602230765234,5.399265746116038,-0.01061322617476107,0.106,0.9999999999999803,274.7417151928294,0.4768466646154883,96,2026-10-07 22:31:31.162244,25.0,0.056388424621271374,0.34831655461892885,0.14021513133078706
0401,cdot_cos,R,Q-R,97,19,15108,0.16633313643210382,0.3837156688793984,0.19481561711881895,0.9923880167515443,742.0,2.0671255807058087,0.5522793951946694,5.4393215273798035,-0.042872021182247144,0.03,0.9999999999999802,-26.45959051010871,0.481813804190857,97,2026-10-07 22:31:31.192243,25.0,0.47121349958013464,1.1788061833461003,1.966010188604983
0401,cdot_cos,S,R-S,98,19,15167,0.015978497831636743,-0.04763789269121079,-0.15035463860046708,0.022779173745606177,742.0,2.078873646048425,0.5523073726270461,5.467564337138624,-0.008687621590206841,0.059,0.9999999999999786,1221.8562136712255,0.48678095318574305,98,2026-10-07 22:31:31.251244,25.0,0.01954882991825636,0.18947203350773742,0.19911975156977155
0401,cdot_cos,T,S-T,99,19,15345,-0.28021283233463945,-0.001841125987400045,-0.2961913301662762,0.0006079661176131748,742.0,2.0894832806597217,0.5523081193278613,5.495396703656168,-0.007888065640867505,0.178,0.9999999999999775,1070.784888787145,0.4917481394486126,99,2026-10-07 22:31:31.429244,25.0,0.9036051993730833,0.19886129657749627,0.059604688827508384
0401,cdot_cos,P,T-P,100,20,15714,0.0499756674717328,0.001415124987527374,0.33018849980637227,0.9997400373241382,759.0,2.149668267630014,0.5535356732492681,5.535357049333035,-0.04548246881504363,0.369,0.9999999999999775,-30.62545972000256,0.4967153878635362,100,2026-10-07 22:31:31.798244,25.0,0.4375478984872088,0.1041594407525428,0.16310294571894898
0401,cdot_cos,Q,P-Q,101,20,15826,-0.029929458148258238,-0.0395393222469403,-0.07990512561999104,0.11945217706471462,759.0,2.1663529479350982,0.5536823020136142,5.5644386180462915,-0.012836621966674039,0.112,0.9999999999999754,222.6428558813165,0.5016825539670705,101,2026-10-07 22:31:31.910244,25.0,0.07861596259017851,0.3439917459185926,0.14897035986682508
0401,cdot_cos,R,Q-R,102,20,15856,0.1544694254244635,0.3758336321267674,0.18439888357272174,0.9901459721580362,759.0,2.2267224187157786,0.5548973543575676,5.604188928751017,-0.0472501716131426,0.03,0.9999999999999754,-28.32268899173411,0.5066496932605417,102,2026-10-07 22:31:31.940243,25.0,0.4827161652024501,1.2090406634518585,2.0123156926893446
0401,cdot_cos,S,R-S,103,20,15913,0.008701501392278304,-0.03330271735670792,-0.14576792403218522,0.025476352876717765,759.0,2.2388953877422098,0.5549286089329213,5.631910637806042,-0.009684772079335506,0.057,0.9999999999999738,1201.9168108573385,0.5116168422361735,103,2026-10-07 22:31:31.997243,25.0,0.020675395622664988,0.20213023363760943,0.21356086011282752
0401,cdot_cos,T,S-T,104,20,16083,-0.2917368135428503,-0.043132961371970445,-0.3004383149351286,0.0005467577189527368,759.0,2.249765265350466,0.5549292796945134,5.659190815170113,-0.008692658844325084,0.17,0.9999999999999725,1479.0847398069418,0.516584030254317,104,2026-10-07 22:31:32.167244,25.0,0.8921399089324553,0.21337249695333133,0.06394045651915474
0401,cdot_cos,P,T-P,105,21,16473,0.043567163305594146,0.0004295331256731708,0.33530397684844443,0.99977123795728,751.0,2.3114420367063424,0.5561554604483232,5.6988980006143795,-0.0500925414582256,0.39,0.9999999999999718,-33.76327877049986,0.5215512968927392,105,2026-10-07 22:31:32.557244,25.0,0.4375921349443208,0.09932145502304468,0.15814556757917012
0401,cdot_cos,Q,P-Q,106,21,16585,-0.047008610886196,-0.05437820902900216,-0.09057577419179014,0.09411504883954579,751.0,2.327236000268441,0.5562708539320036,5.727159388236781,-0.013044702049565274,0.112,0.9999999999999701,321.0565989260915,0.5265184653428093,106,2026-10-07 22:31:32.669244,25.0,0.05842169965648865,0.3471192746095344,0.1410175318044509
0401,cdot_cos,R,Q-R,107,21,16613,0.14987428205761638,0.35690692766541227,0.1968828929438124,0.9927686529311543,751.0,2.389196754218878,0.5574877051437279,5.766698090219581,-0.052003851859147465,0.028,0.9999999999999695,-32.016362751840155,0.53148560355897,107,2026-10-07 22:31:32.697243,25.0,0.47276401506464144,1.3768420503943049,2.2128840696584717
0401,cdot_cos,S,R-S,108,21,16670,0.05083813262941774,-0.11774420001242149,-0.09903614942819863,0.07756477694776641,751.0,2.404339155090522,0.5575827485721607,5.794570328739359,-0.012916256089176245,0.057,0.999999999999968,411.2603723844559,0.5364527531486675,108,2026-10-07 22:31:32.754244,25.0,0.04849800380777458,0.2313587791589033,0.26565615564287487
0401,cdot_cos,T,S-T,109,21,16843,-0.1895669957728364,0.004256927752341842,-0.24040512840225414,0.002447767295124861,751.0,2.415571655042993,0.5575857478571923,5.821366546291477,-0.009633869167841683,0.173,0.9999999999999662,1094.3897918331938,0.5414199468140315,109,2026-10-07 22:31:32.927244,25.0,0.7112628301085264,0.21450595343344944,0.06492774539000641
0401,cdot_cos,P,T-P,110,22,17224,0.04059167755954011,0.00184012843762029,0.2301586733323765,0.9968398380387206,728.0,2.4785582149784955,0.5588068387529627,5.860816020611579,-0.05482244487504249,0.381,0.9999999999999656,-37.00672559571535,0.5463872221206031,110,2026-10-07 22:31:33.308243,25.0,0.4385543882810322,0.10384725298845245,0.16531905494882518
0401,cdot_cos,Q,P-Q,111,22,17335,-0.050173073923822406,-0.06279814726103033,-0.09076475148336252,0.09371302764968593,728.0,2.494703261820194,0.5589215973135513,5.888604918424801,-0.014278803858160879,0.111,0.999999999999963,353.2951337915336,0.5513543927368808,111,2026-10-07 22:31:33.419244,25.0,0.05845907234219849,0.35736851148412335,0.1454508724477331
0401,cdot_cos,R,Q-R,112,22,17367,0.12904926515121343,0.3690331440552814,0.17922233907503582,0.9887997803724412,728.0,2.557894024527971,0.560132070138026,5.927881140931908,-0.05674473273093843,0.032,0.999999999999963,-35.08210016297158,0.5563215322110493,112,2026-10-07 22:31:33.451244,25.0,0.4731381950124506,1.3042828779601805,1.9747113346180316
0401,cdot_cos,S,R-S,113,22,17413,0.06515691735661214,-0.12037742064507813,-0.06389234779460129,0.16835809806111693,728.0,2.5781773660096454,0.5603381005922211,5.956476220613121,-0.01851331021196595,0.046,0.9999999999999611,185.56199697919618,0.5612886779537563,113,2026-10-07 22:31:33.497243,25.0,0.12680844780662245,0.3463795495887832,0.44094220612335966
0401,cdot_cos,T,S-T,114,22,17597,-0.1577401825255175,-0.014324783689691357,-0.22289709988212963,0.0037868469997753597,728.0,2.589760943090139,0.5603427345576109,5.98282373554062,-0.010638307915018685,0.184,0.9999999999999593,1699.40895855113,0.5662558813200752,114,2026-10-07 22:31:33.681243,25.0,0.47699488228729897,0.20620802053304868,0.0629542232635517
0401,cdot_cos,P,T-P,115,23,17952,0.049263576819994284,0.000929018568879705,0.2070037593455118,0.9943761215399095,716.0,2.6540619175658073,0.561559186393788,6.022051908948615,-0.05988480127957587,0.355,0.9999999999999589,-40.48371822046073,0.571223158520611,115,2026-10-07 22:31:34.036243,25.0,0.4393961894874631,0.11456665819405168,0.1811295055652631
0401,cdot_cos,Q,P-Q,116,23,18063,-0.037176237326596064,-0.04802000047106653,-0.08643981414659035,0.10330820983693295,716.0,2.6711032704079156,0.5616855244391948,6.049538815324523,-0.01611612909652004,0.111,0.9999999999999563,346.4409477137851,0.5761903320275287,116,2026-10-07 22:31:34.147244,25.0,0.06615000394447194,0.3676575754390475,0.15352570128025478
0401,cdot_cos,R,Q-R,117,23,18094,0.13968410929913427,0.40405858966933517,0.17686034662573033,0.9881265817261901,716.0,2.735681899313276,0.5628935213466825,6.08862495165639,-0.061970637094213785,0.031,0.9999999999999558,-37.959126975797595,0.5811574709525917,117,2026-10-07 22:31:34.178244,25.0,0.4771428913382836,1.2733168503971606,2.083181577592266
0401,cdot_cos,S,R-S,118,23,18153,0.021954844867714655,-0.049528960048405145,-0.11772926443141962,0.05005738116721769,716.0,2.7500489151325396,0.5629546973864769,6.115253896208614,-0.013987674192160408,0.059,0.9999999999999539,784.3424167913624,0.5861246229955231,118,2026-10-07 22:31:34.237243,25.0,0.03237480941522404,0.22061508121315607,0.2435087426993847
0401,cdot_cos,T,S-T,119,23,18326,-0.26917509783354765,-0.06369973473895203,-0.2911299427012623,0.000689917368733585,716.0,2.7617144788964283,0.5629555405337185,6.141120523184788,-0.0114114428069297,0.173,0.9999999999999509,3055.4940558929475,0.5910918267874233,119,2026-10-07 22:31:34.410244,25.0,0.7979106917418969,0.22439481737593794,0.06743100441554174
0401,cdot_cos,P,T-P,120,24,18668,0.05385619352093392,0.0022259766187594046,0.32303129135448155,0.9996891167802243,728.0,2.827689521944614,0.564176874903972,6.180248636916282,-0.06540565025998367,0.342,0.999999999999951,-44.20919345932374,0.5960591098584647,120,2026-10-07 22:31:34.752243,25.0,0.43800358640825493,0.12040333613088132,0.1929094825970345
0401,cdot_cos,Q,P-Q,121,24,18781,-0.04139486248153738,-0.05353142363297684,-0.0952510560024713,0.08461165289770486,728.0,2.844070360809951,0.5642802106418738,6.207082985796484,-0.016477852800911935,0.113,0.9999999999999477,473.48379614345976,0.6010262871288876,121,2026-10-07 22:31:34.865243,25.0,0.05133889518873158,0.3646908107550495,0.14496317579944276
0401,cdot_cos,R,Q-R,122,24,18812,0.14210388121458797,0.4154683175001153,0.18349874369612534,0.9899239678660675,728.0,2.9101096451752553,0.5654887821666978,6.246028433088845,-0.06735274816718465,0.031,0.9999999999999473,-42.09506373541363,0.6059934258665886,122,2026-10-07 22:31:34.896243,25.0,0.469846160461471,1.2938573771938107,2.1302994956549726
0401,cdot_cos,S,R-S,123,24,18869,0.016359098400063523,-0.04218705932646025,-0.12574478281452445,0.04134342232940486,728.0,2.9242895181959674,0.5655392404073293,6.272134276476451,-0.01466311776015642,0.057,0.9999999999999448,1044.222504543756,0.6109605778198233,123,2026-10-07 22:31:34.953243,25.0,0.027506187895925956,0.2286703376914489,0.2487697021177563
0401,cdot_cos,T,S-T,124,24,19042,-0.2913173689385028,-0.09013573309025419,-0.3076764673385663,0.00045629634326689773,728.0,2.9361780636720805,0.565539797293919,6.297585349601178,-0.01234862797462057,0.173,0.9999999999999427,4156.124116140046,0.615927786837439,124,2026-10-07 22:31:35.126244,25.0,0.8290880623835102,0.228985057937221,0.06871991604689634
0401,cdot_cos,P,T-P,125,25,19396,0.05440803173213057,-0.003031948773368471,0.34572540067063334,0.9998236978607429,718.0,3.003518348242246,0.5667596317772062,6.3365660338300165,-0.07084538289843254,0.354,0.9999999999999423,-47.95466575610692,0.6208950876638656,125,2026-10-07 22:31:35.480243,25.0,0.43793005212823105,0.11909641095274072,0.19022679257108868
0401,cdot_cos,Q,P-Q,126,25,19498,-0.03838694529625123,-0.04573121323673466,-0.0927949770283818,0.08949029082266183,718.0,3.020498322626621,0.5668687751536714,6.363086990221006,-0.018116310821870235,0.102,0.9999999999999385,483.11747157088365,0.6258622622476044,126,2026-10-07 22:31:35.582243,25.0,0.054443842207606986,0.41482045263326733,0.1664703371017161
0401,cdot_cos,R,Q-R,127,25,19530,0.1711071488223543,0.40904055319621474,0.20949409411860553,0.9947137839445864,718.0,3.0881417205794324,0.5680815002170923,6.401954161275283,-0.07313528064189752,0.032,0.9999999999999382,-45.36804876847354,0.630829401312841,127,2026-10-07 22:31:35.614244,25.0,0.4712858805641578,1.263715698243878,2.113856186025359
0401,cdot_cos,S,R-S,128,25,19589,0.014563706251288331,-0.04513560319085103,-0.15654344257106598,0.019577818420994757,718.0,3.101376127314229,0.5681053607647613,6.42737923495369,-0.014498148378857085,0.059,0.9999999999999356,2457.493142087567,0.6357965551639131,128,2026-10-07 22:31:35.673243,25.0,0.017519221574613067,0.21485867492263894,0.22431197855587628
0401,cdot_cos,T,S-T,129,25,19758,-0.290152448020705,-0.04059146013171891,-0.30471615427199333,0.0004913296319904562,718.0,3.1134950442203038,0.5681059595707298,6.452444144061077,-0.013330518381672303,0.169,0.9999999999999328,1949.930459006859,0.6407637674252287,129,2026-10-07 22:31:35.842243,25.0,0.9161357358289076,0.2390219214566043,0.07170956749156623
0401,cdot_cos,P,T-P,130,26,20114,0.06323616389788136,-0.0033216913460247517,0.3533886119185864,0.9998544310757724,719.0,3.1821655367665613,0.5693241133091069,6.491294449135711,-0.07646560549945408,0.356,0.999999999999932,-51.8285049979777,0.6457310819163586,130,2026-10-07 22:31:36.198244,25.0,0.4379430161537995,0.1191134556534416,0.19289464198386957
0401,cdot_cos,Q,P-Q,131,26,20222,-0.04085378789744536,-0.04931234614190891,-0.10408995179532672,0.06899383188495403,719.0,3.198303824645554,0.5694081398748543,6.517174922135909,-0.01821143262420884,0.108,0.9999999999999284,693.2828011845836,0.6506982623871699,131,2026-10-07 22:31:36.306243,25.0,0.040812398018903705,0.39342612261980653,0.14942859147215604
0401,cdot_cos,R,Q-R,132,26,20250,0.15624552277530118,0.38764229320178184,0.19709931067274655,0.9928073914238724,719.0,3.2671455792524395,0.5706168203831317,6.55588903928165,-0.07866558427090639,0.028,0.9999999999999278,-50.01665140844964,0.6556653989939494,132,2026-10-07 22:31:36.334244,25.0,0.46371017141215587,1.5092205225662854,2.4586340931030484
0401,cdot_cos,S,R-S,133,26,20309,0.044742205621845846,-0.09463618444216815,-0.11150331715345534,0.057998870967947806,719.0,3.282820173909266,0.5706874044752581,6.581489111440723,-0.018144784101347695,0.059,0.9999999999999252,857.4283290508323,0.660632553768566,133,2026-10-07 22:31:36.393243,25.0,0.03559899480144065,0.23860812449411545,0.26567109587841753
0401,cdot_cos,T,S-T,134,26,20487,-0.18981744639089657,-0.009230177127666297,-0.23455965201274243,0.002831844078612206,719.0,3.295301337942745,0.5706908507298519,6.606225115197532,-0.014510172640357238,0.178,0.9999999999999222,1054.655528793582,0.6655997766233726,134,2026-10-07 22:31:36.571244,25.0,0.778421500352847,0.2312740478660767,0.07011889906448869
0401,cdot_cos,P,T-P,135,27,20833,0.05278645075798927,7.647662492254364e-06,0.24260389714888583,0.9976828499323287,740.0,3.3651537349495895,0.571904566773156,6.644931523518817,-0.08216633249471313,0.346,0.9999999999999212,-55.74298883796139,0.6705670984810621,135,2026-10-07 22:31:36.917243,25.0,0.4389345839127819,0.12657061459125,0.20188554048220902
0401,cdot_cos,Q,P-Q,136,27,20943,-0.03908640074904419,-0.049263314649647234,-0.09187285150703345,0.09138656297529654,740.0,3.38288820323989,0.5720156987028704,6.670793042812159,-0.021133735562396106,0.11,0.9999999999999178,549.1904719840157,0.6755342831355832,136,2026-10-07 22:31:37.027244,25.0,0.05569177510051028,0.39869079012714204,0.16122243900273342
0401,cdot_cos,R,Q-R,137,27,20974,0.14511109875637263,0.37213902632320656,0.1841974995054168,0.9900967285080601,740.0,3.4528657087775607,0.5732192518852328,6.709360342209813,-0.08441409912862544,0.031,0.9999999999999167,-52.5779537569065,0.6805014212059809,137,2026-10-07 22:31:37.058244,25.0,0.47253563724466807,1.409534337905937,2.257338888311954
0401,cdot_cos,S,R-S,138,27,21027,0.0489459021247445,-0.10984577309646551,-0.09616519663162812,0.08285831141792496,740.0,3.4702793321900582,0.5733199346442867,6.734985290777288,-0.021273380647289522,0.053,0.999999999999914,627.1254291668,0.6854685732942883,138,2026-10-07 22:31:37.111244,25.0,0.051402818609784,0.28381547409296054,0.3285589323112741
0401,cdot_cos,T,S-T,139,27,21216,-0.1985786077662529,-0.006014424058260068,-0.24752450989099742,0.0020494899118829435,740.0,3.4829501490314145,0.5733224249426954,6.759372728003859,-0.015546565696276183,0.189,0.9999999999999105,2299.6500865066278,0.6904358090927525,139,2026-10-07 22:31:37.300243,25.0,0.6918644146192573,0.2217554615865798,0.06704135894897509
0401,cdot_cos,P,T-P,140,28,21573,0.047287542672332504,-0.0025036795409385795,0.24586615043858542,0.9978639396530001,725.0,3.5541028966697854,0.5745344676336847,6.7979845583195635,-0.0882891823928775,0.357,0.99999999999991,-60.01654664261664,0.6954031513285329,140,2026-10-07 22:31:37.657243,25.0,0.43871155543747237,0.12526762553622742,0.19930741635398005
0401,cdot_cos,Q,P-Q,141,28,21671,-0.04276308837038471,-0.045713947176495594,-0.09005063104271721,0.09524033756662374,725.0,3.572391233664281,0.5746501035139158,6.823593041808258,-0.02297970788838405,0.098,0.9999999999999059,564.7855524942963,0.7003703315200661,141,2026-10-07 22:31:37.755244,25.0,0.05830602694188268,0.4588959695435225,0.18661568361730105
0401,cdot_cos,R,Q-R,142,28,21703,0.18876467970165403,0.40128617225082114,0.23152776807203873,0.996945847161484,725.0,3.644046506700316,0.5758600510039183,6.862165629831475,-0.0911048877399564,0.032,0.9999999999999049,-56.304244948205906,0.7053374699971955,142,2026-10-07 22:31:37.787244,25.0,0.47342277907893404,1.3334148748827337,2.239227282376091
0401,cdot_cos,S,R-S,143,28,21743,0.020629860310557593,-0.06080223685879219,-0.16813481939109642,0.014725051877094195,725.0,3.657729785656776,0.5758779153485948,6.886499419792751,-0.017602913581900533,0.04,0.9999999999999013,4114.451186951333,0.7103046142562144,143,2026-10-07 22:31:37.827244,25.0,0.015366625578954336,0.33112178413520765,0.3420819739115011
0401,cdot_cos,T,S-T,144,28,21933,-0.2721365656629578,-0.031401784611791356,-0.2927664259735154,0.0006622793262343651,725.0,3.6705362494311324,0.5758787188172443,6.910545782709523,-0.016534691255985914,0.19,0.9999999999998975,1329.5133874570415,0.715271857374521,144,2026-10-07 22:31:38.017244,25.0,0.9374377576631765,0.22453865928807076,0.06740244091766615
0401,cdot_cos,P,T-P,145,29,22298,0.05427309610842324,0.0016528383410089017,0.32640966177138103,0.999714288299797,754.0,3.7430544761862428,0.5770910995561364,6.9490982510287775,-0.0946480138900894,0.365,0.9999999999998969,-64.4296961575676,0.7202392190317811,145,2026-10-07 22:31:38.382244,25.0,0.43810207543111374,0.12574722704614835,0.19868007330167214
0401,cdot_cos,Q,P-Q,146,29,22412,-0.030806281358638755,-0.042781886147791416,-0.085079377467062,0.1065016093921788,754.0,3.7623317251748207,0.5772202025120059,6.974579517905012,-0.025469380651460857,0.114,0.9999999999998924,535.8408161354039,0.7252064127950615,146,2026-10-07 22:31:38.496243,25.0,0.06612892602886536,0.4017365452762866,0.1690986753384032
0401,cdot_cos,R,Q-R,147,29,22443,0.14318822235698436,0.38140050312454093,0.1739945037156231,0.9872559218411879,754.0,3.834650408509236,0.5784164656921954,7.012928241169681,-0.09664077903336812,0.031,0.9999999999998918,-59.49476633614411,0.73017355027739,147,2026-10-07 22:31:38.527244,25.0,0.47880921007034455,1.422035967578219,2.332860752723077
0401,cdot_cos,S,R-S,148,29,22502,0.022609862928597863,-0.05698927594820786,-0.1205783594283865,0.04677692238606426,754.0,3.8504979551646703,0.5784731228197442,7.037430571125335,-0.021422358831206443,0.059,0.9999999999998878,1327.6073718601622,0.7351407079849666,148,2026-10-07 22:31:38.586244,25.0,0.029860733656807668,0.2453661554605222,0.2686024856853254
0401,cdot_cos,T,S-T,149,29,22677,-0.22661693189953255,0.0014175707291772348,-0.24922679482813043,0.0019642671212263766,754.0,3.8636036148535777,0.5784755019334885,7.061194695405273,-0.017782653815382538,0.175,0.9999999999998833,1529.8575044916051,0.7401079474104458,149,2026-10-07 22:31:38.761244,25.0,0.8149102709068297,0.24795638220460478,0.07488948393661385
0401,cdot_cos,P,T-P,150,30,23052,0.030024466999067533,0.0013810944020538835,0.2566413988986001,0.998367542553836,739.0,3.937282688936282,0.5796842475485757,7.099654438595885,-0.10101823838814222,0.375,0.9999999999998826,-68.86112638907402,0.7450753312440894,150,2026-10-07 22:31:39.136243,25.0,0.4386884019204382,0.12223669743468986,0.19647753088721132
0401,cdot_cos,Q,P-Q,151,30,23162,-0.06755691360779925,-0.07146543874053451,-0.09758138060686679,0.08020724616121012,739.0,3.955281137929595,0.5797813149745031,7.1244735100807945,-0.024965328954925647,0.11,0.9999999999998777,783.5059877871979,0.7500425255053969,151,2026-10-07 22:31:39.246243,25.0,0.04753252000027071,0.41800937262114907,0.16362226357557413
0401,cdot_cos,R,Q-R,152,30,23193,0.13870143202251878,0.3495763692398749,0.20625834563031803,0.994270942074536,739.0,4.029244750912935,0.5809840747326029,7.162854188448652,-0.10370663036279025,0.031,0.9999999999998773,-65.46718983370808,0.7550096625933854,152,2026-10-07 22:31:39.277244,25.0,0.46800809177390446,1.622093290478874,2.385922999462569
0401,cdot_cos,S,R-S,153,30,23244,0.08753008447539454,-0.17671373233346419,-0.05117134754712424,0.21767218028070745,739.0,4.055850921939285,0.5812472627736829,7.1896330369169,-0.03776857918780188,0.051,0.9999999999998735,250.5358940490761,0.7599768153322769,153,2026-10-07 22:31:39.328243,25.0,0.17449763317204553,0.39303030624147783,0.5216896279676577
0401,cdot_cos,T,S-T,154,30,23429,-0.1325999300629067,-0.004151565446793443,-0.22013001453830125,0.004056983350377587,739.0,4.0693338421495655,0.581252167645121,7.213151175402486,-0.019234411806668694,0.185,0.9999999999998689,3778.7264385979115,0.7649440693425047,154,2026-10-07 22:31:39.513243,25.0,0.3815191680397126,0.23633528283442598,0.07288064978529833
0401,cdot_cos,P,T-P,155,31,23791,0.028970593877831845,0.0010244860056863334,0.16157052394073856,0.9826943159946568,737.0,4.143294976588023,0.582439764569707,7.251318104060693,-0.10656152421971353,0.362,0.9999999999998681,-73.53261919525852,0.7699114603670624,155,2026-10-07 22:31:39.875243,25.0,0.44065215979961725,0.12726691564423082,0.2043125260730868
0401,cdot_cos,Q,P-Q,156,31,23902,-0.06985264156964563,-0.07210896807302232,-0.09882323544747748,0.07794647612437623,737.0,4.161475089075989,0.5825339230206188,7.275847973672968,-0.02648567975526427,0.111,0.9999999999998626,850.4371481163076,0.7748786591591045,156,2026-10-07 22:31:39.986243,25.0,0.048637338311423084,0.42086957489814497,0.16378479718888012
0401,cdot_cos,R,Q-R,157,31,23932,0.14308303389801474,0.37184068306407053,0.21293567546766037,0.9951474756396788,737.0,4.236728022215411,0.5837355187215535,7.314186717189314,-0.11077449841017852,0.03,0.9999999999998619,-70.14740364778898,0.7798457952004328,157,2026-10-07 22:31:40.016243,25.0,0.4672435957115589,1.619287013861707,2.508431104647417
0401,cdot_cos,S,R-S,158,31,23984,0.06880726722240353,-0.14359897117268794,-0.07427576667561121,0.13506547297559288,737.0,4.258632309907691,0.5838985278556135,7.339492322439964,-0.032613101342215386,0.052,0.999999999999857,479.49090410605254,0.7848129494901293,158,2026-10-07 22:31:40.068243,25.0,0.09102457925885633,0.3434952656140492,0.4212363017746139
0401,cdot_cos,T,S-T,159,31,24154,-0.13690076214999694,-0.003364515561967355,-0.20570802937240046,0.0058079615153580864,737.0,4.272451529839272,0.5839055370135506,7.362770316499349,-0.020661736141121975,0.17,0.9999999999998518,1705.10713387154,0.7897801988148728,159,2026-10-07 22:31:40.238244,25.0,0.5607781743538004,0.2635545273331593,0.08128952900930114
0401,cdot_cos,P,T-P,160,32,24528,0.059916014136159906,0.0025672646831195853,0.19681677628615685,0.992756776883225,745.0,4.348240849200965,0.5851031138644724,7.401035712218297,-0.11441085981288382,0.374,0.9999999999998517,-78.28234455233526,0.79474761604217,160,2026-10-07 22:31:40.612243,25.0,0.4406926603920965,0.12692176883289424,0.20264523893500797
0401,cdot_cos,Q,P-Q,161,32,24640,-0.033345004217157914,-0.04414898181212266,-0.09326101835331782,0.08854547353925112,745.0,4.367389012926277,0.5852098789425572,7.425482720564256,-0.029222037543348154,0.112,0.9999999999998456,797.9090522646513,0.7997148194199617,161,2026-10-07 22:31:40.724244,25.0,0.05419182189899821,0.4260145732581774,0.17096574754742783
0401,cdot_cos,R,Q-R,162,32,24669,0.1611811670442893,0.40727581567259413,0.19452617126144722,0.992333159388024,745.0,4.443668113610797,0.5864058504834369,7.4637297824586915,-0.1175846875154614,0.029,0.9999999999998447,-73.88357243611202,0.8046819542655709,162,2026-10-07 22:31:40.753243,25.0,0.471667530099757,1.5856865053549167,2.63031381670758
0401,cdot_cos,S,R-S,163,32,24718,0.02413398135883345,-0.06021493318795161,-0.13704718568545585,0.031487228754283766,745.0,4.459358830236862,0.5864437826619229,7.487214828429189,-0.0244391414587236,0.049,0.9999999999998391,2455.5812445905744,0.809649106734089,163,2026-10-07 22:31:40.802243,25.0,0.022118820162152043,0.2997917305493698,0.32021870665439506
0401,cdot_cos,T,S-T,164,32,24911,-0.28122397783085745,-0.03485252793628878,-0.3053579591896909,0.0004835128774789516,745.0,4.473047703204635,0.5864443651344287,7.510154090957534,-0.021391511743910536,0.193,0.9999999999998339,5232.22930619491,0.8146163821677425,164,2026-10-07 22:31:40.995244,25.0,0.8672143390848353,0.23598625115928656,0.07092680294182839
0401,cdot_cos,P,T-P,165,33,25273,0.04334253440402252,0.001528288643876381,0.32456651223488,0.9997008190643291,758.0,4.550449523184347,0.5876481532979796,7.5484790917289,-0.12208319498210368,0.362,0.9999999999998332,-83.64568309192612,0.8195838055335775,165,2026-10-07 22:31:41.357243,25.0,0.43833175341597186,0.13378968745354516,0.21381718226439708
0401,cdot_cos,Q,P-Q,166,33,25384,-0.04971431043968456,-0.05534657413350601,-0.09305684484370708,0.08895828609168166,758.0,4.569911436921002,0.5877552217280521,7.572698300973,-0.031023711897275204,0.111,0.9999999999998267,850.4792964947557,0.8245510116495193,166,2026-10-07 22:31:41.468243,25.0,0.05312234771322206,0.4369433488301014,0.17533255618608068
0401,cdot_cos,R,Q-R,167,33,25415,0.1537355043394073,0.3744378462299333,0.20344981477909185,0.9938567878905357,758.0,4.647450946624629,0.5889508413082453,7.61092421733627,-0.12480932230429674,0.031,0.9999999999998258,-78.44101247644849,0.8295181477642496,167,2026-10-07 22:31:41.499244,25.0,0.4716910171161754,1.5233856024913621,2.5012745065686306
0401,cdot_cos,S,R-S,168,33,25463,0.033227879672502236,-0.09082683567529826,-0.12050762466690507,0.04685583513880666,758.0,4.664361344275466,0.589007183538609,7.634407681598126,-0.027497131461670946,0.048,0.9999999999998194,1727.1625602027964,0.8344852998437817,168,2026-10-07 22:31:41.547244,25.0,0.029042521166715678,0.321441694589845,0.3522999510591022
0401,cdot_cos,T,S-T,169,33,25653,-0.23130847029842527,0.005493857832064829,-0.2645363499709275,0.0013404497349722223,758.0,4.6783093493052545,0.5890087953403963,7.65711637916509,-0.022755269711545716,0.19,0.9999999999998134,2941.963328000591,0.8394525804420052,169,2026-10-07 22:31:41.737243,25.0,0.8118942233852695,0.24341023190236635,0.07341055278835902
0401,cdot_cos,P,T-P,170,34,26031,0.06772827748941564,4.056595218308283e-05,0.2990367477878409,0.9994337557859808,753.0,4.7568572323983656,0.5902100140991963,7.695399183142305,-0.12929938903902588,0.378,0.999999999999813,-88.69668288723591,0.8444200350917985,170,2026-10-07 22:31:42.115244,25.0,0.43866861968546844,0.1294657521748638,0.2077986325214577
0401,cdot_cos,Q,P-Q,171,34,26141,-0.02863553365051187,-0.038020651876594924,-0.09636381113992751,0.08248176025386936,753.0,4.776185457949452,0.5903091010156855,7.719295368406568,-0.032144290647793394,0.11,0.9999999999998054,980.5038024554268,0.8493872439103266,171,2026-10-07 22:31:42.225244,25.0,0.048680912546037874,0.44471206781036604,0.1757111413735095
0401,cdot_cos,R,Q-R,172,34,26172,0.1598440108537985,0.38555368812506025,0.18847954450431037,0.9910931564471955,753.0,4.854693887316646,0.591499144672533,7.7574408045942125,-0.13178737849292532,0.031,0.9999999999998045,-83.73061548774868,0.8543543795418685,172,2026-10-07 22:31:42.256243,25.0,0.4694986932763294,1.5223433404638251,2.532529979586919
0401,cdot_cos,S,R-S,173,34,26222,0.016945460411742788,-0.04567216284213037,-0.14289855044205574,0.027319265317790588,753.0,4.870570745058209,0.5915319328478638,7.7803900813099665,-0.02691205258100344,0.05,0.9999999999997983,3198.571584231158,0.8593215339379447,173,2026-10-07 22:31:42.306243,25.0,0.020303439778401353,0.2997300718933005,0.31753715483125333
0401,cdot_cos,T,S-T,174,34,26396,-0.2794636201037845,-0.008325397578845302,-0.2964090805155273,0.0006046674845994632,753.0,4.884666894505976,0.5915326585515603,7.802853933872419,-0.023967291488029608,0.174,0.9999999999997916,4057.8008722439754,0.8642888069641436,174,2026-10-07 22:31:42.480243,25.0,0.8843823147055018,0.2695482622801766,0.0810123531480884
0401,cdot_cos,P,T-P,175,35,26784,0.04656099767999217,0.0015171331813742543,0.32602461778377667,0.999711525527851,755.0,4.96437354033171,0.5927319343090781,7.8411087792442755,-0.13670098166644487,0.388,0.9999999999997908,-94.00147503335556,0.8692562889137043,175,2026-10-07 22:31:42.868243,25.0,0.4383780573036885,0.12912207495370917,0.20542949955086096
0401,cdot_cos,Q,P-Q,176,35,26898,-0.04312588161207083,-0.05210289745585171,-0.089686879292063,0.09602683580375397,755.0,4.9848656246700545,0.5928470722928658,7.865007638267247,-0.0354993802440479,0.114,0.9999999999997831,878.9592981669311,0.8742235053132995,176,2026-10-07 22:31:42.982244,25.0,0.05779811566145136,0.43941892733812576,0.17975512577494968
0401,cdot_cos,R,Q-R,177,35,26926,0.14960695690815845,0.36744411389052445,0.19273283852022927,0.991984425639476,755.0,5.064561055764803,0.5940358813701845,7.903135863623255,-0.13932194526474742,0.028,0.9999999999997822,-87.33325392742567,0.8791906374622686,177,2026-10-07 22:31:43.010243,25.0,0.4746398687898541,1.7594006744634516,2.846265396241015
0401,cdot_cos,S,R-S,178,35,26975,0.04525583945440222,-0.10953534293868701,-0.10435111745375622,0.06857561945917376,755.0,5.083392062440008,0.5941180228811732,7.926525562911863,-0.03324061206170519,0.049,0.9999999999997752,1291.44609012117,0.884157791426665,178,2026-10-07 22:31:43.059244,25.0,0.04111767976230624,0.33972752488986796,0.3843062586776505
0401,cdot_cos,T,S-T,179,35,27159,-0.18624978980949786,0.007698741234365745,-0.2315056292639001,0.003055838522017554,755.0,5.09785435320401,0.5941216831148277,7.948808875347801,-0.02561260981051214,0.184,0.9999999999997682,2084.0205766133845,0.8891250819013519,179,2026-10-07 22:31:43.243244,25.0,0.7424333775988304,0.2587012594337487,0.07859940632609883
0401,cdot_cos,P,T-P,180,36,27539,0.06591624158489866,0.00117998389241215,0.25216603139439653,0.9981746395658702,757.0,5.178594125911627,0.5953167186207633,7.987014466434144,-0.1441910827425999,0.38,0.9999999999997672,-99.22589943405387,0.8940925747084276,180,2026-10-07 22:31:43.623244,25.0,0.43938890831909866,0.1329036153671432,0.2124730860726772
0401,cdot_cos,Q,P-Q,181,36,27647,-0.02746195198636115,-0.03499772757557079,-0.09337819357125982,0.08830934216400069,757.0,5.198861100883039,0.5954223902398852,8.010591687489349,-0.036546965957973326,0.108,0.9999999999997593,1018.6662954454874,0.8990597889709412,181,2026-10-07 22:31:43.731244,25.0,0.05258291767195328,0.4682573059023289,0.1876571756612176
0401,cdot_cos,R,Q-R,182,36,27678,0.17017177341383746,0.3858261441276147,0.1976337254001986,0.9929021706975535,757.0,5.27973770398653,0.5966098934293095,8.048710232590299,-0.14712493825466486,0.031,0.9999999999997582,-93.11804236104888,0.9040269236757082,182,2026-10-07 22:31:43.762244,25.0,0.4716149969634992,1.5556696685018216,2.6089226807577917
0401,cdot_cos,S,R-S,183,36,27737,0.0059704069504948176,-0.021886170535456547,-0.16420136646334266,0.016221964166215692,757.0,5.295312620330152,0.5966292854151278,8.07105411096272,-0.028593125801127148,0.059,0.9999999999997503,6112.412290512721,0.9089940888079404,183,2026-10-07 22:31:43.821243,25.0,0.015836064814606338,0.2546877745401666,0.2639816329427357
0401,cdot_cos,T,S-T,184,36,27893,-0.30289086609151866,-0.052370619134488684,-0.3088612730420135,0.0004429848845828601,757.0,5.30979086138227,0.5966298149618464,8.093083319864949,-0.02665532630590577,0.156,0.9999999999997422,3659.355118647584,0.9139613572371136,184,2026-10-07 22:31:43.977243,25.0,0.9298812426651508,0.3090706167817763,0.09280923751357857
0401,cdot_cos,P,T-P,185,37,28296,0.02616245550984154,0.0013338916815563437,0.3290533216013602,0.9997325560429039,766.0,5.391742652766066,0.5978243252096263,8.13129273646554,-0.1521031932558437,0.403,0.999999999999742,-105.0203354748111,0.9189288934358176,185,2026-10-07 22:31:44.380243,25.0,0.4383423795427391,0.1254115634747904,0.2033543210516028
0401,cdot_cos,Q,P-Q,186,37,28407,-0.0788294154482162,-0.07932903981389443,-0.10499187095805775,0.06755949228163441,766.0,5.410872581542951,0.5979050056077397,8.1543400688675,-0.0358383198959354,0.111,0.9999999999997329,1441.0547800764243,0.9238961146161566,186,2026-10-07 22:31:44.491244,25.0,0.039001714919600874,0.4566029879997817,0.17234170069265883
0401,cdot_cos,R,Q-R,187,37,28437,0.15132236381621145,0.3473491397513934,0.23015177926442765,0.9968392950541548,766.0,5.4931085161020174,0.5990948253502388,8.192501521926996,-0.15535614316780116,0.03,0.9999999999997318,-100.45036151512363,0.9288632476552728,187,2026-10-07 22:31:44.521244,25.0,0.4633303051556292,1.7436541245901291,2.7411978186355475
0401,cdot_cos,S,R-S,188,37,28496,0.06901806656501595,-0.16648838538432642,-0.0823042972511955,0.11328594668165709,766.0,5.515491829018359,0.5992299689788396,8.21623039178407,-0.042686421780677795,0.059,0.999999999999724,833.7035386251825,0.9338304138661667,188,2026-10-07 22:31:44.580243,25.0,0.07139878042622992,0.31608619520838127,0.37937818502273435
0401,cdot_cos,T,S-T,189,37,28668,-0.15283382622970268,0.01265821293137379,-0.22185189279471862,0.003886712457725126,766.0,5.530406687136606,0.5992346053359384,8.23811683628444,-0.028539858571488025,0.172,0.9999999999997152,3051.2238181264183,0.9387977069722901,189,2026-10-07 22:31:44.752243,25.0,0.6091581170422427,0.2824068329444717,0.08671429138516085
0401,cdot_cos,P,T-P,190,38,29062,0.02241840939379633,-0.0008264515821680894,0.175252235623499,0.9876455296757563,741.0,5.612639779551257,0.6004121638395941,8.276113623858851,-0.15858305563487934,0.394,0.9999999999997146,-110.43459552937894,0.9437652538726979,190,2026-10-07 22:31:45.146244,25.0,0.44041751430315257,0.13213610138433815,0.2087134325244939
0401,cdot_cos,Q,P-Q,191,38,29165,-0.06372688165956732,-0.061686562427920436,-0.08614529105336365,0.10399228811190374,741.0,5.634529935027465,0.6005360854005629,8.299577073758726,-0.042604284127039316,0.103,0.9999999999997053,935.9047013375658,0.9487324700020227,191,2026-10-07 22:31:45.249243,25.0,0.06572784595239363,0.5109145201587553,0.21252578132240654
0401,cdot_cos,R,Q-R,192,38,29195,0.16991045965577936,0.35724141952924165,0.2336373413153467,0.9971022927167315,741.0,5.717888170703961,0.6017236187920153,8.337730322609811,-0.16359234357413352,0.03,0.999999999999704,-101.88181681284952,0.9536996025279494,192,2026-10-07 22:31:45.279244,25.0,0.4773189146414784,1.6933068451645106,2.77860785588319
0401,cdot_cos,S,R-S,193,38,29241,0.051132097050278484,-0.13394733322671792,-0.11877836260550087,0.04882483841025977,741.0,5.7361283457373355,0.6017817378068923,8.360222374972725,-0.03611532360147911,0.046,0.9999999999996954,2193.3788837015945,0.9586667545939025,193,2026-10-07 22:31:45.325243,25.0,0.02931308996677739,0.36601801485304086,0.39652554420380304
0401,cdot_cos,T,S-T,194,38,29428,-0.13894950105093126,0.006242552789929279,-0.19008159810120975,0.00856015521575139,741.0,5.75156182807044,0.6017919271566856,8.381994924834043,-0.03064767974469194,0.187,0.999999999999686,536.6038037434973,0.9636340731364178,194,2026-10-07 22:31:45.512243,25.0,0.8366050440299156,0.2645078105856473,0.08253199108612203
0401,cdot_cos,P,T-P,195,39,29803,0.04596872014429292,-0.0017910967684255784,0.1849182211952242,0.9902718478131901,732.0,5.835054266896368,0.6029700731612351,8.420022216813324,-0.1670579834567449,0.375,0.9999999999996857,-115.78386989838148,0.9686016180149049,195,2026-10-07 22:31:45.887244,25.0,0.4419561294498882,0.1414312670800193,0.22264650353580606
0401,cdot_cos,Q,P-Q,196,39,29905,-0.03772904272533062,-0.04165296676946644,-0.08369776286962355,0.10983338946276183,732.0,5.857635278380455,0.6031006708571887,8.443412932944128,-0.0455903050440717,0.102,0.9999999999996756,930.0905159601405,0.9735688367462775,196,2026-10-07 22:31:45.989243,25.0,0.06964590757745119,0.5240912562051933,0.22138246553026666
0401,cdot_cos,R,Q-R,197,39,29935,0.17902858886927644,0.38477000470180184,0.21675763159460706,0.9955877161184137,732.0,5.941968883162227,0.6042838049927047,8.481530953621672,-0.17164744612610583,0.03,0.9999999999996746,-106.54509687276422,0.9785359688145024,197,2026-10-07 22:31:46.019244,25.0,0.47979532642192274,1.6789385034685633,2.811120159392407
0401,cdot_cos,S,R-S,198,39,29988,0.02165100601152563,-0.060171308806043544,-0.1573775828577508,0.019181529779105345,732.0,5.958371588588569,0.60430658795751,8.503351013872695,-0.03366941388530992,0.053,0.9999999999996647,6056.193011752252,0.9835031300273767,198,2026-10-07 22:31:46.072243,25.0,0.01660547211688265,0.296885432235513,0.30948500804418094
0401,cdot_cos,T,S-T,199,39,30169,-0.27738793549754487,-0.0773193133450651,-0.2990389415090705,0.0005662131779049422,732.0,5.973438738979191,0.6043072604733665,8.524806573123964,-0.031009724005065006,0.181,0.9999999999996556,3954.8359414043503,0.9884704498027257,199,2026-10-07 22:31:46.253243,25.0,0.9178057208990208,0.2770305555385063,0.08324392481007065
0401,cdot_cos,P,T-P,200,40,30535,0.052920561282489204,0.0023152105246284226,0.33030849678003404,0.9997408158220665,730.0,6.058656649693508,0.6054940783086823,8.562983049814605,-0.17667700818428278,0.366,0.9999999999996537,-122.73769389423975,0.9934380032078177,200,2026-10-07 22:31:46.619244,25.0,0.43846138415990477,0.14800433849789546,0.23283582162381558
0401,cdot_cos,Q,P-Q,201,40,30647,-0.029298536119981948,-0.04123001909496138,-0.08221909740247116,0.11350008588039977,730.0,6.081777914759651,0.6056287388361448,8.586273118370642,-0.048361756613539586,0.112,0.9999999999996441,952.8794665274393,0.9984052384261194,201,2026-10-07 22:31:46.731244,25.0,0.070422812695678,0.4817218415519535,0.2064398666619909
0401,cdot_cos,R,Q-R,202,40,30678,0.1436985498312774,0.41380807190127644,0.17299708595125934,0.9869383503756753,730.0,6.1665623422011455,0.6067989994726872,8.624238068798029,-0.17872991969016858,0.031,0.9999999999996426,-111.40096402951896,1.0033723712698952,202,2026-10-07 22:31:46.762244,25.0,0.48219131656277864,1.644516602152626,2.734981530370794
0401,cdot_cos,S,R-S,203,40,30732,0.000742186438234698,-0.007151027551366813,-0.14295636339304268,0.02728088506750309,730.0,6.183737944093114,0.6068313304010335,8.646019479549922,-0.03650740062754001,0.054,0.9999999999996328,4398.961809546834,1.0083395346541404,203,2026-10-07 22:31:46.816243,25.0,0.020328783559084376,0.3000357501344329,0.31806670170311496
0401,cdot_cos,T,S-T,204,40,30910,-0.33500294007152365,-0.04747863944327071,-0.33574512650975835,0.00022625351448769045,730.0,6.198966203215664,0.6068315985330749,8.66729277085115,-0.03245316753527919,0.178,0.9999999999996224,15120.285781146642,1.013306859075816,204,2026-10-07 22:31:46.994244,25.0,0.8825625174894538,0.2851530667965844,0.08555201754241881
0401,cdot_cos,P,T-P,205,41,31265,0.03028438817202033,0.002080636615590761,0.365287328243544,0.99989188243191,722.0,6.285252435872698,0.6080159350151793,8.70546735252925,-0.1851956153615979,0.355,0.9999999999996214,-128.968794033028,1.0182744177816732,205,2026-10-07 22:31:47.349244,25.0,0.43833896939399863,0.15153088964711203,0.24305981030150284
0401,cdot_cos,Q,P-Q,206,41,31377,-0.0652817597279734,-0.0707138139590908,-0.09556614789999374,0.08400352936020229,722.0,6.306553134865114,0.6081153765598715,8.728101788654197,-0.04610739475818981,0.112,0.9999999999996103,1398.6932829121547,1.0232416574609393,206,2026-10-07 22:31:47.461244,25.0,0.04896673078335895,0.4800317178422061,0.1901848124322861
0401,cdot_cos,R,Q-R,207,41,31405,0.130803559481338,0.3481835911112237,0.1960853192093114,0.992624091700225,722.0,6.392779540669352,0.6092897419139951,8.766157064339898,-0.1880374318843966,0.028,0.999999999999609,-120.85679863412018,1.0282087858702256,207,2026-10-07 22:31:47.489243,25.0,0.4701061674434037,1.9352881453254454,3.0795144930085043
0401,cdot_cos,S,R-S,208,41,31446,0.04012766278246296,-0.11425298426426257,-0.09067589669887505,0.09390186090833685,722.0,6.414929271003339,0.6094007711287087,8.788907125952184,-0.04871007263368504,0.041,0.999999999999599,1254.871158100874,1.0331759326683758,208,2026-10-07 22:31:47.530244,25.0,0.05724930383970901,0.4596319923829072,0.5402373252191907
0401,cdot_cos,T,S-T,209,41,31630,-0.2099555195812837,-0.01776110925068983,-0.25008318236374666,0.0019227397639456887,722.0,6.43046936404475,0.6094030444507874,8.810041841456751,-0.034275138374361906,0.184,0.9999999999995882,6349.7092623210865,1.038143274187689,209,2026-10-07 22:31:47.714243,25.0,0.6562924213014821,0.2795103948179196,0.08445702739897594
0401,cdot_cos,P,T-P,210,42,31987,0.10575850656083119,0.021047629406199846,0.31571402614211486,0.9996267357661841,694.0,6.517789096296333,0.6105842925620983,8.848211333201423,-0.19392209403810984,0.357,0.9999999999995873,-135.15107802930115,1.0431108556830762,210,2026-10-07 22:31:48.071244,25.0,0.4390012355408758,0.14849354225405842,0.24459308753944778
0401,cdot_cos,Q,P-Q,211,42,32096,-0.017002143300755307,-0.02533576189989434,-0.1227606498615865,0.0444035513902674,694.0,6.536493753214148,0.6106367337764341,8.870015411347751,-0.04187792837024905,0.109,0.999999999999575,2899.3257992522663,1.0480780959094305,211,2026-10-07 22:31:48.180243,25.0,0.026498913340315344,0.4841529011664806,0.1716023570441731
0401,cdot_cos,R,Q-R,212,42,32123,0.1556308631510903,0.4635626485493966,0.1726330064518456,0.9868204947290693,694.0,6.623334428750626,0.6118015201260647,8.907969140132401,-0.19578627003998633,0.027,0.9999999999995736,-132.13439676602576,1.053045222399622,212,2026-10-07 22:31:48.207244,25.0,0.455616489477996,1.924071015592645,3.216321316165848
0401,cdot_cos,S,R-S,213,42,32175,0.0001442927470174235,-0.0011754774120825299,-0.15548657040407288,0.020091462589320486,694.0,6.640393588056151,0.6118252217238488,8.929299691540637,-0.03876345285139095,0.052,0.9999999999995625,6624.988687219147,1.0580123850774212,213,2026-10-07 22:31:48.259244,25.0,0.017408522082569013,0.31590729324770805,0.32806075587547945
0401,cdot_cos,T,S-T,214,42,32349,-0.2307175247215363,-0.03850928863683427,-0.23086181746855372,0.00310526712969346,694.0,6.656188787248388,0.6118288849138205,8.950289540894651,-0.035980141646626086,0.174,0.999999999999551,759.8053134763236,1.0629797211437424,214,2026-10-07 22:31:48.433243,25.0,0.9255594885787558,0.29917465785551506,0.09077700685193511
0401,cdot_cos,P,T-P,215,43,32681,0.06137254907549731,0.005277305497023069,0.2920900737970336,0.9993264347178765,705.0,6.74450636898987,0.6130071016913883,8.98845318193396,-0.20252910007134106,0.332,0.9999999999995504,-141.3568042788555,1.067947286060052,215,2026-10-07 22:31:48.765243,25.0,0.439399692965081,0.16890531067402564,0.26601681247434494
0401,cdot_cos,Q,P-Q,216,43,32794,-0.021490839796405717,-0.03387306864011771,-0.08286338887190303,0.11188946753125956,705.0,6.768341913535941,0.6131389385834365,9.01127007862321,-0.055109997617156625,0.113,0.999999999999538,1118.1930957556028,1.0729145366897739,216,2026-10-07 22:31:48.878243,25.0,0.06890700490904549,0.491860284197454,0.2109340225315974
0401,cdot_cos,R,Q-R,217,43,32823,0.13330365918905604,0.4347931478193023,0.15479449898546177,0.9795650599737177,705.0,6.855666793218495,0.6142924286811757,9.04909742178393,-0.2033389909945949,0.029,0.9999999999995367,-128.5047818511461,1.077881665655551,217,2026-10-07 22:31:48.907244,25.0,0.48240331293035166,1.8424280628328493,3.011202747674279
0401,cdot_cos,S,R-S,218,43,32875,0.01655567380071274,-0.0378246664855474,-0.1167479853883433,0.05123687695607001,705.0,6.875202741180246,0.6143527276488197,9.070814208694783,-0.045844274238760765,0.052,0.9999999999995262,2611.897399071061,1.0828488294664211,218,2026-10-07 22:31:48.959244,25.0,0.03221161129483659,0.3394541405408522,0.3756913069567534
0401,cdot_cos,T,S-T,219,43,33061,-0.31957190667197966,-0.23701581976496952,-0.3361275804726924,0.00022410101723892441,705.0,6.890970023834743,0.6143529913781076,9.0915989363778,-0.037095613343906354,0.186,0.9999999999995138,33172.88330926153,1.087816192282211,219,2026-10-07 22:31:49.145243,25.0,0.789906379391668,0.28266074839612493,0.08477033685213682
0401,cdot_cos,P,T-P,220,44,33386,0.04882459416962795,-0.0005381722199565488,0.3683965008416076,0.9998999672133118,706.0,6.980352539583604,0.6155290353304838,9.129776005608768,-0.21165423446862647,0.325,0.9999999999995128,-148.4286541944569,1.0927837657360322,220,2026-10-07 22:31:49.470243,25.0,0.4383512104185324,0.16930221445940208,0.27502312538111084
0401,cdot_cos,Q,P-Q,221,44,33497,-0.05767037348358431,-0.07321500826486126,-0.10649496765321226,0.0652304166184439,706.0,7.001016463233355,0.6156057101068798,9.151641997568213,-0.049315854477937245,0.111,0.9999999999994998,2117.2331713384265,1.0977510182781356,221,2026-10-07 22:31:49.581243,25.0,0.0371865132932159,0.49485934406359255,0.1861614743220751
0401,cdot_cos,R,Q-R,222,44,33527,0.13227886206822623,0.41463703896231174,0.18994923555181054,0.9914117154424339,706.0,7.090211313965722,0.616770351170235,9.189676500898614,-0.21429677084017673,0.03,0.9999999999994991,-141.65816538096598,1.1027181483735538,222,2026-10-07 22:31:49.611244,25.0,0.463072699074286,1.9090944989192358,2.973161691078907
0401,cdot_cos,S,R-S,223,44,33574,0.0550695230417448,-0.10273913151061294,-0.07720933902648143,0.12672474015064203,706.0,7.115562133168509,0.6169191222787354,9.21257233563584,-0.06139317238032095,0.047,0.9999999999994877,1027.7775033150021,1.1076853055846878,223,2026-10-07 22:31:49.658243,25.0,0.08286325432772543,0.4399293897000012,0.5393791319741899
0401,cdot_cos,T,S-T,224,44,33767,-0.22585248090409085,-0.041280901598966836,-0.28092200394583566,0.0008903100320862831,706.0,7.131564676597522,0.6169201673990344,9.233220870613586,-0.038866828475086,0.193,0.9999999999994751,21553.82870760036,1.1126526893601505,224,2026-10-07 22:31:49.851244,25.0,0.5601349069552303,0.275553906134248,0.08291473279281447
0401,cdot_cos,P,T-P,225,45,34092,0.0686710192714736,0.002336484585267548,0.29452350017556445,0.9993661647786677,689.0,7.221925940936329,0.6180926234010937,9.27139472130884,-0.22084921053578102,0.325,0.9999999999994748,-155.21467905069673,1.1176202821720504,225,2026-10-07 22:31:50.176243,25.0,0.43866821757918156,0.17453285132939747,0.2780346595040201
0401,cdot_cos,Q,P-Q,226,45,34199,-0.021744355426826806,-0.033824027372743926,-0.0904153746983004,0.09445748685072147,689.0,7.24501102996163,0.6182033700154628,9.293640049129541,-0.05686120983845636,0.107,0.9999999999994614,1480.7495617956613,1.1225875335381639,226,2026-10-07 22:31:50.283243,25.0,0.055910405279148076,0.5251714076001103,0.2157484955635684
0401,cdot_cos,R,Q-R,227,45,34230,0.13257423186834003,0.4252564160020743,0.15431858729516684,0.9793255338086121,689.0,7.334312622162752,0.619350853835492,9.33146713091239,-0.22141273091115193,0.031,0.9999999999994595,-143.4020403603582,1.1275546649747705,227,2026-10-07 22:31:50.314244,25.0,0.4755947905062076,1.7501987778270773,2.8806965226168315
0401,cdot_cos,S,R-S,228,45,34274,0.006461653631763842,-0.02482837307791051,-0.12611257823657618,0.040980523919960474,689.0,7.353523354186909,0.6193988421050025,9.352723038987715,-0.047982927282170386,0.044,0.9999999999994472,3614.0041180511635,1.1325218181715413,228,2026-10-07 22:31:50.358243,25.0,0.026932905506824735,0.4015064479117642,0.4366075460035686
0401,cdot_cos,T,S-T,229,45,34464,-0.3390865169813632,-0.20606434543802402,-0.34554817061312704,0.00017708488467858583,689.0,7.369645189578987,0.6193990494666698,9.373214099032769,-0.04036460552625854,0.19,0.9999999999994347,36739.29639834936,1.137489207425337,229,2026-10-07 22:31:50.548243,25.0,0.8280036851648105,0.2829379121469779,0.08485176522146438
0401,cdot_cos,P,T-P,230,46,34781,0.01922624482251517,0.0011835702821063423,0.3583127618038784,0.9998712898735044,702.0,7.461039760802761,0.6205691756178284,9.411403275971987,-0.23022306019885067,0.317,0.9999999999994339,-162.25468893640075,1.1424568062290077,230,2026-10-07 22:31:50.865243,25.0,0.4383788653269786,0.1777010957449356,0.2883109502327236
0401,cdot_cos,Q,P-Q,231,46,34892,-0.08606324027340383,-0.095220442121112,-0.105289485095919,0.067092291054036,702.0,7.482307684281277,0.6206476421595808,9.433033433280105,-0.05397658233945731,0.111,0.9999999999994197,2246.1354090972472,1.1474240689321327,231,2026-10-07 22:31:50.976243,25.0,0.038187781554053876,0.5071506799189097,0.1916029142208631
0401,cdot_cos,R,Q-R,232,46,34923,0.11318433399143953,0.3699382585576752,0.19924757426484335,0.9931809273089586,702.0,7.573627211744759,0.6218084585007404,9.471110275648162,-0.2332298954964977,0.031,0.9999999999994184,-154.42004630807784,1.152391200118208,232,2026-10-07 22:31:51.007244,25.0,0.46367602364218247,2.221348897352801,2.945791208499424
0401,cdot_cos,S,R-S,233,46,34975,0.09646203950204672,-0.16220770763725295,-0.016722294489392803,0.39698169961308,702.0,7.62003131591715,0.6222720559277942,9.498576703150311,-0.11954257211111312,0.052,0.9999999999994106,245.22854690517215,1.1573583676934385,233,2026-10-07 22:31:51.059244,25.0,0.38634692177158636,0.6051876474310731,0.8923866186998364
0401,cdot_cos,T,S-T,234,46,35159,-0.14085602329920063,-0.024590284205696943,-0.23731806280124734,0.002643639506898869,702.0,7.63656672707759,0.6222751424363442,9.518985317459881,-0.042773546708454575,0.184,0.9999999999993971,24872.448645418222,1.1623257591317013,234,2026-10-07 22:31:51.243244,25.0,0.16616431813374313,0.2951466427011143,0.08986636500239188
0401,cdot_cos,P,T-P,235,47,35483,0.07237443850024684,0.00043681979864122533,0.2132304617994475,0.995182934002341,706.0,7.72864528043116,0.6234363347900527,9.5571041869502,-0.23959180496686197,0.324,0.9999999999993959,-169.49668814975536,1.1672933921673159,235,2026-10-07 22:31:51.567244,25.0,0.4397832671168685,0.17581393806635434,0.2841930659060801
0401,cdot_cos,Q,P-Q,236,47,35592,-0.030452940483828628,-0.04441995875327379,-0.10282737898407547,0.0710491147155163,706.0,7.750494158944588,0.6235191817935793,9.578689792387838,-0.057268146964623026,0.109,0.9999999999993817,2200.727247105955,1.172260657640394,236,2026-10-07 22:31:51.676243,25.0,0.04143275364965957,0.5212920280967358,0.20044842672869403
0401,cdot_cos,R,Q-R,237,47,35623,0.13941990432423743,0.4143770585131498,0.16987284480806605,0.9858922269569002,706.0,7.842286942556249,0.6246680366507158,9.616648615542712,-0.2420702071224855,0.031,0.9999999999993803,-160.8576218396172,1.1772277888373983,237,2026-10-07 22:31:51.707244,25.0,0.4660681558612143,1.8078703036544546,2.9610575358600246
0401,cdot_cos,S,R-S,238,47,35674,0.020936000243104626,-0.04824821622790655,-0.1184839040811328,0.04916784962122509,706.0,7.862582117771164,0.6247252950706447,9.63779888303512,-0.0539026374076676,0.051,0.9999999999993662,3286.2864526921726,1.1821949560110985,238,2026-10-07 22:31:51.758244,25.0,0.030474082309408176,0.3609375183323598,0.3979446120571651
0401,cdot_cos,T,S-T,239,47,35856,-0.3098064076035333,-0.07631506421031209,-0.3307424078466379,0.00025638851747572934,706.0,7.879102569426149,0.6247255936387552,9.658029762982718,-0.043980069721826914,0.182,0.999999999999352,33233.84961292313,1.1871623538981364,239,2026-10-07 22:31:51.940243,25.0,0.7980252050456532,0.3020155895639841,0.09077171239002901
0401,cdot_cos,P,T-P,240,48,36189,0.0833550009878043,0.002249172268412512,0.3931614085913376,0.9999461382014473,685.0,7.972515792372454,0.6258893217741389,9.69624225597509,-0.2501059309778166,0.333,0.9999999999993516,-177.12544278052565,1.1921300224171845,240,2026-10-07 22:31:52.273243,25.0,0.43860579474635103,0.17278796475187855,0.28052018902794273
0401,cdot_cos,Q,P-Q,241,48,36296,-0.022796743609400264,-0.036262776042297204,-0.10615174459720456,0.06575557670327763,685.0,7.9941793539509005,0.6259657966730607,9.717609195151802,-0.05841862193164951,0.107,0.999999999999336,2506.538900327688,1.197097289190651,241,2026-10-07 22:31:52.380243,25.0,0.03758047515529094,0.5315540601270586,0.2024631923219269
0401,cdot_cos,R,Q-R,242,48,36328,0.12779306799737794,0.42166761812807113,0.1505898116067782,0.977351335146704,685.0,8.086268361239645,0.6271017299338526,9.755420359229953,-0.24979208159491328,0.032,0.9999999999993351,-168.47245015948928,1.202064421813953,242,2026-10-07 22:31:52.412243,25.0,0.4648079313409492,1.8852153671918142,2.877781477773261
0401,cdot_cos,S,R-S,243,48,36387,0.059454259829471334,-0.0755513914009477,-0.0683388081679066,0.15336224260275444,685.0,8.114833137451177,0.6272798493587307,9.778332009245672,-0.07804840545154804,0.059,0.9999999999993218,964.2052025538086,1.2070316046821652,243,2026-10-07 22:31:52.471244,25.0,0.11075038162812909,0.38635648016857926,0.4841487493479958
0401,cdot_cos,T,S-T,244,48,36562,-0.15697377222234635,-0.03574185385366442,-0.21642803205181768,0.004448628846190001,685.0,8.131858425899537,0.627285015612038,9.79851209451423,-0.04664936322185407,0.175,0.9999999999993068,6077.72022822413,1.2119990001958998,244,2026-10-07 22:31:52.646244,25.0,0.5101317814918647,0.31763732791766586,0.09728736256206057
0401,cdot_cos,P,T-P,245,49,36874,0.07291352456730275,0.004261922308108415,0.2298872967896491,0.9968183937449547,706.0,8.22600620222236,0.6284418996740916,9.836678683274867,-0.25940175479704564,0.312,0.9999999999993063,-183.9012210069956,1.2169666512638835,245,2026-10-07 22:31:52.958244,25.0,0.44035873234368256,0.1883384104923212,0.30175569334237967
0401,cdot_cos,Q,P-Q,246,49,36989,-0.02225818285745259,-0.037240586475099396,-0.09517170742475534,0.08476542324059465,706.0,8.249381594046746,0.628540208756795,9.858275230398739,-0.06486103904137988,0.115,0.99999999999929,1978.868181922434,1.2219339382947316,246,2026-10-07 22:31:53.073244,25.0,0.04981962612570824,0.5045807281466259,0.20326427673379105
0401,cdot_cos,R,Q-R,247,49,37020,0.12055925041447299,0.4365420305181338,0.1428174332719256,0.9726267949880767,706.0,8.342059769696084,0.6296674767672089,9.89600851500751,-0.2586479659579981,0.031,0.9999999999992887,-171.90847706700612,1.2269010689037585,247,2026-10-07 22:31:53.104243,25.0,0.47273021148317385,1.8399767343641513,2.989618569333484
0401,cdot_cos,S,R-S,248,49,37078,0.008998557865403035,-0.02662101427950896,-0.11156069254906996,0.057920553013678745,706.0,8.363460151577323,0.6297345618787782,9.917077138544732,-0.06013076376890933,0.058,0.9999999999992739,2959.1841996728,1.2318682516262107,248,2026-10-07 22:31:53.162244,25.0,0.036830649127238185,0.32997007998299466,0.368972101400679
0401,cdot_cos,T,S-T,249,49,37249,-0.3041189262303001,-0.22137217326608705,-0.31311748409570317,0.0003982878911293142,706.0,8.380336298974111,0.6297350231689811,9.937058428156154,-0.047527204509594884,0.171,0.9999999999992578,27322.408278807405,1.2368356492937946,249,2026-10-07 22:31:53.333244,25.0,0.7670631014765965,0.32812170496176235,0.09869092044905262
0401,cdot_cos,P,T-P,250,50,37580,0.06597583294789866,0.004500667311738606,0.3700947591781988,0.9999041249578933,701.0,8.475677774674246,0.6308923465753312,9.975291358598515,-0.269953782344478,0.331,0.999999999999258,-192.19051184349385,1.2418033562268238,250,2026-10-07 22:31:53.664243,25.0,0.4386983728513175,0.18147841514910132,0.2880407120849992
0401,cdot_cos,Q,P-Q,251,50,37695,-0.02195655457588251,-0.035429431076219854,-0.08793238752378117,0.09990238241168865,701.0,8.500475009802816,0.6310078945859193,9.997052898084425,-0.07070316739467898,0.115,0.9999999999992413,1724.3967588508838,1.2467706487661308,251,2026-10-07 22:31:53.779244,25.0,0.0597175964085744,0.5164546967481003,0.21562813155278565
0401,cdot_cos,R,Q-R,252,50,37722,0.12876219773419745,0.4359190792946302,0.15071875231007997,0.9774225802838128,701.0,8.594462354926309,0.6321375962673487,10.034881064612495,-0.26951209801260256,0.027,0.9999999999992397,-175.9835661803948,1.2517377711565005,252,2026-10-07 22:31:53.806243,25.0,0.4782305400999103,2.112573998216701,3.481012782351582
0401,cdot_cos,S,R-S,253,50,37765,0.0002436956258868809,-0.002687371753826375,-0.12851850210831056,0.03868082239343843,701.0,8.614554005706518,0.6321822737023484,10.055482459225258,-0.057995078985462745,0.043,0.9999999999992235,4734.314291511577,1.256704925869181,253,2026-10-07 22:31:53.849244,25.0,0.02606518928483414,0.43180884855164364,0.4672476925630032
0401,cdot_cos,T,S-T,254,50,37959,-0.30772018440303045,-0.07979590988075218,-0.30796388002891734,0.00045303094012696775,701.0,8.63159791590175,0.6321827969523502,10.075343701405806,-0.04930383470090076,0.194,0.9999999999992073,16610.11801871401,1.2616723785286865,254,2026-10-07 22:31:54.043243,25.0,0.8383838101712778,0.2920919041911258,0.08785520719191862
0401,cdot_cos,P,T-P,255,51,38281,0.06945502882585368,0.002515030498801888,0.37717521322888414,0.9999196774903172,714.0,8.727885664532675,0.6333369421266805,10.113587918813138,-0.2799974964109733,0.322,0.9999999999992064,-199.88270699476914,1.2666400884331435,255,2026-10-07 22:31:54.365243,25.0,0.43871148057891285,0.1868250491621342,0.2990302752513186
0401,cdot_cos,Q,P-Q,256,51,38394,-0.024479940788503903,-0.038844381306455816,-0.09393496961435759,0.08719508325359458,714.0,8.751913247562165,0.6334375137411339,10.135008471094764,-0.07034654707041632,0.113,0.999999999999189,2084.5936547796414,1.2716073825219232,256,2026-10-07 22:31:54.478244,25.0,0.05077966628184158,0.5256491298262046,0.21263347813707803
0401,cdot_cos,R,Q-R,257,51,38425,0.12317572484737871,0.40660560950454694,0.14765566563588262,0.9756694631156405,714.0,8.846682367873397,0.6345620654701704,10.172812107966323,-0.2789824755644333,0.031,0.9999999999991878,-185.528084753183,1.276574512342581,257,2026-10-07 22:31:54.509243,25.0,0.47338512678220374,1.8795176479628024,3.0570683971365296
0401,cdot_cos,S,R-S,258,51,38474,0.011107971957419083,-0.03157818892095096,-0.11206775288995963,0.05723271353944044,714.0,8.868443341735858,0.6346279861973874,10.193643194289555,-0.06447948394651627,0.049,0.9999999999991716,3253.9536603076267,1.2815416797682178,258,2026-10-07 22:31:54.558244,25.0,0.0359119229227187,0.39783755727355785,0.4441015073971702
0401,cdot_cos,T,S-T,259,51,38660,-0.2788620965169481,-0.045467132668641094,-0.2899700684743672,0.000710201258493434,714.0,8.885670448486206,0.6346288041765957,10.213392387003857,-0.05115757771690266,0.186,0.9999999999991539,16286.362896929353,1.2865091273622156,259,2026-10-07 22:31:54.744244,25.0,0.7707361007494025,0.3076130434078346,0.09261885349649103
0401,cdot_cos,P,T-P,260,52,38995,0.042957620099499556,-0.001359024031378901,0.32181971661644765,0.9996795593273375,702.0,8.982875393883573,0.6357794199141744,10.251643610293844,-0.29013013541464355,0.335,0.9999999999991532,-207.691021331436,1.29147688469534,260,2026-10-07 22:31:55.079243,25.0,0.43881661583559006,0.1871173567256795,0.29016401611154363
0401,cdot_cos,Q,P-Q,261,52,39104,-0.03103813302485616,-0.043641323604519985,-0.07399575312435572,0.1358853632870182,702.0,9.011039077492411,0.6359357024127572,10.273864477417833,-0.08463516466576534,0.109,0.9999999999991356,1314.8943266991164,1.2964441759925402,261,2026-10-07 22:31:55.188244,25.0,0.0882122580654063,0.5731134741141518,0.2583824184297077
0401,cdot_cos,R,Q-R,262,52,39131,0.149509750590005,0.4089158701837554,0.18054788361486115,0.989160900526756,702.0,9.107814131240458,0.6370724759007415,10.311927734748407,-0.29244701133318807,0.027,0.9999999999991345,-182.80849163356197,1.3014112970007745,262,2026-10-07 22:31:55.215244,25.0,0.49135097885897744,2.17914506668439,3.584261249927665
0401,cdot_cos,S,R-S,263,52,39189,0.026245170175858312,-0.057581523206118146,-0.12326458041414667,0.04387204117411918,702.0,9.128712911093368,0.6371228596114088,10.332405321247624,-0.0635609470992807,0.058,0.9999999999991173,4542.85841995858,1.3063784844569033,263,2026-10-07 22:31:55.273243,25.0,0.027295083804431946,0.330170416695685,0.36032379056741565
0401,cdot_cos,T,S-T,264,52,39358,-0.2603264086999312,-0.04579086356647703,-0.2865715788757895,0.0007731303450632567,702.0,9.146113899577157,0.6371237474659566,10.352044487158501,-0.05303396191910666,0.169,0.9999999999990989,11856.655131861746,1.311345907153914,264,2026-10-07 22:31:55.442244,25.0,0.8199637328058654,0.3417450464919853,0.10296442889816182
0401,cdot_cos,P,T-P,265,53,39697,0.030136163830981395,0.002227483445528371,0.29046257253091257,0.9992984834567319,719.0,9.244222736807659,0.6382705475524107,10.390300766643987,-0.3004905293516565,0.339,0.9999999999990987,-215.78003904557323,1.3163136954643777,265,2026-10-07 22:31:55.781244,25.0,0.43888901658621077,0.1797047553490191,0.2894065995000049
0401,cdot_cos,Q,P-Q,266,53,39808,-0.06875806358124524,-0.07543398669717807,-0.09889422741222664,0.07781901536032738,719.0,9.267953723703792,0.6383597871750849,10.411342386402994,-0.07315768974398269,0.111,0.999999999999079,2547.442859969836,1.3212809964252885,266,2026-10-07 22:31:55.892244,25.0,0.04471545841918754,0.5481978795036686,0.21379267473993954
0401,cdot_cos,R,Q-R,267,53,39839,0.1272536879132116,0.3712831895879949,0.19601175149445682,0.9926106138341907,719.0,9.365922666057473,0.6394972327987648,10.44948029317587,-0.30358701793908094,0.031,0.999999999999078,-202.58491781752693,1.326248125388972,267,2026-10-07 22:31:55.923244,25.0,0.4681238701992891,2.315380914175731,3.1602884630219723
0401,cdot_cos,S,R-S,268,53,39894,0.1016275170975045,-0.16994557943158708,-0.02562617081570709,0.3450986556559948,719.0,9.411507340382688,0.6398923201556252,10.475498169118293,-0.14227829296548597,0.055,0.9999999999990654,408.2862237238658,1.3312153081073452,268,2026-10-07 22:31:55.978244,25.0,0.32182254349960493,0.5756439416806167,0.8288122604584397
0401,cdot_cos,T,S-T,269,53,40071,-0.13995539605193674,-0.015601587375954134,-0.24158291314944125,0.002376913286811748,719.0,9.429243499642341,0.639895040716431,10.49506845190326,-0.05554438631456417,0.177,0.9999999999990461,31880.892523228722,1.336182759919023,269,2026-10-07 22:31:56.155244,25.0,0.2098160135058336,0.3284040428437104,0.10020428960256306
0401,cdot_cos,P,T-P,270,54,40416,0.0555705645366658,-0.0009226522723741273,0.19552596058860255,0.9925209995315818,721.0,9.527762371549361,0.6410302705218864,10.533211775808955,-0.31000580629424374,0.345,0.9999999999990453,-224.1496996967877,1.3411505873545577,270,2026-10-07 22:31:56.500243,25.0,0.4400671649237071,0.1774992976870555,0.28556194755657915
0401,cdot_cos,Q,P-Q,271,54,40523,-0.04357394577138892,-0.052197608014999605,-0.09914451030805471,0.07737117221235053,721.0,9.55171801504641,0.6411187002996963,10.554155742427026,-0.07585917519074635,0.107,0.9999999999990251,2647.8256182766895,1.3461178858353444,271,2026-10-07 22:31:56.607244,25.0,0.04565710433120728,0.5740619265191627,0.22388451866400452
0401,cdot_cos,R,Q-R,272,54,40552,0.15058800395474367,0.37288589548134055,0.1941619497261326,0.9922635724295005,721.0,9.650611623824462,0.6422519353966045,10.592300274014017,-0.31473796725724346,0.029,0.9999999999990237,-210.79367619148582,1.3510850100348932,272,2026-10-07 22:31:56.636243,25.0,0.4681452226403052,2.0991396740792796,3.4101244406224933
0401,cdot_cos,S,R-S,273,54,40605,0.04229333804676895,-0.10609508436881501,-0.10829466590797472,0.062540063936943,721.0,9.673468116143008,0.6423233074802258,10.612932803178923,-0.0731976595531916,0.053,0.9999999999990049,3384.2406645390342,1.3560521897250266,273,2026-10-07 22:31:56.689243,25.0,0.036889198798177085,0.38357080361086104,0.4312545720480362
0401,cdot_cos,T,S-T,274,54,40785,-0.22567843214682135,-0.019326591371684455,-0.2679717701935903,0.0012302655018366178,721.0,9.691270129007213,0.6423247114227384,10.632375899206435,-0.05713060847727361,0.18,0.999999999998985,11444.237162107354,1.3610196588174666,274,2026-10-07 22:31:56.869244,25.0,0.7548519235397751,0.32702895886295774,0.09890007146780752
0401,cdot_cos,P,T-P,275,55,41137,0.03840898572628602,-0.003717944953368365,0.26408741787310736,0.9986444417605614,710.0,9.791198541333673,0.643463527531743,10.670645638985683,-0.3221848690845741,0.352,0.999999999998984,-232.7454437213593,1.3659875254839047,275,2026-10-07 22:31:57.221244,25.0,0.4392539515707191,0.17325523886152747,0.2838875350183507
0401,cdot_cos,Q,P-Q,276,55,41238,-0.07806330510765871,-0.07278248276640609,-0.11647229083394472,0.0515729644014724,710.0,9.813241817165729,0.6435222954850343,10.691005861732089,-0.07151070036912324,0.101,0.9999999999989622,4265.490878556506,1.370954815166117,276,2026-10-07 22:31:57.322243,25.0,0.030034521987678264,0.6052152035813486,0.21825025576292967
0401,cdot_cos,R,Q-R,277,55,41267,0.15874390525599488,0.3579331007202545,0.2368072103636536,0.997322472213362,710.0,9.913452012457105,0.6446579037764819,10.729256456041345,-0.32665284066210043,0.029,0.9999999999989607,-224.67442534056033,1.3759219386305352,277,2026-10-07 22:31:57.351244,25.0,0.45791100449208566,2.138787831846829,3.455523975564708
0401,cdot_cos,S,R-S,278,55,41322,0.056477584013398856,-0.13817660508417162,-0.10226632124259602,0.0719804642911567,710.0,9.937291511412845,0.6447398020381849,10.74997140544574,-0.07818967218879841,0.055,0.9999999999989414,3033.802712129459,1.3808891241211025,278,2026-10-07 22:31:57.406244,25.0,0.04168149368309033,0.380234195213237,0.433445435558901
0401,cdot_cos,T,S-T,279,55,41508,-0.20199512415989349,-0.013175440963461786,-0.2584727081732923,0.0015595180625571625,710.0,9.955277773930561,0.64474157633998,10.76931818783387,-0.05911618630307659,0.186,0.9999999999989208,10749.854359052762,1.3858566180435,279,2026-10-07 22:31:57.592243,25.0,0.7242315973053969,0.31912068441389246,0.09670033611675544
0401,cdot_cos,P,T-P,280,56,41847,0.036141569649180846,-0.0029028597957461615,0.23813669380907432,0.997409776023606,708.0,10.056004406014813,0.6458755370632273,10.807575716334565,-0.33255864452382855,0.339,0.9999999999989195,-241.13926753802434,1.3908244776435974,280,2026-10-07 22:31:57.931243,25.0,0.4394469339039397,0.18135006367892265,0.2971287082131312
0401,cdot_cos,Q,P-Q,281,56,41950,-0.08040987959788237,-0.08261509270337178,-0.11655144924706322,0.051476252986678225,708.0,10.07823311710487,0.6459340163443206,10.827838373781562,-0.07383568384425103,0.103,0.9999999999988969,4424.181621982982,1.3957917768881607,281,2026-10-07 22:31:58.034244,25.0,0.030075725350484823,0.5982458425116419,0.21581272902969015
0401,cdot_cos,R,Q-R,282,56,41980,0.14199743961519218,0.34779298183851837,0.22240731921307455,0.9961666786855532,708.0,10.17924304957221,0.6470648442869081,10.866077765676398,-0.3370826326461749,0.03,0.9999999999988951,-232.79133711496485,1.4007589020521007,282,2026-10-07 22:31:58.064243,25.0,0.45796765260141065,2.438372675645173,3.366997748911338
0401,cdot_cos,S,R-S,283,56,42039,0.1129865731393161,-0.20997460906493168,-0.029010866475876085,0.3262331850581356,708.0,10.224535477643581,0.6474348205114965,10.891550762325375,-0.15216542799754806,0.059,0.9999999999988802,499.8083453994292,1.4057260988337166,283,2026-10-07 22:31:58.123244,25.0,0.2966394169037622,0.5389375034831527,0.7676682723961058
0401,cdot_cos,T,S-T,284,56,42210,-0.11888732132652848,-0.009474630643666531,-0.23187389446584455,0.0030279184567077893,708.0,10.242837674983223,0.6474382536017241,10.910834697760983,-0.061679866349157224,0.171,0.999999999998858,26356.88422036503,1.410693569173278,284,2026-10-07 22:31:58.294244,25.0,0.2306118192242898,0.34615458293592183,0.10703039379907472
0401,cdot_cos,P,T-P,285,57,42555,0.034117194622466054,0.003290073532061828,0.15300451594899453,0.9786498029137563,737.0,10.342920345007666,0.6485470591377267,10.948745962717727,-0.3387494901976845,0.345,0.9999999999988566,-249.88116928727715,1.4156614697437704,285,2026-10-07 22:31:58.639244,25.0,0.4413491737095546,0.18282270025117595,0.2900946957230246
0401,cdot_cos,Q,P-Q,286,57,42672,-0.05630231508681164,-0.06624495132586357,-0.0904195097092777,0.09444864498939444,737.0,10.368985338156534,0.6486539844850878,10.969746088843204,-0.08875037979667788,0.117,0.9999999999988339,2338.0715290704898,1.4206288096153028,286,2026-10-07 22:31:58.756243,25.0,0.05979224371209381,0.5445507522151892,0.22277771922109313
0401,cdot_cos,R,Q-R,287,57,42701,0.12473974897064143,0.3710937867901628,0.18104206405745307,0.9892925634590457,737.0,10.47034522102602,0.6497730651739283,11.007865736460207,-0.3467411010314855,0.029,0.9999999999988316,-230.53808702759522,1.4255959318301596,287,2026-10-07 22:31:58.785243,25.0,0.4751882458217345,2.223685451170354,3.495168374809875
0401,cdot_cos,S,R-S,288,57,42744,0.0416706458328732,-0.08495916494549842,-0.08306910313776822,0.11137943990037176,737.0,10.497959094324415,0.649898953893679,11.029162919257317,-0.09503296763867285,0.043,0.9999999999988115,1999.4494652994451,1.4305630901981854,288,2026-10-07 22:31:58.828243,25.0,0.0707473536659394,0.533988908242961,0.6421830999626548
0401,cdot_cos,T,S-T,289,57,42929,-0.22810773734023834,-0.01652937333708068,-0.26977838317311154,0.0011760001857625353,737.0,10.516268267134915,0.6499002829787844,11.048316782405514,-0.06314881093989397,0.185,0.9999999999987887,23989.55233854157,1.4355306064844071,289,2026-10-07 22:31:59.013243,25.0,0.6035628508592766,0.32707792372361527,0.098968501678381
0401,cdot_cos,P,T-P,290,58,43292,0.06395680498910604,0.00027322245096247157,0.29206454232934437,0.9993260049427445,717.0,10.618977926102152,0.651028852432347,11.086634013891015,-0.35575626748898437,0.363,0.9999999999987872,-259.27288358321164,1.4404985773845562,290,2026-10-07 22:31:59.376243,25.0,0.43933451114611927,0.17778634065130036,0.2829467189180087
0401,cdot_cos,Q,P-Q,291,58,43401,-0.026100976359750432,-0.035869049104445175,-0.09005778134885647,0.09522493520278767,717.0,10.64534115044776,0.651136304789505,11.107565833337208,-0.09185908304459026,0.109,0.9999999999987633,2455.9459785165345,1.4454659030073305,291,2026-10-07 22:31:59.485244,25.0,0.056537676879244866,0.5901216911141547,0.24186444353767794
0401,cdot_cos,R,Q-R,292,58,43428,0.15666411444683415,0.40048295241542686,0.18276509080658457,0.9897393686360166,717.0,10.747624454765038,0.6522522211034878,11.145703484368502,-0.35801387868121104,0.027,0.9999999999987608,-238.50784534791575,1.4504330192412445,292,2026-10-07 22:31:59.512243,25.0,0.47548481636119416,2.2723781491799553,3.7882705302695863
0401,cdot_cos,S,R-S,293,58,43484,0.008384567436070954,-0.030548651993844537,-0.14827954701076318,0.023963019790912837,717.0,10.768049570503477,0.6522792183916247,11.165234388896097,-0.07189988098740929,0.056,0.9999999999987373,10597.879173738304,1.4554002116186573,293,2026-10-07 22:31:59.568243,25.0,0.01869799536030248,0.3464460359424239,0.36473420961497766
0401,cdot_cos,T,S-T,294,58,43669,-0.3326776141939997,-0.20434743898414226,-0.3410621816300707,0.0001980972160545128,717.0,10.78642641079059,0.652279441568417,11.18427531200718,-0.06480625300426002,0.185,0.9999999999987133,31784.792276259923,1.4603677390693102,294,2026-10-07 22:31:59.753243,25.0,0.8963189080431934,0.3297726383886593,0.09933427182223097
0401,cdot_cos,P,T-P,295,59,44009,0.0669116523590141,-0.000695504946158471,0.3995892665530138,0.9999541335906517,705.0,10.89006544670728,0.6534051383471331,11.222614680895354,-0.36699589484176565,0.34,0.999999999998712,-268.44675009389664,1.4653356749179192,295,2026-10-07 22:32:00.093244,25.0,0.4389304840585899,0.18699812929106052,0.3048206938726212
0401,cdot_cos,Q,P-Q,296,59,44118,-0.04357951213467139,-0.053225947808736934,-0.11049116449368548,0.05939690650747091,705.0,10.91358513870851,0.6534719504849168,11.24276981719757,-0.0837665509227206,0.109,0.9999999999986862,4239.189963296482,1.4703030059059443,296,2026-10-07 22:32:00.202244,25.0,0.034007482171186355,0.5802626546573004,0.21577699083697194
0401,cdot_cos,R,Q-R,297,59,44149,0.13217394431365118,0.398546767937607,0.17575345644832258,0.9877974944886184,705.0,11.016562705422572,0.6545821780911814,11.280878354845408,-0.3683301484295235,0.031,0.9999999999986835,-256.3110446012399,1.4752701317508232,297,2026-10-07 22:32:00.233243,25.0,0.4618211734522098,2.0105115447364366,3.3218569907761792
0401,cdot_cos,S,R-S,298,59,44203,0.0014239168338438175,-0.012376682092279651,-0.13075002747980735,0.03665892229044677,705.0,11.03823685448217,0.6546233482858617,11.300564473769159,-0.07796040981450825,0.054,0.9999999999986594,7052.911478067661,1.4802373199994068,298,2026-10-07 22:32:00.287244,25.0,0.024123243847924095,0.3740338256042989,0.4013731307332875
0401,cdot_cos,T,S-T,299,59,44385,-0.2378258725097745,-0.03297361315908383,-0.23924978934361832,0.002519317544135864,705.0,11.056958358587837,0.6546261775472413,11.319558217469538,-0.0674630394351768,0.182,0.9999999999986341,3710.2865274092915,1.4852048507277866,299,2026-10-07 22:32:00.469243,25.0,0.855899941756088,0.3384016505401246,0.10286540717399315
0401,cdot_cos,P,T-P,300,60,44714,0.05860771585142434,0.0007868398650667168,0.2964335883611988,0.9993957026555537,718.0,11.161415055278775,0.6557476604989052,11.35789626038921,-0.37792563783206784,0.329,0.9999999999986323,-276.8322050159247,1.4901727804208074,300,2026-10-07 22:32:00.798244,25.0,0.43977535753254043,0.19771878062198875,0.31749755833112037
0401,cdot_cos,Q,P-Q,301,60,44825,-0.03808998294052142,-0.0494642108580106,-0.09669769879194576,0.08185225472217024,718.0,11.187057316237105,0.6558394352734253,11.378402936253089,-0.09330549058593601,0.111,0.9999999999986062,3101.2895290083966,1.4951401223972425,301,2026-10-07 22:32:00.909244,25.0,0.04733943728575992,0.5829357127709205,0.23101135998495495
0401,cdot_cos,R,Q-R,302,60,44856,0.13523437401501706,0.38999248383346147,0.1733243569555385,0.9870434028725645,718.0,11.29082678351392,0.6569452155859962,11.416504751003368,-0.3791942905394936,0.031,0.9999999999986037,-258.5403237003493,1.5001072476607107,302,2026-10-07 22:32:00.940243,25.0,0.47051026078081565,2.0739069741634273,3.347402170219818
0401,cdot_cos,S,R-S,303,60,44903,0.03234905330345646,-0.06985259380078908,-0.1028853207115606,0.07095356860135972,718.0,11.315639548635238,0.6570246391527401,11.436773136924357,-0.09117942447260861,0.047,0.9999999999985797,3626.31493238517,1.5050744179282451,303,2026-10-07 22:32:00.987243,25.0,0.042477940344382806,0.4633950879933313,0.5279311727940029
0401,cdot_cos,T,S-T,304,60,45091,-0.242820413005197,-0.124118336490102,-0.27516946630865347,0.0010278715635842867,718.0,11.334385921785293,0.6570257896606686,11.455650228011327,-0.06901990781447506,0.188,0.9999999999985532,19260.637940465203,1.510041976907213,304,2026-10-07 22:32:01.175244,25.0,0.7253798839662681,0.32998665931733556,0.09971475079816493
0401,cdot_cos,P,T-P,305,61,45432,0.05846534312813159,0.0010235341912629675,0.3012857561333286,0.9994646979274033,713.0,11.439714532538556,0.6581436268677608,11.493998650492436,-0.38931046589182244,0.341,0.9999999999985514,-286.52701488662956,1.5150099635156262,305,2026-10-07 22:32:01.516243,25.0,0.43923863471112856,0.1926054406761109,0.30888155646118226
0401,cdot_cos,Q,P-Q,306,61,45545,-0.03716521856481617,-0.054619666074269164,-0.09563056169294776,0.0838797012383761,713.0,11.4657428323264,0.6582373612992684,11.514465926764146,-0.09674672670106935,0.113,0.9999999999985243,3121.1982031097928,1.5199773169109834,306,2026-10-07 22:32:01.629244,25.0,0.048605580617185055,0.5775155259886164,0.23033893617561493
0401,cdot_cos,R,Q-R,307,61,45574,0.13161978474819439,0.4060989365465618,0.16878500331301055,0.9855089227526364,713.0,11.570233041411983,0.6593377270611575,11.552545109784992,-0.3899943305046151,0.029,0.9999999999985215,-266.5001165613337,1.5249444358675643,307,2026-10-07 22:32:01.658243,25.0,0.4714567716450048,2.279420519284195,3.6031106581235455
0401,cdot_cos,S,R-S,308,61,45621,0.04459122411089167,-0.08707030036014526,-0.08702856063730272,0.10195267650137971,713.0,11.597949222444884,0.6594514641429454,11.57334109807212,-0.10402352831958578,0.047,0.9999999999984971,2514.3145726047787,1.5299116068234695,308,2026-10-07 22:32:01.705244,25.0,0.06398559411378837,0.4967091161821284,0.5897059794234154
0401,cdot_cos,T,S-T,309,61,45811,-0.2069638132724967,-0.02693586171413184,-0.25155503738338836,0.0018534045038487038,713.0,11.616923698333103,0.6594535316069899,11.592150121504178,-0.07135776144518534,0.19,0.9999999999984697,15799.920178051761,1.5348791838549734,309,2026-10-07 22:32:01.895243,25.0,0.6326901024193933,0.32901158320859847,0.09986566256957655
0401,cdot_cos,P,T-P,310,62,46145,0.03844131637574975,0.002012427129668918,0.24540512964824643,0.9978392315302036,714.0,11.722973624064151,0.6605657336939899,11.630475015196414,-0.40033645334290796,0.334,0.999999999998468,-295.7903925401896,1.5398471755377805,310,2026-10-07 22:32:02.229243,25.0,0.43965914454927735,0.19746924480340244,0.3175147476977481
0401,cdot_cos,Q,P-Q,311,62,46259,-0.05951864089330507,-0.07083031613589492,-0.09795995726905482,0.07951178619830289,714.0,11.748833153861776,0.6606542824007943,11.65078071224796,-0.09815855761517628,0.114,0.9999999999984392,3412.5613646191305,1.5448145380148837,311,2026-10-07 22:32:02.343244,25.0,0.046029759026987145,0.5774297298237946,0.22683798068092068
0401,cdot_cos,R,Q-R,312,62,46287,0.12717203149741002,0.38050402781894904,0.1866906723907151,0.9906895778482244,714.0,11.854627602463976,0.6617566252243025,11.688968174185211,-0.40319045899367534,0.028,0.999999999998436,-276.71237556365725,1.5497816533056736,312,2026-10-07 22:32:02.371244,25.0,0.46928480464396854,2.50000747705949,3.7783731643642935
0401,cdot_cos,S,R-S,313,62,46334,0.06465694089186651,-0.12294631533550898,-0.06251509060554351,0.1732341658120298,714.0,11.888833572577107,0.6619492034625097,11.711092549698767,-0.13109824051396868,0.047,0.9999999999984133,1412.8918252270744,1.5547488250907324,313,2026-10-07 22:32:02.418243,25.0,0.12549575151120315,0.5669388553519397,0.7277865981517276
0401,cdot_cos,T,S-T,314,62,46513,-0.20282720764321427,-0.02779445685427375,-0.2674841485350808,0.0012453361001322203,714.0,11.907919854867059,0.6619505876639756,11.729809990127306,-0.07331441118099544,0.179,0.9999999999983845,41745.24500716938,1.5597163831745913,314,2026-10-07 22:32:02.597243,25.0,0.4546785111336084,0.35216286715415646,0.10662727536285548
0401,cdot_cos,P,T-P,315,63,46859,0.06194910279362902,-0.0005231429792692883,0.2647763104368433,0.9986675568840162,712.0,12.014907879018295,0.6630597205668881,11.768158513838417,-0.4124747175782568,0.346,0.9999999999983833,-305.7886980961957,1.5646844360051235,315,2026-10-07 22:32:02.943244,25.0,0.43943863326689503,0.1902322610088044,0.3092139426336326
0401,cdot_cos,Q,P-Q,316,63,46971,-0.04578916966086017,-0.057795472437123414,-0.10773827245448919,0.06336056049900324,712.0,12.039560579485151,0.6631300292288174,11.788073592425318,-0.09555769562958649,0.112,0.9999999999983527,4507.510358646352,1.5696517991644678,316,2026-10-07 22:32:03.055244,25.0,0.03627961706487922,0.5851290846621361,0.22011339702549776
0401,cdot_cos,R,Q-R,317,63,47001,0.13081998125405006,0.39178011095139137,0.17660915091491022,0.9880526769562071,712.0,12.145976793982614,0.6642254959671141,11.826215184821999,-0.4140672318007668,0.03,0.9999999999983494,-290.75235699662164,1.5746189196346658,317,2026-10-07 22:32:03.085243,25.0,0.4633735311309249,2.232146481838419,3.547207149915425
0401,cdot_cos,S,R-S,318,63,47059,0.040421843138517384,-0.07979628797719798,-0.09039813811553268,0.09449435168647023,712.0,12.173489368395456,0.6643301707718582,11.846720440596345,-0.10762815987374302,0.058,0.9999999999983235,2927.534211085945,1.5795861252296488,318,2026-10-07 22:32:03.143244,25.0,0.0580064175456309,0.40407844292814743,0.47435473125590316
0401,cdot_cos,T,S-T,319,63,47245,-0.19686732044530958,-0.02355998849405294,-0.23728916358382696,0.00264554512008987,712.0,12.192849893362279,0.6643331011053837,11.865385107367524,-0.07588332644246068,0.186,0.999999999998294,10833.180986078094,1.5845537159395446,319,2026-10-07 22:32:03.329243,25.0,0.6581401349640719,0.34193919628561636,0.10408884390764905
0401,cdot_cos,P,T-P,320,64,47571,0.0704438402637835,0.0013391515965537329,0.2673111607090931,0.9987492732883161,698.0,12.300690749413706,0.6654384582364004,11.9037417545014,-0.4241923724429743,0.326,0.9999999999982915,-315.10996421595473,1.589521733696689,320,2026-10-07 22:32:03.655244,25.0,0.4399425829335215,0.2028208675119092,0.3308001719368913
0401,cdot_cos,Q,P-Q,321,64,47684,-0.040812401877580944,-0.05741736266755962,-0.11125624214136445,0.05833726737118556,698.0,12.325089098980044,0.6655029665529144,11.923483017915254,-0.0964799610796708,0.113,0.9999999999982604,5080.157552893162,1.5944891060180422,321,2026-10-07 22:32:03.768243,25.0,0.033483955862061224,0.5800500850012117,0.2159145979321968
0401,cdot_cos,R,Q-R,322,64,47714,0.11869322040478048,0.4071282575013463,0.15950562228236143,0.9817941833339972,698.0,12.43178206862398,0.6665876874666437,11.961505682618474,-0.4234620638029807,0.03,0.9999999999982575,-301.4435313127262,1.5994562257458573,322,2026-10-07 22:32:03.798244,25.0,0.46201225499027737,2.2950185146083752,3.55643232146452
0401,cdot_cos,S,R-S,323,64,47758,0.043104561204746636,-0.07198644079062166,-0.07558865920003384,0.1312767995868864,698.0,12.462790209856546,0.6667325934263489,11.982669316223124,-0.12372835433500146,0.044,0.9999999999982306,2068.470545156196,1.6044233897367364,323,2026-10-07 22:32:03.842243,25.0,0.08869832139612982,0.5724477762875607,0.7047304825583387
0401,cdot_cos,T,S-T,324,64,47948,-0.23295706371617497,-0.05949379276478756,-0.2760616249209216,0.001005222517917228,698.0,12.482157472937285,0.6667337028895701,12.001223987080193,-0.07743533736642579,0.19,0.9999999999982,41725.59854595614,1.6093910055007392,324,2026-10-07 22:32:04.032243,25.0,0.5500049213060245,0.3371744063412604,0.1019329635828339
0401,cdot_cos,P,T-P,325,65,48269,0.07958774127342907,0.004706705379706308,0.312544804989604,0.9995959711352872,703.0,12.590916484266225,0.66783604033692,12.039602995500106,-0.4363542498905786,0.321,0.9999999999981977,-325.598040225363,1.6143590322958594,325,2026-10-07 22:32:04.353244,25.0,0.4393142892309591,0.20903993013308356,0.3388131194047991
0401,cdot_cos,Q,P-Q,326,65,48382,-0.025206647884367495,-0.0396428983770303,-0.10479438915779657,0.06787116724137819,703.0,12.616361108082724,0.6679108210561253,12.059461855467035,-0.1026217860332912,0.113,0.9999999999981654,4462.814311013224,1.619326411135825,326,2026-10-07 22:32:04.466244,25.0,0.03869431775781282,0.5874299004827476,0.22517366209291279
0401,cdot_cos,R,Q-R,327,65,48410,0.1294227658517392,0.40933599912283447,0.1546294137361067,0.9794822820109315,703.0,12.723675641775326,0.6689890744314348,12.09744209251641,-0.4343813146664102,0.028,0.9999999999981626,-307.6823464966021,1.6242935239841512,327,2026-10-07 22:32:04.494244,25.0,0.46591510448065976,2.3696010380032106,3.8326619175929215
0401,cdot_cos,S,R-S,328,65,48455,0.023470244875758512,-0.04714646819098779,-0.1059525209759807,0.06606220579077243,703.0,12.749058766210904,0.6690617346789878,12.117241507847684,-0.10327095954752344,0.045,0.9999999999981332,4556.967066176183,1.6292606917440602,328,2026-10-07 22:32:04.539244,25.0,0.0405090815377515,0.49836322647005304,0.5640694319017333
0401,cdot_cos,T,S-T,329,65,48646,-0.2765673718336134,-0.05905616171207588,-0.3000376167093719,0.0005522593254015032,703.0,12.768528332157631,0.6690623420619001,12.135709885228401,-0.07935114401135582,0.191,0.9999999999981011,39381.772275478615,1.6342283233851906,329,2026-10-07 22:32:04.730243,25.0,0.7397502833306859,0.33788580070343227,0.1019349002446428
0401,cdot_cos,P,T-P,330,66,48972,0.05767826527928724,0.00459418352500942,0.3342456371129007,0.9997651059154592,729.0,12.878131142079615,0.6701609732664926,12.174097051169092,-0.448205986251635,0.326,0.9999999999980994,-335.7403655552316,1.639196389842126,330,2026-10-07 22:32:05.056243,25.0,0.43913064524232776,0.21129895845577504,0.3362049384109949
0401,cdot_cos,Q,P-Q,331,66,49083,-0.03207653178064887,-0.04507109576180135,-0.08975479705993611,0.09587954566392817,729.0,12.906295253070796,0.6702662369283796,12.194444241485595,-0.11577335357277514,0.111,0.9999999999980672,3158.094889722604,1.6441637685469443,331,2026-10-07 22:32:05.167244,25.0,0.05661910222944145,0.6166103544021727,0.2537307296502792
0401,cdot_cos,R,Q-R,332,66,49114,0.13820722514856923,0.38810954070771086,0.1702837569292181,0.9860343978494058,729.0,13.015018640756898,0.6713477866178156,12.232557815683842,-0.4485471238290646,0.031,0.9999999999980632,-307.6823686481129,1.6491308902948592,332,2026-10-07 22:32:05.198244,25.0,0.47621180668107693,2.1429987556201167,3.507206054390366
0401,cdot_cos,S,R-S,333,66,49173,0.02065476755723537,-0.05162582348252201,-0.11755245759133386,0.05026798605940187,729.0,13.039161175919244,0.6714028754493713,12.251971757134797,-0.10010404919977382,0.059,0.9999999999980326,6325.112818503316,1.654098104270481,333,2026-10-07 22:32:05.257244,25.0,0.030782498150174288,0.3712840014749595,0.40919551122620135
0401,cdot_cos,T,S-T,334,66,49350,-0.249721279273481,-0.016654835252489203,-0.27037604683071637,0.001158579698219299,729.0,13.058830152930943,0.6714041450846341,12.270377559437767,-0.08169199340394363,0.177,0.9999999999979994,14501.846581544953,1.6590657030888902,334,2026-10-07 22:32:05.434243,25.0,0.7982097690016392,0.36741289256241016,0.11112416390790589
0401,cdot_cos,P,T-P,335,67,49701,0.04742808070042091,-0.00048811674309348516,0.2971493599739019,0.9994064135908435,715.0,13.169225339886337,0.6724984150967155,12.30876127663277,-0.46000744176301117,0.351,0.9999999999979976,-345.7240390234926,1.6640338760626996,335,2026-10-07 22:32:05.785243,25.0,0.43937079671523743,0.19635908497874646,0.3145162021521193
0401,cdot_cos,Q,P-Q,336,67,49811,-0.04724832228982334,-0.06121941911794738,-0.09467640299024425,0.08573102170911959,715.0,13.196674230586023,0.672592196623367,12.328838405815873,-0.11496154077530973,0.11,0.9999999999979635,3679.2523358023914,1.6690012573667947,336,2026-10-07 22:32:05.895243,25.0,0.04971727144262732,0.624471709090102,0.2495353699971468
0401,cdot_cos,R,Q-R,337,67,49839,0.1382894468412583,0.3665766123313333,0.18553776913108164,0.9904199309698177,715.0,13.30660911588616,0.6736746203124966,12.367042000237717,-0.46204064038962633,0.028,0.9999999999979605,-320.64994798239763,1.6739683682701496,337,2026-10-07 22:32:05.923244,25.0,0.4718060054615287,2.6112922891056947,3.9262459035762958
0401,cdot_cos,S,R-S,338,67,49888,0.07802566243770365,-0.14882761331719316,-0.06026378440355465,0.18144402020905462,715.0,13.342906598775942,0.6738727192884288,12.389019120321525,-0.15334691309043366,0.049,0.9999999999979325,1558.280278060355,1.678935550508748,338,2026-10-07 22:32:05.972243,25.0,0.13358174340706103,0.5755114542349741,0.7407649569343393
0401,cdot_cos,T,S-T,339,67,50065,-0.14124056679327293,-0.01214337986198938,-0.21926622923097658,0.004145178099779539,715.0,13.363009238401187,0.6738772442321191,12.407415869684245,-0.0851073341470037,0.177,0.9999999999978986,15080.757599202532,1.6839031619647962,339,2026-10-07 22:32:06.149244,25.0,0.44851816733814176,0.3687498341288338,0.11357423517087477
