record_id,input,event,transition,event_index,k,peak,value_cos,value_sin,value_return,x_input,rr,knowledge,decision,decision_norm,entropy,delta_t,cosine_similarity,delta_h_over_delta_d,frobenius_norm,matrix_size,timestamp,scale,P,zdot,zdot_back
0114,cdot_cos,Q,P-Q,1,0,1433,-0.027864945941168576,-0.02358418720453699,-0.07720347537492306,0.009349027825798054,957.0,4.643794437969727e-05,0.5000116094860928,0.5000116094860928,,,1.0,,0.004967141530112327,1,2026-10-07 22:01:17.517244,60.4,,,
0114,cdot_cos,R,Q-R,2,0,1466,0.059933354744846984,0.11138636086745285,0.08779830068601556,0.9950480882977278,957.0,0.007055486895275631,0.5012472430700721,0.7088706492518193,-8.9767062650519e-06,,1.0,,0.009934283060224654,2,2026-10-07 22:01:17.550244,60.4,,,
0114,cdot_cos,S,R-S,3,0,1494,0.01210596438224043,-0.0910366451580738,-0.04782739036260655,0.05271128364475117,957.0,0.009094664564181594,0.5013126987425492,0.8682990647015657,-5.938998623115816e-06,0.028,0.9999999999999998,0.046408623225057594,0.014901424593856247,3,2026-10-07 22:01:17.578244,60.4,0.5996046125715095,0.07040470930321457,0.07282777388949868
0114,cdot_cos,T,S-T,4,0,1762,-0.03664925785508408,0.0041448034314001654,-0.04875522223732451,0.049982121940272524,957.0,0.010998150616255647,0.5013747653626056,1.0027495307252892,-6.897183126447127e-06,0.268,1.0,-0.01543800036897643,0.01986856616487504,4,2026-10-07 22:01:17.846244,60.4,0.8702941386904283,0.026593301270186318,0.007102559895798704
0114,cdot_cos,P,T-P,5,1,2261,0.05130158459314257,-0.0052429579343481894,0.08795084244822665,0.995093280471192,977.0,0.02334867404500146,0.5026104373985177,1.1238711042251541,-7.649704707357613e-05,0.499,0.9999999999999998,-0.056325515124045794,0.024835707851803716,5,2026-10-07 22:01:18.345243,60.4,0.4025897348953803,0.014980007374725096,0.024750547953398424
0114,cdot_cos,Q,P-Q,6,1,2372,-0.005971444370508194,-0.005114513473799625,-0.05727302896365076,0.03049298806810105,977.0,0.025948197976231293,0.5026483020982,1.2312318602225962,-2.3109234061448468e-05,0.111,1.0,1.4099626686633207,0.029802849422342813,6,2026-10-07 22:01:18.456243,60.4,0.09923770606223957,0.08005380521041787,0.023419134515584073
0114,cdot_cos,R,Q-R,7,1,2407,0.08672940886126329,0.11925804715134428,0.09270085323177149,0.9963125708816498,977.0,0.04112061880171423,0.503885455037522,1.3331556033000085,-0.00018349906255974417,0.035,1.0000000000000002,-0.12964430136357344,0.03476999095368791,7,2026-10-07 22:01:18.491244,60.4,0.41725260375315487,0.25807499807036643,0.4334977378709409
0114,cdot_cos,S,R-S,8,1,2433,-0.005387769069687527,-0.014190718309975554,-0.09211717793095081,0.003819238973075522,977.0,0.04401344784115695,0.5038901974259054,1.4252167023019666,-4.441037177825557e-05,0.026,1.0,29.32882748921889,0.039737132493268074,8,2026-10-07 22:01:18.517244,60.4,0.043634962224963,0.10697674318178263,0.11126265536318153
0114,cdot_cos,T,S-T,9,1,2722,-0.2028871552000288,-0.029307032850024582,-0.1974993861303413,6.596512096779074e-06,977.0,0.046683409447166924,0.5038902056168617,1.5116706168604226,-4.366721718773275e-05,0.289,1.0,90.72867172966606,0.04470427444564852,9,2026-10-07 22:01:18.806243,60.4,0.9831254053547547,0.03616377181137885,0.009238621474082965
0114,cdot_cos,P,T-P,10,2,3238,0.03903562479648276,-0.003153635453934165,0.24192277999651157,0.9999995491523516,942.0,0.06491610794813392,0.5051318887221083,1.5973672871722393,-0.00036690367834090625,0.516,0.9999999999999999,-0.2603212202754167,0.0496714169829895,10,2026-10-07 22:01:19.322243,60.4,0.41437475033359206,0.02143633208289281,0.035334687017377894
0114,cdot_cos,Q,P-Q,11,2,3349,-0.012023786834475907,-0.009908570535907138,-0.051059411630958666,0.043772568084783046,942.0,0.0688057041567123,0.5051862390702997,1.6755132043084295,-9.378742147238133e-05,0.111,0.9999999999999998,5.025105927693303,0.05463855867151981,11,2026-10-07 22:01:19.433243,60.4,0.054362664154833616,0.10851011194811173,0.03504140728448996
0114,cdot_cos,R,Q-R,12,2,3381,0.07988529972409888,0.11343373993145071,0.0919090865585748,0.9961326419664361,942.0,0.08900535280061472,0.5064230546778242,1.7543009217244798,-0.0005747700389500726,0.032,0.9999999999999998,-0.38888789448604266,0.05960570016159099,12,2026-10-07 22:01:19.465244,60.4,0.43308287050515165,0.3749785482039952,0.6312390201219505
0114,cdot_cos,S,R-S,13,2,3409,0.0023988336987178422,-0.07280549476359054,-0.07748646602538105,0.009192042654074431,942.0,0.092804331241768,0.5064344673350218,1.8259754397127785,-0.00012453644486502873,0.028,1.0,39.45037393912186,0.06457284167709423,13,2026-10-07 22:01:19.493243,60.4,0.02690950282374482,0.1615742736605207,0.13567780146975983
0114,cdot_cos,T,S-T,14,2,3680,-0.03512516933866043,0.007004924223796642,-0.037524003037378274,0.09393995445986907,942.0,0.09805351212560388,0.5065511009261218,1.895340668635789,-0.00018063900896598295,0.271,1.0000000000000002,-0.48101549109372177,0.0695399843097775,14,2026-10-07 22:01:19.764243,60.4,0.7330228948881151,0.0509258794616045,0.019369671158065996
0114,cdot_cos,P,T-P,15,3,4180,0.0320767436611858,-0.0002616190798687166,0.06720191299984624,0.9830267130948284,939.0,0.12040615790995764,0.5077715581081667,1.9665907883634508,-0.0008803995829266322,0.5,1.0000000000000002,-0.5733593806119393,0.07450712840343204,15,2026-10-07 22:01:20.264243,60.4,0.4516618201976245,0.02668676457602058,0.044705291568707506
0114,cdot_cos,Q,P-Q,16,3,4304,-0.032877015143217586,-0.02541916490371105,-0.06495375880440338,0.0193939995480009,939.0,0.12474027670162446,0.5077956354570502,2.031182542108992,-0.00019156023416711033,0.124,1.0,28.60943503752223,0.0794742704097662,16,2026-10-07 22:01:20.388243,60.4,0.02743484784564745,0.11531613690311675,0.03495257090053893
0114,cdot_cos,R,Q-R,17,3,4336,0.06514293728748731,0.11275784594949277,0.0980199524307049,0.9973230726236803,939.0,0.1490045598619306,0.5090337452697945,2.098799899072472,-0.0011974466184185761,0.032,0.9999999999999998,-0.8124371310989708,0.08444141183726049,17,2026-10-07 22:01:20.420243,60.4,0.431699266233896,0.45523800135843784,0.7582588487595665
0114,cdot_cos,S,R-S,18,3,4369,0.005252131673678016,-0.08676978571485625,-0.05989080561380929,0.026150087555175654,939.0,0.15387550878856449,0.5090662074279036,2.159785004397227,-0.00026596593164843245,0.033,1.0000000000000002,28.69435493592937,0.08940855333989005,18,2026-10-07 22:01:20.453243,60.4,0.030129345464181202,0.152858958396307,0.14760451292829982
0114,cdot_cos,T,S-T,19,3,4659,-0.04485590368077176,0.004620285515773525,-0.05010803535444978,0.0462418306012961,939.0,0.15909325111608685,0.5091236108578127,2.2192183698352737,-0.0002943903310267725,0.29,0.9999999999999999,-0.4951690068589304,0.09437569720141008,19,2026-10-07 22:01:20.743244,60.4,0.9079613741843601,0.05421351484865479,0.017992214922490923
0114,cdot_cos,P,T-P,20,4,5119,0.041409010458434856,0.0010811134923265286,0.08626491413920662,0.9945701591239005,1017.0,0.18531934740078426,0.5103581841663685,2.2823911858313046,-0.001628211461119129,0.46,1.0000000000000002,-1.0803903833403357,0.09934284311729955,20,2026-10-07 22:01:21.203244,60.4,0.4407867664561905,0.0344718407297099,0.05701325279282045
0114,cdot_cos,Q,P-Q,21,4,5249,-0.011188303634472901,-0.010893696643718418,-0.05259731409290776,0.04004518511019293,1017.0,0.19080734458741996,0.5104078902478447,2.3389827931452847,-0.00037208688896244986,0.13,1.0000000000000002,25.271044002066297,0.10430998560021046,21,2026-10-07 22:01:21.333244,60.4,0.03418766261293402,0.12705090654932996,0.042215362974120776
0114,cdot_cos,R,Q-R,22,4,5286,0.06419098660369597,0.1084661008038734,0.07537929023816888,0.9895733527681443,1017.0,0.21835258310361005,0.5116361302131429,2.3997861693181446,-0.002031369398116357,0.037,0.9999999999999998,-1.3509432651876485,0.10927712701453111,22,2026-10-07 22:01:21.370244,60.4,0.441830246118537,0.4435762585773547,0.7444659058429755
0114,cdot_cos,S,R-S,23,4,5323,-0.004413894689589438,-0.04749190683713058,-0.06860488129328542,0.015615772571489493,1017.0,0.2236319877221442,0.5116555111313907,2.4538136302468,-0.0004205721856865181,0.037,0.9999999999999998,83.1125332573269,0.1142442685211172,23,2026-10-07 22:01:21.407244,60.4,0.02170931927289833,0.14818942851076344,0.14268661131173396
0114,cdot_cos,T,S-T,24,4,5598,-0.05882917371748114,0.016008459748257643,-0.05441527902789171,0.036030882051485004,1017.0,0.22931860081340655,0.5117002293473313,2.5068089272397676,-0.0004642492213579442,0.275,0.9999999999999998,-0.9767168647671312,0.11921141366642969,24,2026-10-07 22:01:21.682244,60.4,0.9102090231536764,0.0640526270033889,0.020678593059135775
0114,cdot_cos,P,T-P,25,5,6136,0.05746031804715383,-0.008113616273688198,0.11628949176463498,0.9991104325867226,939.0,0.2588609325740081,0.5129401561631219,2.564700782010514,-0.002599069585085668,0.538,1.0,-1.7217309413269049,0.12417856359415949,25,2026-10-07 22:01:22.220243,60.4,0.4398248554125734,0.03262120470808147,0.05491139732453821
0114,cdot_cos,Q,P-Q,26,5,6246,-0.009673812572553385,-0.008046510803464076,-0.06713413061970722,0.017041732279314794,939.0,0.2644190170793022,0.5129613041397574,2.6155997013511585,-0.0005241454930666193,0.11,0.9999999999999999,98.11454437404822,0.12914570620828977,26,2026-10-07 22:01:22.330244,60.4,0.019088301081402796,0.16497925258399912,0.05052804095721912
0114,cdot_cos,R,Q-R,27,5,6278,0.0806689194768491,0.11408136797486557,0.09034273204940248,0.9957505237829414,939.0,0.2951563681424879,0.5141968999445982,2.6718454693406173,-0.003099269332085869,0.032,1.0000000000000002,-2.084115071393493,0.1341128474177924,27,2026-10-07 22:01:22.362243,60.4,0.4356653189708327,0.5685582184014933,0.9605422207245532
0114,cdot_cos,S,R-S,28,5,6306,0.0026634094123873867,-0.0717345889161183,-0.07800551006446171,0.008910868075038172,939.0,0.3008067430569978,0.5142079564023688,2.7209327515804125,-0.0006067787695601354,0.028,1.0,225.4330106645039,0.1390799886476334,28,2026-10-07 22:01:22.390244,60.4,0.016444867143677985,0.24882772044345597,0.20179910408963822
0114,cdot_cos,T,S-T,29,5,6575,-0.03184320265258381,0.006329010212519288,-0.034506612064971194,0.11064207100102143,939.0,0.30909072048732145,0.5143452380929482,2.769833876865853,-0.0009103798827945367,0.269,0.9999999999999998,-2.2115193362868286,0.14404713543140432,29,2026-10-07 22:01:22.659244,60.4,0.7164202226574912,0.07524752875390547,0.030795455131314733
0114,cdot_cos,P,T-P,30,6,7075,0.04311213203381461,-0.003478709329841095,0.07495533468639842,0.9893058028400803,918.0,0.34128991352659893,0.5155726433483953,2.82390767034307,-0.0037729031591193355,0.5,0.9999999999999999,-2.3321745312897164,0.14901428845832837,30,2026-10-07 22:01:23.159244,60.4,0.4682721016891106,0.03810497258544099,0.06439838607855497
0114,cdot_cos,Q,P-Q,31,6,7197,-0.03372798288846998,-0.025924412875223533,-0.0768401149222846,0.009554496715355056,918.0,0.34719569307276243,0.5155844964649535,2.870652988833531,-0.0007325453634444149,0.122,0.9999999999999998,256.5028176959806,0.15398143194106184,31,2026-10-07 22:01:23.281244,60.4,0.01575807929832916,0.16182362294119174,0.04840802906691396
0114,cdot_cos,R,Q-R,32,6,7229,0.06440749038849161,0.1138073705650823,0.0981354732769616,0.9973416362827792,918.0,0.3807748775242497,0.5168216794888018,2.9235849174613087,-0.004403283753485036,0.032,1.0,-2.967013222201244,0.15894857302357998,32,2026-10-07 22:01:23.313244,60.4,0.4344664399026457,0.6362636760667848,1.0493495141089773
0114,cdot_cos,S,R-S,33,6,7264,0.013192760876352346,-0.0939024181873367,-0.05121472951213926,0.04338157988276255,918.0,0.38791656834103666,0.5168754889304845,2.969223630257158,-0.0009888778414067336,0.035,0.9999999999999998,63.45365804403311,0.16391571433668187,33,2026-10-07 22:01:23.348243,60.4,0.031656600773710714,0.20060110522864427,0.2040483090510557
0114,cdot_cos,T,S-T,34,6,7534,-0.04084537624426846,0.00035307501156751914,-0.054038137120620805,0.0368304865351758,918.0,0.3948169548902548,0.5169211722504526,3.0141424924977613,-0.0009729134826002492,0.27,0.9999999999999997,0.34945706261328846,0.16888286326193286,34,2026-10-07 22:01:23.618243,60.4,0.9837250747964752,0.07763769003797516,0.025556987219326484
0114,cdot_cos,P,T-P,35,7,7993,0.04933529678773673,-0.00567688210679224,0.09018067303200519,0.9957089034851119,959.0,0.42984092096154325,0.5181561070248064,3.065452873641916,-0.00520176415845319,0.459,1.0,-3.4243514424199963,0.1738500192277094,35,2026-10-07 22:01:24.077244,60.4,0.4435411454304858,0.045405185242485165,0.07630493697448461
0114,cdot_cos,Q,P-Q,36,7,8103,-0.016132768094948947,-0.011783553427794809,-0.06546806488268568,0.01881196307255856,959.0,0.4364989149428562,0.5181794366034591,3.10907662531315,-0.0010388234188085223,0.11,0.9999999999999999,178.44045971071537,0.17881716303013376,36,2026-10-07 22:01:24.187244,60.4,0.01818130747385094,0.19458448625984343,0.0605272180119359
0114,cdot_cos,R,Q-R,37,7,8137,0.08119789119352094,0.11325288684608557,0.09733065928846989,0.9972095883052,959.0,0.4726495079387088,0.5194160059954601,3.159484224885809,-0.005918060347156157,0.034,0.9999999999999997,-3.945784975683482,0.18378430407913027,37,2026-10-07 22:01:24.221244,60.4,0.43846926610347714,0.6268968516512463,1.0632527351721353
0114,cdot_cos,S,R-S,38,7,8164,-0.008678160339990975,-0.03299608399924737,-0.08987605153351191,0.004370431547660264,959.0,0.47912790085514095,0.519421424947469,3.201928711405807,-0.0011102773618331104,0.027,0.9999999999999997,887.2163801101924,0.18875144498431354,38,2026-10-07 22:01:24.248243,60.4,0.013164203379843597,0.23732704913811656,0.239940478386376
0114,cdot_cos,T,S-T,39,7,8451,-0.10863489851774921,-0.02545015259218125,-0.09995673817775824,0.002382102138193621,959.0,0.4854651685921671,0.5194243785433825,3.2438042103640097,-0.001100714787873543,0.287,0.9999999999999997,3.2376040052797403,0.1937185970433377,39,2026-10-07 22:01:24.535244,60.4,0.9913500243976571,0.07653738265120508,0.02208107225444649
0114,cdot_cos,P,T-P,40,8,8952,0.038676820751376975,-0.004383627962306062,0.14731171926912617,0.9998633058414932,979.0,0.5230603584969327,0.5206639981679181,3.2929682667776814,-0.006825921971465519,0.501,0.9999999999999998,-4.6185193185667766,0.19868575939535127,40,2026-10-07 22:01:25.036243,60.4,0.4322527071394181,0.04489411074454646,0.07504029921110893
0114,cdot_cos,Q,P-Q,41,8,9062,-0.020045832315500917,-0.012749157796157408,-0.05872265306687789,0.02800824896269226,979.0,0.5304490675582026,0.5206987188974451,3.3340985962821446,-0.0014013500521459729,0.11,0.9999999999999994,156.2343877335666,0.20365290385734555,41,2026-10-07 22:01:25.146244,60.4,0.020838326426486076,0.20877258626848022,0.06717008237518166
0114,cdot_cos,R,Q-R,42,8,9097,0.0793290308449722,0.10738591625727488,0.09937486316047311,0.9975328999409477,979.0,0.5689903274759983,0.5219351884726047,3.382526627139698,-0.007626848176419294,0.035,0.9999999999999998,-5.034897946008909,0.20862004478017132,42,2026-10-07 22:01:25.181243,60.4,0.4420815454386206,0.6488406395983136,1.1011788547941619
0114,cdot_cos,S,R-S,43,8,9123,-0.010386025142817615,-0.03661602303378699,-0.08971505598778981,0.004412949039815541,979.0,0.5758679123300846,0.5219406578588475,3.4225937865660296,-0.0014172130832306408,0.026,0.9999999999999997,1135.3440436517023,0.21358718539100582,43,2026-10-07 22:01:25.207244,60.4,0.012505561308704137,0.26051570067747293,0.2645224943879344
0114,cdot_cos,T,S-T,44,8,9411,-0.1420617731233621,-0.013185406085976788,-0.1316757479805445,0.00035140658383753633,979.0,0.5825371439112269,0.5219410933901261,3.4621655482280587,-0.001390540654651505,0.288,0.9999999999999996,61.24113212953371,0.21855434038058036,44,2026-10-07 22:01:25.495244,60.4,0.9810014544846967,0.08085371034608592,0.02315705410118854
0114,cdot_cos,P,T-P,45,9,9931,0.037559347456318296,-0.0018446341355092591,0.17962112057968038,0.999980578601894,919.0,0.6224396494894301,0.5231803258600978,3.509600329988997,-0.00865224809094065,0.52,0.9999999999999992,-5.859842775468058,0.22352150940969998,45,2026-10-07 22:01:26.015244,60.4,0.4320190373361007,0.04709817751034543,0.07673558765039074
0114,cdot_cos,Q,P-Q,46,9,10049,-0.0064869956598348055,-0.0064661635594476215,-0.0440463431161531,0.06535095060753227,919.0,0.6315192485219862,0.5232613026847788,3.5489308353211033,-0.002048771566336132,0.118,0.9999999999999996,81.54773357214489,0.22848865510686273,46,2026-10-07 22:01:26.133244,60.4,0.03982981678279677,0.21069304619641066,0.07694575451318697
0114,cdot_cos,R,Q-R,47,9,10083,0.07567911677827172,0.12886456916291225,0.08216611243810652,0.9930554766692719,919.0,0.672163208391783,0.5244916517979501,3.5957336191582914,-0.009532550276306888,0.034,0.9999999999999992,-6.082646486151159,0.2334557957578491,47,2026-10-07 22:01:26.167244,60.4,0.4560849294333051,0.713675541110441,1.1954105844057896
0114,cdot_cos,S,R-S,48,9,10119,0.013207576040581063,-0.0605713122346678,-0.06247154073769065,0.022460487459434457,919.0,0.6800491853174961,0.5245194759059921,3.633977541016803,-0.0019184006316295445,0.036,0.9999999999999994,273.65296429901275,0.23842293674744555,48,2026-10-07 22:01:26.203244,60.4,0.01889214329813259,0.2519623357849052,0.21905491460314264
0114,cdot_cos,T,S-T,49,9,10390,-0.024645276172308283,0.001502238377817126,-0.037852852212889344,0.09226293475905124,919.0,0.6903044965682962,0.5246337698614935,3.6724364028308893,-0.0025281953512941006,0.271,0.9999999999999993,-5.335319063810405,0.243390093958254,49,2026-10-07 22:01:26.474244,60.4,0.7856863381046633,0.09458148035965518,0.03784247694022153
0114,cdot_cos,P,T-P,50,10,10850,0.031810017844511936,-0.0014681381642406603,0.056455294016820215,0.9680124987516899,958.0,0.7313123476724293,0.5258327715483108,3.7181992008000235,-0.01048511745480989,0.46,0.9999999999999997,-6.636289332200266,0.2483572655978373,50,2026-10-07 22:01:26.934243,60.4,0.4681915709433606,0.05310361929199811,0.08914750240028929
0114,cdot_cos,Q,P-Q,51,10,10971,-0.03629762504751942,-0.025507857677995353,-0.06810764289203136,0.01608422009730626,958.0,0.7391598263169344,0.5258526913417011,3.755339377892039,-0.0020754338095019423,0.121,0.9999999999999993,422.17725257076336,0.25332441261224187,51,2026-10-07 22:01:27.055244,60.4,0.017387348153673515,0.20996063538627055,0.0648551954091338
0114,cdot_cos,R,Q-R,52,10,11003,0.06765526288036693,0.10764102183530265,0.10395288792788634,0.9981277762983984,958.0,0.7821228214359067,0.5270886772403534,3.8008905245029183,-0.0117520168109529,0.032,0.9999999999999991,-7.829039968823656,0.25829155295087064,52,2026-10-07 22:01:27.087244,60.4,0.4389377620712869,0.7953689867772115,1.3425935974678838
0114,cdot_cos,S,R-S,53,10,11039,-0.004538708964068953,-0.06551187854298401,-0.07219397184443588,0.012610735236865598,958.0,0.790063441470676,0.5271042910760345,3.8373771817089772,-0.0022447339794309453,0.036,0.9999999999999994,608.9011710936063,0.2632586938408722,53,2026-10-07 22:01:27.123244,60.4,0.014474428659042795,0.21651083281735675,0.22057277874359035
0114,cdot_cos,T,S-T,54,10,11309,-0.08835679832977207,0.012649316105518739,-0.08381808936570312,0.006289198402260549,958.0,0.7977116013987564,0.5271120779543356,3.8734669044326213,-0.0021834923000334065,0.27,0.9999999999999991,7.864727947431788,0.2682258543940929,54,2026-10-07 22:01:27.393243,60.4,0.9723420996893434,0.09594339468174734,0.02832651825214975
0114,cdot_cos,P,T-P,55,11,11808,0.030316497505407505,-0.0035458077217880492,0.11867329583517958,0.9992296285345624,957.0,0.8418728745988195,0.5283490893440109,3.918341738921747,-0.013015521296938998,0.499,0.9999999999999992,-8.756612176180818,0.27319303576546095,55,2026-10-07 22:01:27.892244,60.4,0.43507391143333923,0.05479024879925648,0.08849954549110849
0114,cdot_cos,Q,P-Q,56,11,11916,-0.010567704631478813,-0.008208336218732397,-0.040884202136886316,0.07803097177950097,957.0,0.8523922697004144,0.52844567450618,3.9545253491537644,-0.0032036773225945616,0.108,0.9999999999999991,101.5874877051224,0.2781601827255344,56,2026-10-07 22:01:28.000243,60.4,0.04676212397448129,0.25691277393413087,0.09740180649624844
0114,cdot_cos,R,Q-R,57,11,11947,0.08681694722056832,0.1124694581486026,0.09738465185204713,0.997218648167652,957.0,0.8973660337685918,0.5296798216155462,3.9989949838419827,-0.014141285288667507,0.031,0.9999999999999988,-8.862483153803256,0.28312732272939733,57,2026-10-07 22:01:28.031244,60.4,0.4614174186454194,0.8534975292160891,1.4507665828444334
0114,cdot_cos,S,R-S,58,11,11980,-0.010494986075444187,-0.03355847091152566,-0.09731193329601251,0.0027935607535848317,957.0,0.9053091165118119,0.5296832783937665,4.033947693255005,-0.0025731066354827423,0.033,0.9999999999999989,3346.5203480904897,0.28809446316834,58,2026-10-07 22:01:28.064243,60.4,0.011155727116979512,0.3172389780772732,0.24069947706727535
0114,cdot_cos,T,S-T,59,11,12248,-0.040978054916228614,0.010501429220436913,-0.030483068840784427,0.13691210801638654,957.0,0.9183038063216918,0.5298526912213787,4.069875773349498,-0.00425826044520645,0.268,0.9999999999999988,-9.947026051541705,0.29306162746696,59,2026-10-07 22:01:28.332243,60.4,0.6731833095901916,0.11019058283188646,0.048487648544328146
0114,cdot_cos,P,T-P,60,12,12765,0.04999711184741322,-0.0016038849986902994,0.09097516676364184,0.9959091369888138,960.0,0.964371268909703,0.5310848036398693,4.11376522982409,-0.015580177096818304,0.517,0.9999999999999987,-9.189028924391023,0.2980288191060376,60,2026-10-07 22:01:28.849244,60.4,0.48350806262828105,0.05329899103507587,0.0891053434971203
0114,cdot_cos,Q,P-Q,61,12,12891,-0.009463829669695098,-0.009418672230835635,-0.05946094151710832,0.026819486198419853,960.0,0.9734149630519603,0.5311179788262319,4.14816405825035,-0.0031481169567481792,0.126,0.9999999999999987,374.7397227612782,0.30299596917519706,61,2026-10-07 22:01:28.975244,60.4,0.01927307055991544,0.2213105624517176,0.07177535033537502
0114,cdot_cos,R,Q-R,62,12,12922,0.0693965900342194,0.11537520939102267,0.0788604197039145,0.9915337838716014,960.0,1.0201415306475359,0.5323442914590678,4.191683180280326,-0.016728454197308913,0.031,0.9999999999999986,-11.074123251226405,0.3079631088495103,62,2026-10-07 22:01:29.006243,60.4,0.4440533136737708,0.9040234495690176,1.5073086321153415
0114,cdot_cos,S,R-S,63,12,12956,0.011049497796112948,-0.07786650017076628,-0.058347092238106454,0.028632446182908576,960.0,1.0294644169252394,0.5323796978638884,4.22563288859723,-0.003431469523865066,0.034,0.9999999999999983,375.55308822866937,0.31293024914244777,63,2026-10-07 22:01:29.040244,60.4,0.020754094321934428,0.30242672057943215,0.27420253757951474
0114,cdot_cos,T,S-T,64,12,13226,-0.029816071969204338,0.004329365100128876,-0.040865569765317286,0.07811197357847885,960.0,1.0407065476469373,0.5324762881666975,4.259810343312086,-0.004179297645049821,0.27,0.9999999999999982,-7.7422691454134895,0.31789741788737746,64,2026-10-07 22:01:29.310244,60.4,0.8361591482384401,0.10678168778977556,0.041637521191473646
0114,cdot_cos,P,T-P,65,13,13725,0.02151720461734523,-0.00037456141984423455,0.05133327658654957,0.9569145978634394,918.0,1.0871265283317182,0.5336593727029458,4.302499454221158,-0.017731866283368588,0.499,0.9999999999999981,-11.4552833910708,0.3228646161744503,65,2026-10-07 22:01:29.809243,60.4,0.46565706761690684,0.05511550907304161,0.09302601339635456
0114,cdot_cos,Q,P-Q,66,13,13846,-0.06224285520459648,-0.04410042141655471,-0.08376005982194171,0.006311141257128337,918.0,1.0957118257018328,0.5336671742614751,4.3355326682276765,-0.0033642475058986757,0.121,0.9999999999999979,1841.634427723069,0.3278317670505784,66,2026-10-07 22:01:29.930244,60.4,0.013972302699149286,0.23752650662938338,0.07095287082739336
0114,cdot_cos,R,Q-R,67,13,13878,0.05642386964578943,0.09919974748935406,0.1186667248503859,0.9992293229587713,918.0,1.144607942936029,0.5349021679151672,4.378362993669648,-0.019658374344210087,0.032,0.999999999999998,-13.193692768865228,0.33279890651744276,67,2026-10-07 22:01:29.962244,60.4,0.43654474110617386,1.2610489538565777,1.5280036635686305
0114,cdot_cos,S,R-S,68,13,13914,0.06101369675846961,-0.1795454478499718,0.004589827112680182,0.5688659015899958,918.0,1.1764189587486538,0.5356050654060879,4.4167125675637084,-0.01324751451548915,0.036,0.9999999999999978,9.120618456503278,0.33776604692368567,68,2026-10-07 22:01:29.998244,60.4,0.6163568045954159,0.5747365921417878,0.8836393281284667
0114,cdot_cos,T,S-T,69,13,14183,-0.0010117476191212388,1.0783839859468492e-05,-0.06202544437759085,0.0230597495419106,918.0,1.1859889775702377,0.5356335553437289,4.4493065240535605,-0.004056400559785001,0.269,0.9999999999999974,322.6091285810332,0.3427332213225351,69,2026-10-07 22:01:30.267244,60.4,0.10374389455506004,0.10821944489153032,0.035576278147152134
0114,cdot_cos,P,T-P,70,14,14643,0.05372876799596788,-0.008014319688846873,0.05474051561508912,0.9646452322612692,939.0,1.234641020100297,0.5368251479153656,4.491401482495525,-0.021122817909408634,0.46,0.9999999999999978,-14.32235963520837,0.347700425336962,70,2026-10-07 22:01:30.727243,60.4,0.44576596711713334,0.06318518682958069,0.1057653098479552
0114,cdot_cos,Q,P-Q,71,14,14752,-0.013946721549585652,-0.010448005480202116,-0.06767548954555354,0.016502559122573014,939.0,1.244119349453452,0.5368455293309607,4.523540903505762,-0.0042139180365574885,0.109,0.9999999999999973,829.6234279670632,0.3526675764725198,71,2026-10-07 22:01:30.836244,60.4,0.018085741564075726,0.2763239404907631,0.08695715002894354
0114,cdot_cos,R,Q-R,72,14,14786,0.08331754349954835,0.11957182169278728,0.097264265049134,0.9971984071083039,939.0,1.2948796391272834,0.5380768840268223,4.565733832524203,-0.023107086665323136,0.034,0.9999999999999971,-15.343400802598552,0.3576347161255746,72,2026-10-07 22:01:30.870244,60.4,0.44147439680218503,0.8807489824510647,1.4929496962891617
0114,cdot_cos,S,R-S,73,14,14813,-0.00806309368711642,-0.02433017880016685,-0.09138063718666478,0.003992288056927155,939.0,1.3040102802601243,0.5380818128371682,4.597373095146378,-0.004254485784387699,0.027,0.9999999999999961,3824.979976510266,0.3626018549269718,73,2026-10-07 22:01:30.897243,60.4,0.011899855499048501,1.1251991685863163,0.3381718938089222
0114,cdot_cos,T,S-T,74,14,15343,0.21821452022059268,-0.3170769286674438,0.2262776139077091,0.9999988400910413,939.0,1.3556403942309445,0.5393161572940952,4.639373078013947,-0.02461039800603339,0.53,0.9999999999999968,-16.49127365332247,0.36756908014118256,74,2026-10-07 22:01:31.427244,60.4,0.43730407847234715,0.05732024597511251,0.097415309378906
0114,cdot_cos,P,T-P,75,15,15582,0.021517095382869826,0.0005417498893502064,-0.19669742483772285,6.923899855644267e-06,978.0,1.3647697409937436,0.5393161658389312,4.670615088032886,-0.004451076329395663,0.239,0.9999999999999968,2359240.340574049,0.37253625582780076,75,2026-10-07 22:01:31.666244,60.4,0.010790499719286294,0.03908875308138549,0.03819810361003801
0114,cdot_cos,Q,P-Q,76,15,15712,-0.05260508131909269,-0.0387434617582534,-0.07412217670196251,0.01123992571148501,978.0,1.3743248182038468,0.5393300370836316,4.701770349079253,-0.0046906202413148955,0.13,0.9999999999999958,-17.269100004550396,0.3775034119154884,76,2026-10-07 22:01:31.796243,60.4,0.9502133817422677,0.2387978118120603,0.07350059392387061
0114,cdot_cos,R,Q-R,77,15,15744,0.054814920017086315,0.09495326078746137,0.107420001336179,0.9984809775227325,978.0,1.4268571720648793,0.5405620215680778,4.74341258286011,-0.026362412479352792,0.032,0.9999999999999962,-17.590961989899018,0.38247055077188064,77,2026-10-07 22:01:31.828243,60.4,0.43952017350332323,1.1641051181734905,1.6416360581572655
0114,cdot_cos,S,R-S,78,15,15772,0.04001461418774042,-0.17168491010416448,-0.014800305829345897,0.29029773421629707,978.0,1.4488275457669502,0.5409201156366977,4.777277203817165,-0.011317347514727256,0.028,0.9999999999999957,42.01428139428931,0.38743768924793776,78,2026-10-07 22:01:31.856243,60.4,0.26464106530373027,0.6152562932205634,0.7846562036453889
0114,cdot_cos,T,S-T,79,15,16062,-0.0020446555414982246,0.00012406154330063377,-0.042059269729238645,0.07307543712935287,978.0,1.4613115244852308,0.5410102505192257,4.80860438343792,-0.00650758405789561,0.29,0.9999999999999951,53.36184307268274,0.3924048782356582,79,2026-10-07 22:01:32.146244,60.4,0.4775429184293346,0.10208434644631875,0.043048202476829875
0114,cdot_cos,P,T-P,80,16,16560,0.025931072471956872,0.0013007588357263175,0.027975728013455096,0.8441891714042631,919.0,1.508036466705815,0.5420513194339396,4.848254494577363,-0.02484343423381462,0.498,0.9999999999999953,-17.612522972082076,0.39737210934130884,80,2026-10-07 22:01:32.644243,60.4,0.4780422409097712,0.05708375347337578,0.093825185181896
0114,cdot_cos,Q,P-Q,81,16,16690,-0.04181945470830615,-0.03480212035348594,-0.06775052718026302,0.016429160278971535,919.0,1.518166942944713,0.5420715765505691,4.878644310329564,-0.005489423765960116,0.13,0.9999999999999943,955.4178327437587,0.40233926747700854,81,2026-10-07 22:01:32.774244,60.4,0.029431471236679954,0.2474218683116745,0.0779267402992159
0114,cdot_cos,R,Q-R,82,16,16722,0.05586869342708908,0.11318369606261243,0.09768814813539523,0.9972690311758533,919.0,1.5723661524668504,0.5433009440188267,4.919799419356866,-0.029980679124575055,0.032,0.9999999999999943,-19.921834594605173,0.40730640588137046,82,2026-10-07 22:01:32.806243,60.4,0.4417985425523638,1.1380201814046655,1.6937252975667907
0114,cdot_cos,S,R-S,83,16,16750,0.03297385195579969,-0.11745871843312644,-0.022894841471289396,0.200551919818649,919.0,1.5910002345546117,0.5435481079892358,4.951959060679547,-0.010549576898847118,0.028,0.9999999999999939,78.6162408443397,0.4122735438115818,83,2026-10-07 22:01:32.834244,60.4,0.15851841568355526,0.5437029650500865,0.6655029317057605
0114,cdot_cos,T,S-T,84,16,17039,-0.015918005810714963,-0.00032521721722590956,-0.048891857766514654,0.04959169960499423,919.0,1.6028135185096553,0.5436092224334197,4.98226094672987,-0.00675224899197916,0.289,0.9999999999999936,62.13470412071998,0.41724073868451506,84,2026-10-07 22:01:33.123244,60.4,0.5698513615385198,0.11292307987785603,0.040876415069354854
0114,cdot_cos,P,T-P,85,17,17479,0.03651977867218197,0.0018846206983003564,0.05243778448289693,0.9595827617219101,960.0,1.6562697747240125,0.5447915057569059,5.0227296447569545,-0.03116586794864281,0.44,0.9999999999999936,-20.64955029956295,0.42220796862716614,85,2026-10-07 22:01:33.563244,60.4,0.45687532029149963,0.07330078599196534,0.12149149139626644
0114,cdot_cos,Q,P-Q,86,17,17609,-0.021632186962024735,-0.018558746733725314,-0.05815196563420671,0.028962063339862253,960.0,1.6673182101825847,0.5448271815732433,5.0525195834100876,-0.006568823490138787,0.13,0.9999999999999925,689.4598914267013,0.4271751291286564,86,2026-10-07 22:01:33.693243,60.4,0.023647144184345867,0.25689752361906726,0.08498796506594045
0114,cdot_cos,R,Q-R,87,17,17642,0.06465693952867192,0.11986741970626492,0.08628912649069666,0.9945780510381691,960.0,1.72306313086497,0.5460520330830217,5.093234455636727,-0.03379391410510034,0.033,0.9999999999999926,-22.22725807790823,0.43214226745447076,87,2026-10-07 22:01:33.726244,60.4,0.446810321701986,1.0043619963515895,1.6892400206783404
0114,cdot_cos,S,R-S,88,17,17670,-0.005369929114702542,-0.02499542822675967,-0.07002686864337446,0.014348988927992993,960.0,1.7336061019417897,0.5460697002337095,5.122588016820434,-0.006516323470811527,0.028,0.9999999999999916,1543.9722633497079,0.4371094049420292,88,2026-10-07 22:01:33.754244,60.4,0.0152063832344919,0.37915591157999806,0.37653468131498835
0114,cdot_cos,T,S-T,89,17,17939,-0.07110758970610885,0.008712295283215824,-0.06573766059140632,0.01851374283097775,960.0,1.7442958619134499,0.5460924950540431,5.15182645605179,-0.006647577421377183,0.269,0.9999999999999909,-5.758060324433872,0.4420766012095831,89,2026-10-07 22:01:34.023244,60.4,0.9804490194932036,0.12549652366471448,0.03973888465301196
0114,cdot_cos,P,T-P,90,18,18439,0.03736959940410115,-0.002101876267986533,0.10847718911021001,0.9985748075635352,956.0,1.801123231673406,0.5473216893705847,5.192349626787756,-0.036008250445329903,0.5,0.9999999999999907,-23.886111926193582,0.447043856501149,90,2026-10-07 22:01:34.523244,60.4,0.4424678905169004,0.06973177119115359,0.11365473951991234
0114,cdot_cos,Q,P-Q,91,18,18549,-0.0076800991378256625,-0.006837510652199919,-0.045049698541926815,0.06174540405582796,956.0,1.8140276331046035,0.5473976760051936,5.221841215191013,-0.00833736014116993,0.11,0.99999999999999,364.1547022915687,0.4520110139944425,91,2026-10-07 22:01:34.633244,60.4,0.03619251004818667,0.3192927136427462,0.11731274028361292
0114,cdot_cos,R,Q-R,92,18,18586,0.07961843839572041,0.1167272961177619,0.08729853753354608,0.9948971068937364,956.0,1.8713676286748102,0.5486217335500477,5.26219500878603,-0.03774851929834449,0.037,0.9999999999999892,-24.027595173787372,0.45697815295882915,92,2026-10-07 22:01:34.670244,60.4,0.45880311032018534,0.9156912921968396,1.549729610005588
0114,cdot_cos,S,R-S,93,18,18623,-0.0055278019834591055,-0.01651642219631015,-0.08514624037917952,0.00580719830109587,956.0,1.8817887887271696,0.5486288766418923,5.290785485082886,-0.00698666158711229,0.037,0.9999999999999891,4306.518574949615,0.46194529233519904,93,2026-10-07 22:01:34.707244,60.4,0.012241287119526007,0.2773360066531154,0.28165297438809134
0114,cdot_cos,T,S-T,94,18,18897,-0.1434404500442927,-0.02446886187341269,-0.1379126480608336,0.0002411322296525173,956.0,1.8918904931671408,0.5486291732439812,5.319157386909344,-0.006809521130531056,0.274,0.9999999999999881,597.2326669864973,0.46691249606786916,94,2026-10-07 22:01:34.981244,60.4,0.9743217961460343,0.1250932677493396,0.03686753445244949
0114,cdot_cos,P,T-P,95,19,19395,0.035557373078340546,0.0015901305694228762,0.17899782312263324,0.9999798335189001,920.0,1.9503398994538077,0.5498588879847212,5.35936171567591,-0.040096639513816604,0.498,0.9999999999999878,-27.068975657928217,0.4718797634031851,95,2026-10-07 22:01:35.479244,60.4,0.43597417307250735,0.06987034876196954,0.1173682857161987
0114,cdot_cos,Q,P-Q,96,19,19525,-0.030137985212083183,-0.02598672176112809,-0.06569535829042372,0.01856022792908979,920.0,1.9614813605340624,0.5498817065204537,5.3877186410816025,-0.007781469662338093,0.13,0.9999999999999867,1416.1806975835543,0.47684692824289837,96,2026-10-07 22:01:35.609244,60.4,0.015719766875488084,0.2692813905080659,0.08570354677119008
0114,cdot_cos,R,Q-R,97,19,19557,0.057914948471778145,0.11620585011202038,0.08805293368386133,0.9951232966371045,920.0,2.020353060985905,0.5511048331248367,5.427753382858285,-0.04183246588694773,0.032,0.9999999999999863,-27.839306333938136,0.4818140652924103,97,2026-10-07 22:01:35.641243,60.4,0.44308887165262195,1.1818509185789645,1.8397406391200757
0114,cdot_cos,S,R-S,98,19,19586,0.026403053936362823,-0.10152141567345446,-0.03151189453541532,0.12973335439081224,920.0,2.037119819323116,0.5512642458603163,5.457237858688507,-0.012139471287362482,0.029,0.9999999999999859,186.26488348157494,0.48678120188541685,98,2026-10-07 22:01:35.670244,60.4,0.08664053815514194,0.5087980382158691,0.5781640805934933
0114,cdot_cos,T,S-T,99,19,19856,-0.02302610599890672,-0.00017182759821697695,-0.04942915993526954,0.04808427710731141,920.0,2.0498633472024252,0.5513233278083808,5.485598098085967,-0.009293449081067889,0.27,0.999999999999985,48.170757727702274,0.49174841135474645,99,2026-10-07 22:01:35.940243,60.4,0.7362101962509195,0.1330616425440128,0.047198251404848526
0114,cdot_cos,P,T-P,100,20,20315,0.04329091945520827,0.00017842839700234528,0.066317025454115,0.9821115270557009,939.0,2.108973106296883,0.5525297452860484,5.5252977165621235,-0.04384250951980642,0.459,0.9999999999999845,-28.637732027501407,0.49671568070692185,100,2026-10-07 22:01:36.399244,60.4,0.45474133084308027,0.07641013791991841,0.12877943157833946
0114,cdot_cos,Q,P-Q,101,20,20445,-0.03223304282678836,-0.02727884069781539,-0.07552396228199663,0.010336871793713736,939.0,2.1200078538129103,0.55254243974885,5.552983085905185,-0.00832262189796504,0.13,0.9999999999999832,2798.0614994859134,0.5016828482228918,101,2026-10-07 22:01:36.529243,60.4,0.01401156359471906,0.27478782094640086,0.08488267320020991
0114,cdot_cos,R,Q-R,102,20,20480,0.05722362708302082,0.1164630962470791,0.08945666990980919,0.9955179510669495,939.0,2.1804179397429473,0.5537646879727177,5.59274949869119,-0.04630785270014014,0.035,0.9999999999999827,-31.078164042630288,0.5066499858526848,102,2026-10-07 22:01:36.564243,60.4,0.4403100111577757,1.037956036024263,1.7260024551439124
0114,cdot_cos,S,R-S,103,20,20518,0.00046951427593822857,-0.06340070271003818,-0.05675411280708259,0.031433333361559346,939.0,2.1926647763346088,0.5538032697757437,5.620489631983959,-0.009546365469535497,0.038,0.9999999999999818,952.8193175904315,0.5116171249316224,103,2026-10-07 22:01:36.602243,60.4,0.02126195532384011,0.3143988360218476,0.3222851734647758
0114,cdot_cos,T,S-T,104,20,20774,-0.06369850203592436,0.0048399222529194865,-0.0641680163118626,0.02031745562646832,939.0,2.2043122512806077,0.5538282074182638,5.647961973358473,-0.009128674168202447,0.256,0.9999999999999808,16.749430143465432,0.5165843365431049,104,2026-10-07 22:01:36.858243,60.4,0.9552750537104814,0.1426562992147924,0.04549794900780835
0114,cdot_cos,P,T-P,105,21,21254,0.04360410032958849,-0.003227087972882447,0.10730260236551285,0.9984701845468249,1018.0,2.2657048015325825,0.5550533933517452,5.6876051096298195,-0.04888910127794123,0.48,0.9999999999999801,-32.45256578873522,0.5215516257137307,105,2026-10-07 22:01:37.338243,60.4,0.4434022397664661,0.07617174579503719,0.12790114635828076
0114,cdot_cos,Q,P-Q,106,21,21370,-0.02174754532475695,-0.01609017997446195,-0.06535164565434544,0.01894219521443924,1018.0,2.2774371272438434,0.5550766302017106,5.714864031273866,-0.00949561547345601,0.116,0.9999999999999791,1695.3023263962168,0.5265187908979921,106,2026-10-07 22:01:37.454243,60.4,0.015786542936637754,0.3174700435493842,0.1011407388901804
0114,cdot_cos,R,Q-R,107,21,21408,0.07206340467903379,0.10117713647056445,0.09381095000379074,0.9965508810628481,1018.0,2.3393578516360396,0.5562987812961002,5.754399691576337,-0.05090024645310093,0.038,0.9999999999999786,-33.87848783159168,0.5314859292171463,107,2026-10-07 22:01:37.492243,60.4,0.4433274701389483,0.9628100148687184,1.629492747163058
0114,cdot_cos,S,R-S,108,21,21443,-0.010660381356344614,-0.0452391272533872,-0.0827237860353784,0.006716048093432941,1018.0,2.350610688373866,0.5563070154360952,5.781312446312211,-0.009396661648276622,0.035,0.9999999999999775,5040.427394997972,0.5364530669289085,108,2026-10-07 22:01:37.527244,60.4,0.012072277220491893,0.3740371161533394,0.32150962108075426
0114,cdot_cos,T,S-T,109,21,21713,-0.051430358353841354,0.02035516818469217,-0.04076997699749674,0.07852876208924185,1018.0,2.3655404497667734,0.556403292500739,5.809021271457377,-0.012536119635716911,0.27,0.9999999999999765,-32.608576082506026,0.5414202903842477,109,2026-10-07 22:01:37.797244,60.4,0.7784636391361286,0.14373986118352688,0.055295412566323546
0114,cdot_cos,P,T-P,110,22,22272,0.03810080832626263,-0.0037469286096777454,0.08953116668010398,0.9955379834262627,979.0,2.4282302134129705,0.557623462594567,5.848404588433685,-0.05347509279717272,0.559,0.9999999999999761,-33.551857538994675,0.5463876232378233,110,2026-10-07 22:01:38.356243,60.4,0.46506836294774295,0.06737761291204465,0.11214626770339384
0114,cdot_cos,Q,P-Q,111,22,22381,-0.018853542441879305,-0.01213775100798779,-0.05695435076814193,0.031067196176649055,979.0,2.4408686210024393,0.5576615286482414,5.875329191072625,-0.010949918512961074,0.109,0.9999999999999744,1117.1416571823092,0.5513547877590165,111,2026-10-07 22:01:38.465244,60.4,0.020576482923160697,0.34882941659775835,0.11594869348136486
0114,cdot_cos,R,Q-R,112,22,22413,0.08033528611657317,0.10283781424190636,0.09918882855845249,0.9975050916172249,979.0,2.504275026231282,0.5588833904999078,5.914666272990678,-0.055761082170946,0.032,0.9999999999999739,-36.674492780727,0.5563219231907109,112,2026-10-07 22:01:38.497243,60.4,0.44770177855681836,1.1679686187742178,1.9814501634013297
0114,cdot_cos,S,R-S,113,22,22440,-0.012891451015797004,-0.042039892431086454,-0.09322673713237017,0.0035725563466258766,979.0,2.5156186126039892,0.5588877653158068,5.941058859338837,-0.010126588134936998,0.027,0.9999999999999725,10431.180440429076,0.5612890571147661,113,2026-10-07 22:01:38.524243,60.4,0.011038085369049709,0.5122855913873066,0.4201328286187919
0114,cdot_cos,T,S-T,114,22,22712,-0.04958443840747022,0.018431941243283338,-0.03669298739167322,0.09830012452596303,979.0,2.5319384481661964,0.5590081363003947,5.968574036206528,-0.014648402414506,0.272,0.9999999999999711,-37.56565001979524,0.5662562888574528,114,2026-10-07 22:01:38.796243,60.4,0.734408454578365,0.14785342897863374,0.05999939544929108
0114,cdot_cos,P,T-P,115,23,23251,0.040131493294151124,-0.0029683101171618606,0.08971593170162134,0.9955872833386692,917.0,2.596050877968366,0.5602268648477566,6.007764261115645,-0.058428738757556595,0.539,0.9999999999999707,-35.92295957768255,0.5712236312351175,115,2026-10-07 22:01:39.335244,60.4,0.4726998945883325,0.07042014877094775,0.11894699406710496
0114,cdot_cos,Q,P-Q,116,23,23375,-0.03586565908336847,-0.028105190362479056,-0.0759971523775196,0.010048545547773369,917.0,2.607851368541278,0.5602391619012154,6.033960921759702,-0.0109134923993482,0.124,0.9999999999999689,3863.95379329418,0.5761908040148277,116,2026-10-07 22:01:39.459244,60.4,0.012857761798242972,0.3088173277108358,0.09516524655574277
0114,cdot_cos,R,Q-R,117,23,23407,0.060563550747269344,0.11180886040616034,0.09642920983063782,0.9970539050079426,917.0,2.6726375752406533,0.5614589510214609,6.073107604588026,-0.060761639829312666,0.032,0.9999999999999685,-40.866201052792846,0.5811579387274495,117,2026-10-07 22:01:39.491244,60.4,0.44026060269994793,1.3084989650526402,2.0245689593554745
0114,cdot_cos,S,R-S,118,23,23441,0.03052571787180454,-0.11353423756317635,-0.030037832875464805,0.14012102903166665,917.0,2.691595302304647,0.5616303149932387,6.100867323295051,-0.018060488139810496,0.034,0.9999999999999669,249.1839518337231,0.5861250748482453,118,2026-10-07 22:01:39.525243,60.4,0.09401123804413858,0.4815809999142047,0.5575802077645232
0114,cdot_cos,T,S-T,119,23,23710,-0.02026587354722619,0.0011110899028626581,-0.05079159141903073,0.044454672704488704,917.0,2.705385083234819,0.5616846787041964,6.127256954566494,-0.01321697222656764,0.269,0.9999999999999655,89.09465207430458,0.5910923136165844,119,2026-10-07 22:01:39.794244,60.4,0.6931825903498674,0.1444106124546048,0.0512631261344689
0114,cdot_cos,P,T-P,120,24,24168,0.03512041935027454,0.0002998975376020426,0.05538629289750073,0.9659516461546306,980.0,2.7692882118052244,0.5628655751115197,6.165883964819152,-0.06209327407095733,0.458,0.999999999999965,-41.389152800604116,0.5960596381300266,120,2026-10-07 22:01:40.252243,60.4,0.4551431679657528,0.08411203840326391,0.1395264815947713
0114,cdot_cos,Q,P-Q,121,24,24295,-0.022541388490446543,-0.018163699666086382,-0.057661807840721085,0.029806380048870564,980.0,2.782431710412209,0.562902002784021,6.19192259018615,-0.012950742969279411,0.127,0.9999999999999633,1349.0439472868595,0.6010268152685876,121,2026-10-07 22:01:40.379244,60.4,0.022492522829147564,0.3120430281074156,0.10349211501562594
0114,cdot_cos,R,Q-R,122,24,24328,0.06858063520224346,0.11398711416819492,0.09112202369269,0.995945116645705,980.0,2.848547140944508,0.5641187981442717,6.230896351428727,-0.0660343598207528,0.033,0.9999999999999624,-43.625755476696064,0.6059939500038024,122,2026-10-07 22:01:40.412243,60.4,0.44758951709533745,1.1881872396578799,2.0034978949181537
0114,cdot_cos,S,R-S,123,24,24355,-0.00461550055207571,-0.05583997738341641,-0.07319613575431917,0.011878840659400534,980.0,2.860852068229629,0.5641333064821117,6.256541600310153,-0.012460900552989238,0.027,0.9999999999999609,3692.5979983765505,0.6109610824397309,123,2026-10-07 22:01:40.439244,60.4,0.013577723062984838,0.4430516139410429,0.4557380475970742
0114,cdot_cos,T,S-T,124,24,24629,-0.1418093646215533,-0.037824199215590264,-0.1371938640694776,0.00025182875369899064,980.0,2.8724719280973243,0.5641336140544265,6.281926635142384,-0.01181645687556454,0.274,0.9999999999999588,2095.259053992849,0.6159283315400355,124,2026-10-07 22:01:40.713243,60.4,0.946922705236067,0.1436368985206554,0.042408247692318664
0114,cdot_cos,P,T-P,125,25,25148,0.04881070014936944,-0.002069465021831486,0.19062006477092275,0.9999900053629801,1019.0,2.939565088618948,0.5653545653250163,6.320856793312924,-0.06912054933214518,0.519,0.9999999999999579,-46.93397176195382,0.6208957001494042,125,2026-10-07 22:01:41.232243,60.4,0.4364656178145322,0.07756683942970463,0.12927391237307098
0114,cdot_cos,Q,P-Q,126,25,25273,-0.008603345991790724,-0.0077117531325046566,-0.05741404614116016,0.03024219010732831,1019.0,2.9529863074253577,0.565391477661421,6.346504243251367,-0.014018042545198723,0.125,0.9999999999999566,1492.793796167215,0.625862879006898,126,2026-10-07 22:01:41.357243,60.4,0.019627424622037027,0.32286146897092394,0.1073697504512765
0114,cdot_cos,R,Q-R,127,25,25305,0.07403974016586191,0.10680591375041491,0.08264308615765265,0.9932513576075903,1019.0,3.020280455861679,0.5666033928530032,6.385296610130794,-0.07120302131065052,0.032,0.9999999999999553,-47.18562747843104,0.6308300125239882,127,2026-10-07 22:01:41.389244,60.4,0.44792667395402724,1.2430522527825185,2.1029421386350444
0114,cdot_cos,S,R-S,128,25,25338,-0.00798215110142725,-0.023963562387964075,-0.08202189126728916,0.007004855432580455,1019.0,3.032541651603439,0.566611937013205,6.410482945285927,-0.01314613063522332,0.033,0.9999999999999534,6794.920659753895,0.6357971470914229,128,2026-10-07 22:01:41.422244,60.4,0.01207917775552407,0.36493628422319974,0.37155138611393235
0114,cdot_cos,T,S-T,129,25,25607,-0.17951472366711546,-0.010825626836540626,-0.1715325725656882,3.165548764940847e-05,1019.0,3.0443662506204103,0.566611975624841,6.4354756133373705,-0.01272847212820226,0.269,0.9999999999999513,10816.907810518567,0.6407644018757902,129,2026-10-07 22:01:41.691243,60.4,0.9677195707594227,0.14913726561654542,0.043957617163462505
0114,cdot_cos,P,T-P,130,26,26167,0.04666325061751251,-0.0032893718653305903,0.22617797428462796,0.9999988330893993,939.0,3.1127775005051403,0.5678313136554258,6.474273779761827,-0.07456310487394134,0.56,0.999999999999951,-50.71164123051387,0.6457318092002136,130,2026-10-07 22:01:42.251244,60.4,0.43635784711313774,0.0729294050125542,0.12216294622273216
0114,cdot_cos,Q,P-Q,131,26,26289,-0.015243850483352995,-0.014065698342257588,-0.0619071011008655,0.023221328335555985,939.0,3.126047184234471,0.5678596186339653,6.499451151093329,-0.01465459203832708,0.122,0.9999999999999483,2116.5362394504364,0.650698989031277,131,2026-10-07 22:01:42.373244,60.4,0.01677212681990002,0.33552757009627016,0.10876789942074332
0114,cdot_cos,R,Q-R,132,26,26322,0.06771540873305025,0.1130240286697689,0.08295925921640325,0.9933781673429377,939.0,3.1946462276086303,0.5690700515037878,6.538117877192763,-0.07670076978103253,0.033,0.9999999999999479,-51.25949508608873,0.6556661221602341,132,2026-10-07 22:01:42.406244,60.4,0.4453306958419565,1.2397151761432126,2.078758890126037
0114,cdot_cos,S,R-S,133,26,26356,0.0032575117711127637,-0.06553089463330415,-0.06445789696193749,0.019971860513536523,939.0,3.207868385859923,0.5690943788362739,6.5631173020462885,-0.014974899847722732,0.034,0.9999999999999457,2537.305311565741,0.6606332564109415,133,2026-10-07 22:01:42.440243,60.4,0.016212780259791074,0.4038653465960231,0.38888700739096477
0114,cdot_cos,T,S-T,134,26,26626,-0.050096536457811924,0.006351951368730774,-0.053354048228924686,0.038324617359456,939.0,3.22210907117716,0.5691410603686639,6.588284846487221,-0.016197198621287958,0.27,0.9999999999999434,-26.18377570287635,0.6656005200813648,134,2026-10-07 22:01:42.710243,60.4,0.9273134923925881,0.1548000012676261,0.05274327895272877
0114,cdot_cos,P,T-P,135,27,27106,0.033756478456771516,0.0018493578918440871,0.08385301491458344,0.9937239715211176,938.0,3.291460386544441,0.5703510405492909,6.626881030008558,-0.07984988281548919,0.48,0.999999999999943,-52.6063858014735,0.6705679028102141,135,2026-10-07 22:01:43.190243,60.4,0.4506094025017978,0.08596315835069368,0.14448190701516947
0114,cdot_cos,Q,P-Q,136,27,27235,-0.03307593231627039,-0.02778623902269679,-0.0668324107730419,0.01734970823918995,938.0,3.3046337031938258,0.5703721585149734,6.651626076591849,-0.015359506101409097,0.129,0.9999999999999398,3053.8157739096127,0.6755350895771333,136,2026-10-07 22:01:43.319244,60.4,0.015014674689834497,0.3223548322499861,0.10211873371615962
0114,cdot_cos,R,Q-R,137,27,27270,0.05567678153496691,0.11170232286244638,0.0887527138512373,0.995324179869244,938.0,3.3746279332649376,0.5715832302544138,6.690211035883694,-0.08258119541006996,0.035,0.9999999999999396,-55.505951562967354,0.6805022232676606,137,2026-10-07 22:01:43.354244,60.4,0.44307898899399883,1.3012354050406254,1.9998351448889091
0114,cdot_cos,S,R-S,138,27,27297,0.027060110461247653,-0.11574623261883786,-0.02861667107371926,0.15078634187699094,938.0,3.3957201815466695,0.5717666268107657,6.716737889845401,-0.025221895530652006,0.027,0.999999999999937,312.76105189976306,0.6854693529037413,138,2026-10-07 22:01:43.381243,60.4,0.10288054506803866,0.6475114429596112,0.7811943808048871
0114,cdot_cos,T,S-T,139,27,27584,-0.03216778038626205,0.0010974738022179755,-0.05922789084750971,0.027189336754621124,938.0,3.4095935511847566,0.571799694226145,6.741419825148846,-0.016674988464704478,0.287,0.9999999999999349,258.4691596826844,0.6904366363084131,139,2026-10-07 22:01:43.668243,60.4,0.5989611749221418,0.14695868387614464,0.048339267031662206
0114,cdot_cos,P,T-P,140,28,28044,0.045513592185676986,-0.001826833088646,0.07768137257193904,0.9909145574866728,999.0,3.4800744660915766,0.5730043953252596,6.779880324767196,-0.08570293867974874,0.46,0.9999999999999348,-57.29881898985117,0.6954040257484904,140,2026-10-07 22:01:44.128243,60.4,0.44689450868357167,0.09106742722505122,0.1532193802322173
0114,cdot_cos,Q,P-Q,141,28,28169,-0.02358911098708502,-0.016626124110003367,-0.06910270317276201,0.015160232010396018,999.0,3.4933755842318037,0.5730228196403627,6.804269928801957,-0.016370312484403536,0.125,0.9999999999999313,3763.1046694146817,0.700371213716469,141,2026-10-07 22:01:44.253243,60.4,0.0144759605653752,0.3386763570791249,0.10640894512181731
0114,cdot_cos,R,Q-R,142,28,28201,0.07155913883798445,0.10852838850956717,0.09514824982506948,0.9968176701514103,999.0,3.564743555361358,0.5742338107716886,6.842786549677458,-0.08883759478974065,0.032,0.9999999999999313,-59.84129894163428,0.7053383451302566,142,2026-10-07 22:01:44.285243,60.4,0.4423173586276395,1.3182743580539626,2.2302490977985645
0114,cdot_cos,S,R-S,143,28,28234,-0.0083696076933381,-0.03425859952921193,-0.07992874653132255,0.007941370893505663,999.0,3.5777451431472573,0.5742434548487769,6.866953921663917,-0.01637751040455076,0.033,0.9999999999999282,7513.428576032109,0.7103054777788316,143,2026-10-07 22:01:44.318244,60.4,0.011981816926901112,0.39976549907179876,0.3939875086636227
0114,cdot_cos,T,S-T,144,28,28504,-0.07763112645259439,0.023002151504534968,-0.06926151875925629,0.015017676820082869,999.0,3.5911280783000965,0.5742616923053301,6.891141267466023,-0.016919962320328392,0.27,0.9999999999999254,-29.743835945348597,0.7152727603187113,144,2026-10-07 22:01:44.588243,60.4,0.9684485922637812,0.1585047097058982,0.049566426491996926
0114,cdot_cos,P,T-P,145,29,29043,0.03954174643746608,-0.003179553050313923,0.11717287289006047,0.999156613534963,999.0,3.6633376863884424,0.5754746111790798,6.929632951598951,-0.09231553372991644,0.539,0.9999999999999253,-62.16044043943529,0.7202402176477353,145,2026-10-07 22:01:45.127244,60.4,0.44188041935967204,0.08125072059879165,0.13396958829006653
0114,cdot_cos,Q,P-Q,146,29,29153,-0.010612998437067107,-0.008129902825800818,-0.05015474487453318,0.04611756248039045,999.0,3.678716355105594,0.5755305734340218,6.954163443585446,-0.01989736978774312,0.11,0.9999999999999215,1294.0537156206142,0.7252073988037273,146,2026-10-07 22:01:45.237243,60.4,0.02626324712240927,0.3997614229073127,0.13980607924683222
0114,cdot_cos,R,Q-R,147,29,29186,0.08140198412043038,0.10288053516070929,0.09201498255749749,0.9961572043546547,999.0,3.751285199428051,0.5767389048433227,6.992588678253789,-0.094944811030965,0.033,0.9999999999999213,-62.10832613102657,0.7301745300237804,147,2026-10-07 22:01:45.270243,60.4,0.4536486602314996,1.2961684339207478,2.1990558885593106
0114,cdot_cos,S,R-S,148,29,29213,-0.010034576773925621,-0.024232978347746688,-0.091436560894356,0.003978879252970071,999.0,3.7642634717443633,0.5767437293647047,7.016391371333593,-0.01717546087092443,0.027,0.9999999999999182,16119.599023682953,0.7351416578282636,148,2026-10-07 22:01:45.297244,60.4,0.010802973912435872,0.4848350770506152,0.4806767524560037
0114,cdot_cos,T,S-T,149,29,29483,-0.08909732894946497,0.024013345482493686,-0.07906275217553935,0.00836424128957399,999.0,3.7774662935887844,0.5767538712334338,7.04017928440656,-0.017533385634408753,0.27,0.9999999999999153,-35.29179612224904,0.7401089497874804,149,2026-10-07 22:01:45.567244,60.4,0.9797930540037112,0.16047959069842,0.048899340164522666
0114,cdot_cos,P,T-P,150,30,30042,0.035062098423205214,-0.0025296539008851805,0.12415942737267019,0.9994467954707886,938.0,3.85092245072151,0.5779652595623037,7.0786009895199244,-0.09859513365502881,0.559,0.9999999999999151,-66.91640169279287,0.745076441927941,150,2026-10-07 22:01:46.126244,60.4,0.4394779035391385,0.07804862143893332,0.13140636338591355
0114,cdot_cos,Q,P-Q,151,30,30152,-0.032958946928012794,-0.022191091435657905,-0.068021045351218,0.0161672051897488,938.0,3.864724652357512,0.5779848474994691,7.102397908457693,-0.01873741874383108,0.11,0.999999999999911,4076.8823300242684,0.7500436254833821,151,2026-10-07 22:01:46.236243,60.4,0.014094961437432671,0.39857937739358196,0.12547456032728876
0114,cdot_cos,R,Q-R,152,30,30188,0.06893632738762194,0.10457612990883455,0.10189527431563473,0.9978805449451553,938.0,3.938609913748098,0.5791933870259051,7.140776857905258,-0.10136516061463355,0.036,0.9999999999999105,-68.36991266183543,0.7550107578981116,152,2026-10-07 22:01:46.272243,60.4,0.44257323684958294,1.2574368922006227,2.0523683719607297
0114,cdot_cos,S,R-S,153,30,30231,0.0235195422424061,-0.12063658280289781,-0.04541678514521584,0.060473326688843636,938.0,3.9552601085959567,0.579266596318673,7.165133294693466,-0.023106773519401855,0.043,0.9999999999999075,1068.9679429527828,0.7599778960329999,153,2026-10-07 22:01:46.315244,60.4,0.033816181012414154,0.4636477277127362,0.38721383367112955
0114,cdot_cos,T,S-T,154,30,30501,-0.0030390514571452037,0.00021421042636406062,-0.026558593699551304,0.16740391894171286,938.0,3.9784836183313934,0.5794692380957179,7.191025344087145,-0.032387595710158056,0.27,0.9999999999999045,-45.799155169769875,0.7649451981571143,154,2026-10-07 22:01:46.585243,60.4,0.7508459037009512,0.16958508005758696,0.08601299902013608
0114,cdot_cos,P,T-P,155,31,30980,0.03275128556748018,-0.0022857874293403893,0.035790337024625384,0.8967604132282484,960.0,4.046836051827054,0.5805543054455309,7.227844063987073,-0.09635614854427896,0.479,0.999999999999904,-58.95353209655425,0.7699126558016288,155,2026-10-07 22:01:47.064243,60.4,0.5148517980156948,0.08640332588249523,0.14269819101390444
0114,cdot_cos,Q,P-Q,156,31,31090,-0.029782394872016532,-0.019643414281704998,-0.06253368043949671,0.022378228844020256,960.0,4.061258004526824,0.5805813728708552,7.251460348740757,-0.02053989397826245,0.11,0.9999999999999,2801.0146387247,0.7748798423653971,156,2026-10-07 22:01:47.174243,60.4,0.02494278475038001,0.40690034295715755,0.13110866090700182
0114,cdot_cos,R,Q-R,157,31,31127,0.07135412981517968,0.10470406467859855,0.10113652468719621,0.9977813739740495,960.0,4.136354127277628,0.5817877370715469,7.289780790428631,-0.10804650524309377,0.037,0.9999999999998996,-72.53747352139688,0.7798469750915668,157,2026-10-07 22:01:47.211244,60.4,0.44490359739720853,1.1983658727158442,2.0296249392109313
0114,cdot_cos,S,R-S,158,31,31165,-0.010920771491060459,-0.036993226651185214,-0.08227490130624013,0.0068993553118962365,960.0,4.149937079107796,0.5817960753262063,7.31306461021297,-0.01975412447320346,0.038,0.9999999999998962,10588.832360779665,0.7848141092776978,158,2026-10-07 22:01:47.249243,60.4,0.011452274822876156,0.3512492938474735,0.3574461007938947
0114,cdot_cos,T,S-T,159,31,31419,-0.28581136653275296,0.05437167455485682,-0.2748905950416925,6.155147612495672e-08,960.0,4.163049073610036,0.5817960754005944,7.336170716217811,-0.01913062903228965,0.254,0.9999999999998925,8381648.661077776,0.7897814090568249,159,2026-10-07 22:01:47.503244,60.4,0.9679339028601971,0.17522223490219854,0.05162202559937003
0114,cdot_cos,P,T-P,160,32,31940,0.07189732074126978,-0.008732294063113023,0.3577086872740227,0.9999999995861861,998.0,4.238949974438113,0.5830041343263589,7.374485181863982,-0.11183492695974596,0.521,0.9999999999998923,-76.7382252225749,0.7947489184349958,160,2026-10-07 22:01:48.024243,60.4,0.4365123151535429,0.08577245892248228,0.1456831109943894
0114,cdot_cos,Q,P-Q,161,32,32052,-0.01975252077811466,-0.014411992201000921,-0.09164984151938443,0.0039281515206018,998.0,4.252423975807263,0.583008877810429,7.397554822816204,-0.020064164225022545,0.112,0.9999999999998875,19346.69988951004,0.7997161092557907,161,2026-10-07 22:01:48.136243,60.4,0.010318011577383627,0.39998043051127563,0.12030358365312203
0114,cdot_cos,R,Q-R,162,32,32091,0.06956963412382548,0.09724491338759511,0.08932215490194015,0.9954815526125674,998.0,4.328545590872639,0.5842104852880335,7.435787008369238,-0.11445420432543858,0.039,0.9999999999998874,-78.55313973959728,0.8046832429446523,162,2026-10-07 22:01:48.175244,60.4,0.43836779335970705,1.1627444654903134,1.9518362837275915
0114,cdot_cos,S,R-S,163,32,32126,0.00466266178531945,-0.10802838790785714,-0.06490697233850604,0.019447815255485647,998.0,4.343118044115507,0.584233950079678,7.459001236797735,-0.022141928718713448,0.035,0.9999999999998833,3934.0760832350934,0.8096503741208588,163,2026-10-07 22:01:48.210243,60.4,0.015465921550527933,0.44162641655530266,0.41635580693909646
0114,cdot_cos,T,S-T,164,32,32399,-0.04487676175070613,0.013778797956565432,-0.049539423536025584,0.04778035383456299,998.0,4.35945944003151,0.5842915979178855,7.482584873125673,-0.02491724550191719,0.273,0.9999999999998798,-48.142599436500575,0.8146176988606671,164,2026-10-07 22:01:48.483244,60.4,0.8945975168634324,0.17046987885387827,0.05985859309891139
0114,cdot_cos,P,T-P,165,33,32938,0.04170395832247948,-0.0033492192340344403,0.08658072007318561,0.9946722034540177,979.0,4.436194597969725,0.5854911614355824,7.520771674158705,-0.11815746965259513,0.539,0.9999999999998794,-77.72845937303458,0.8195852453534402,165,2026-10-07 22:01:49.022244,60.4,0.454245116833321,0.0846946135363664,0.14236578467201247
0114,cdot_cos,Q,P-Q,166,33,33055,-0.02464634737245957,-0.017284245880262252,-0.06635030569493905,0.017853192287914366,979.0,4.450760233423713,0.5855126829715513,7.543804841532396,-0.022660761624348925,0.117,0.9999999999998751,4437.262664069338,0.8245524431468184,166,2026-10-07 22:01:49.139244,60.4,0.014784322859730864,0.3928822958148839,0.12449261071784834
0114,cdot_cos,R,Q-R,167,33,33093,0.07031214727172584,0.10684564065932389,0.0949584946441854,0.996781105055419,979.0,4.528129055190408,0.5867137553024392,7.582014313794155,-0.12150952735961175,0.038,0.9999999999998742,-82.30042703772305,0.8295195752894841,167,2026-10-07 22:01:49.177243,60.4,0.4433009927937683,1.2036933380054715,2.036021625439331
0114,cdot_cos,S,R-S,168,33,33127,-0.007659924818115454,-0.04544725767453237,-0.07797207208984129,0.00892872227697526,979.0,4.542240927112129,0.5867245093363173,7.604820459457965,-0.022388657411578913,0.034,0.9999999999998707,9217.087380594487,0.8344867047367821,168,2026-10-07 22:01:49.211244,60.4,0.011946933321054717,0.40850653114797003,0.4150550565212133
0114,cdot_cos,T,S-T,169,33,33397,-0.10614622307075437,0.031920858143870426,-0.09848629825263892,0.0026027711393946666,979.0,4.55590749930847,0.586727644180151,7.627461022709317,-0.021748537967653567,0.27,0.9999999999998659,204.19500232695245,0.8394540373999023,169,2026-10-07 22:01:49.481244,60.4,0.9709961676583481,0.17011495453689707,0.050616934060521146
0114,cdot_cos,P,T-P,170,34,33917,0.02244835859165735,-0.0006137965987096337,0.12859458166241172,0.9995767451494877,918.0,4.634103002562053,0.5879310378531939,7.665684566834055,-0.12558523650149045,0.52,0.9999999999998658,-86.2865584719885,0.8444215904764323,170,2026-10-07 22:01:50.001244,60.4,0.4374370388950152,0.08871674921893882,0.15037596779535328
0114,cdot_cos,Q,P-Q,171,34,34030,-0.059397992212181054,-0.04078588626981906,-0.0818463508038384,0.007078991991558113,918.0,4.648172918496166,0.5879395565449647,7.688309127090249,-0.022823598794933352,0.113,0.999999999999861,12063.077344719151,0.8493887878244228,171,2026-10-07 22:01:50.114244,60.4,0.011082043293532913,0.4103152205972409,0.12451253039037756
0114,cdot_cos,R,Q-R,172,34,34068,0.058211315210860225,0.0988882950181578,0.11760930742304128,0.9991785372526996,918.0,4.72683424241703,0.5891414136633858,7.726519011543553,-0.12876246630087113,0.038,0.9999999999998603,-88.14597499335729,0.854355919301937,172,2026-10-07 22:01:50.152243,60.4,0.4392236719169362,1.6846511287708381,2.070034840022731
0114,cdot_cos,S,R-S,173,34,34105,0.061245580597703894,-0.179152295379141,0.0030342653868436695,0.5456895946229056,918.0,4.77620640428275,0.5897973458468264,7.75757470776753,-0.08188239220631088,0.037,0.9999999999998583,71.47091616797312,0.8593230508835793,173,2026-10-07 22:01:50.189243,60.4,0.5640968254003443,0.8736743976964478,1.3343827531275652
0114,cdot_cos,T,S-T,174,34,34376,-0.0009525791946734766,4.346863761592351e-06,-0.06219815979237737,0.022825902835441173,918.0,4.791486147846567,0.5898247761973114,7.780324966332842,-0.025512924930388113,0.271,0.999999999999854,2055.003537293363,0.8642903986424326,174,2026-10-07 22:01:50.460243,60.4,0.10976127886794011,0.16605286300401015,0.05638281757866135
0114,cdot_cos,P,T-P,175,35,34835,0.041347738782938584,-0.0030141570904343626,0.04230031797761206,0.9279046349238018,979.0,4.866207056030923,0.5909393832390076,7.817395106317902,-0.12583187148408514,0.459,0.9999999999998533,-90.00386934666517,0.8692579242098769,175,2026-10-07 22:01:50.919244,60.4,0.45056815620901836,0.09803806112024455,0.16279064963912043
0114,cdot_cos,Q,P-Q,176,35,34952,-0.02213783946819488,-0.015450943579760965,-0.06348557825113346,0.021154339330814256,979.0,4.881485087954951,0.5909647831651728,7.840035766379056,-0.025967853896763312,0.117,0.9999999999998481,3931.6656646204883,0.8742251299388033,176,2026-10-07 22:01:51.036243,60.4,0.021371895673205896,0.406063422599299,0.13058146943613855
0114,cdot_cos,R,Q-R,177,35,34988,0.07460982454506536,0.11300374149067144,0.09674766401326024,0.9971098683450541,979.0,4.961225896919159,0.5921614557614788,7.878197754985639,-0.1367314048127502,0.036,0.9999999999998478,-92.55961175838372,0.8791922595060975,177,2026-10-07 22:01:51.072243,60.4,0.44482191129090753,1.3083103196983705,2.215022471227994
0114,cdot_cos,S,R-S,178,35,35024,-0.00747284440917293,-0.025145817782097412,-0.08208266895423828,0.006979367086353428,979.0,4.975683430973234,0.5921698281541994,7.90053290493908,-0.0250273991899377,0.036,0.9999999999998431,13341.945289850297,0.8841593898383214,178,2026-10-07 22:01:51.108243,60.4,0.011524631931736095,0.39466600189851253,0.4015981681687474
0114,cdot_cos,T,S-T,179,35,35294,-0.1861663886450959,-0.04887523152396698,-0.17869354423592299,2.0540528724365664e-05,979.0,4.989641849055852,0.5921698527943738,7.922694658186449,-0.02423247897070424,0.27,0.999999999999838,32261.144118171105,0.8891267474877719,179,2026-10-07 22:01:51.378243,60.4,0.9677282964382583,0.1750331967226564,0.05169784475043702
0114,cdot_cos,P,T-P,180,36,35814,0.04908110280935675,-0.004900476364335016,0.23524749145445267,0.9999993252672555,999.0,5.0702013572034685,0.593368888692289,7.960881073943585,-0.1410515600189246,0.52,0.9999999999998379,-97.42750926085073,0.8940943534401955,180,2026-10-07 22:01:51.898243,60.4,0.4368343273748509,0.09342657239369812,0.1549221310531086
0114,cdot_cos,Q,P-Q,181,36,35924,-0.004420160974323439,-0.00369458522429643,-0.05350126378368019,0.037998243830433445,999.0,5.086805484345298,0.5934144281422136,7.983576787847093,-0.029351911871540834,0.11,0.9999999999998322,2452.8106582835867,0.8990615554491634,181,2026-10-07 22:01:52.008243,60.4,0.022247352162578213,0.44268178744315745,0.15094661038026883
0114,cdot_cos,R,Q-R,182,36,35959,0.08761516948114567,0.11379711700043837,0.0920353304554691,0.9961619061839808,999.0,5.167591350440963,0.594607715252885,8.02169882595882,-0.1440442817131129,0.035,0.9999999999998317,-96.11464736012692,0.9040286831906023,182,2026-10-07 22:01:52.043243,60.4,0.45102615834910914,1.36007585200808,2.3081676027332874
0114,cdot_cos,S,R-S,183,36,35985,-0.005462026969877216,-0.01345248215414894,-0.09307719645102289,0.003604853912310394,999.0,5.182010793985864,0.5946120314322846,8.043764656338002,-0.025949037055603256,0.026,0.9999999999998268,27361.060263084983,0.9089958025133016,183,2026-10-07 22:01:52.069243,60.4,0.010556163635422944,0.5885606061359564,0.5545939824961749
0114,cdot_cos,T,S-T,184,36,36254,-0.0628018712898564,0.02474028610542575,-0.05733984431997918,0.030373907343089628,999.0,5.198196501960033,0.5946483982706346,8.066205511564432,-0.02921288239187824,0.269,0.9999999999998219,-89.74784403464832,0.913963170593516,184,2026-10-07 22:01:52.338243,60.4,0.894289049855146,0.18143664184296818,0.06016991811958804
0114,cdot_cos,P,T-P,185,37,36813,0.030529484808447648,7.080958223237031e-05,0.09333135609830405,0.9964498675186242,939.0,5.279623707297381,0.595840874816333,8.104314335793173,-0.1482066357663258,0.559,0.9999999999998214,-99.78708076372645,0.9189308417153161,185,2026-10-07 22:01:52.897243,60.4,0.44803189233538265,0.08742363905274692,0.14566584139060412
0114,cdot_cos,Q,P-Q,186,37,36941,-0.026775120819524118,-0.022812118897937182,-0.057304605627971766,0.030436654757169505,939.0,5.295936130421004,0.5958772813927335,8.126685017169123,-0.02996653122240784,0.128,0.9999999999998148,3247.767745116108,0.9238980655249296,186,2026-10-07 22:01:53.025243,60.4,0.01933692523015806,0.383154649881378,0.12744080565330745
0114,cdot_cos,R,Q-R,187,37,36973,0.059578514556696736,0.10838448155700499,0.08635363537622086,0.9945990217960655,939.0,5.377711297667013,0.597066380661933,8.164762366401659,-0.15147288912201887,0.032,0.9999999999998147,-102.18352752114461,0.9288651889570112,187,2026-10-07 22:01:53.057244,60.4,0.4483569001260001,1.5848191612275602,2.5554739764377943
0114,cdot_cos,S,R-S,188,37,37006,0.018623780522260762,-0.1069983235326072,-0.040954734034435974,0.07772503957678276,939.0,5.397364556739568,0.5971592574801992,8.187837631946659,-0.0367470939007884,0.033,0.9999999999998095,1235.2468286802423,0.9338323142726641,188,2026-10-07 22:01:53.090244,60.4,0.04406730171974055,0.5910124391982992,0.5955533052289225
0114,cdot_cos,T,S-T,189,37,37272,-0.02333613658989799,0.0013300594634016233,-0.041959917112158754,0.07348295327155252,939.0,5.416718118654101,0.597247058849308,8.21079198007604,-0.03631515141640565,0.266,0.9999999999998045,4.919541560308847,0.938799691147767,189,2026-10-07 22:01:53.356243,60.4,0.9881761799050969,0.1898145089074783,0.07275775155839587
0114,cdot_cos,P,T-P,190,38,37752,0.0440298959202698,0.0017157117898481818,0.06736603251016779,0.9831913208819442,979.0,5.498345875478346,0.5984212268539083,8.248669840692362,-0.15444945408698957,0.48,0.9999999999998042,-100.61107286839503,0.9437673045862429,190,2026-10-07 22:01:53.836244,60.4,0.4653927748821168,0.10345403644599349,0.17005782671717745
0114,cdot_cos,Q,P-Q,191,38,37880,-0.005737315643174631,-0.005826392097755581,-0.04976721156344443,0.04715826301329413,979.0,5.516033993642255,0.5984775169589955,8.271126441979684,-0.03377099999079751,0.128,0.9999999999997973,2143.8662071989434,0.9487345330743908,191,2026-10-07 22:01:53.964243,60.4,0.02805932024067339,0.3920613816586031,0.1381884231555358
0114,cdot_cos,R,Q-R,192,38,37912,0.07354221415346632,0.12303334177135512,0.07927952979664095,0.9917436626459666,979.0,5.598713589182949,0.5996607006321755,8.309145032238238,-0.1591388616476015,0.032,0.9999999999997966,-105.9580726970855,0.9537016557403422,192,2026-10-07 22:01:53.996243,60.4,0.45484930773041216,1.5288156220001208,2.5837373606466816
0114,cdot_cos,S,R-S,193,38,37941,-0.004773824323752007,-0.015908163262983353,-0.07831603847721832,0.008746742411864386,979.0,5.613878193450263,0.5996711306440692,8.33090022258256,-0.029445008545304845,0.029,0.9999999999997906,12434.679310429321,0.95866877580171,193,2026-10-07 22:01:54.025243,60.4,0.012220840906912495,0.5189242581010454,0.5229173885280661
0114,cdot_cos,T,S-T,194,38,38212,-0.08966003050672006,0.021881275196032224,-0.08488620618296805,0.005898584317012562,979.0,5.628811196152809,0.5996781643322262,8.352552943667535,-0.029072970812999078,0.271,0.9999999999997851,52.89369161673748,0.9636361703698257,194,2026-10-07 22:01:54.296243,60.4,0.9872848416224125,0.1822046677393864,0.05510333100570743
0114,cdot_cos,P,T-P,195,39,38731,0.038970292626104464,-0.0033398440681834483,0.12863032313282452,0.999577657494597,979.0,5.71263312336501,0.6008695018424367,8.39068865632511,-0.1644619998536698,0.519,0.9999999999997845,-113.64456157915198,0.9686038521014918,195,2026-10-07 22:01:54.815244,60.4,0.4390140863268045,0.09774899333016929,0.16150660349171622
0114,cdot_cos,Q,P-Q,196,39,38840,-0.012272201434192838,-0.009430162423904554,-0.0512424940602973,0.04331203917262519,979.0,5.730274651229525,0.6009210960343917,8.41289818400838,-0.03492153657926124,0.109,0.9999999999997774,2510.756702758397,0.9735710626861649,196,2026-10-07 22:01:54.924243,60.4,0.024490450019370467,0.46658087181026653,0.16184887949096335
0114,cdot_cos,R,Q-R,197,39,38872,0.08132517520217025,0.10344080969386057,0.09359737663636308,0.9965062562499661,979.0,5.814347753419648,0.6021075339223123,8.450984818156353,-0.1677339845026156,0.032,0.9999999999997771,-111.94218363687435,0.9785381843381089,197,2026-10-07 22:01:54.956243,60.4,0.45302677556343396,1.547761315953855,2.6272844434413467
0114,cdot_cos,S,R-S,198,39,38900,-0.012210808742120528,-0.05613894887658225,-0.09353598394429077,0.0035066775015780783,979.0,5.829331375450572,0.6021117068548785,8.472465580600058,-0.0301501732966725,0.028,0.9999999999997708,32970.53307826461,0.9835053020477171,198,2026-10-07 22:01:54.984244,60.4,0.010427755195905641,0.7242198626043235,0.5351293582472724
0114,cdot_cos,T,S-T,199,39,39170,-0.04027105530969655,0.013563523466528702,-0.028060246567576025,0.15514053810372644,979.0,5.85490406572549,0.6022963086274541,8.496437871655644,-0.051628683738054966,0.27,0.9999999999997655,-116.35051029959052,0.9884727082791724,199,2026-10-07 22:01:55.254244,60.4,0.6596677742257763,0.20374623657149007,0.09471366768488328
0114,cdot_cos,P,T-P,200,40,39710,0.04187643241386716,0.0007113139181147234,0.08214748772356371,0.993047714494443,999.0,5.939354343199176,0.603477245029577,8.53445998036897,-0.17192744628112855,0.54,0.9999999999997646,-101.86726594829184,0.9934404436136792,200,2026-10-07 22:01:55.794244,60.4,0.4967310416158357,0.09364895327061232,0.15638940272904844
0114,cdot_cos,Q,P-Q,201,40,39841,-0.01784387221308673,-0.0162246161537386,-0.05972030462695389,0.026413629426992758,999.0,5.956044935257752,0.6035086398304276,8.556214776840516,-0.03426987502887285,0.131,0.9999999999997571,4384.725098511158,0.9984076845832264,201,2026-10-07 22:01:55.925244,60.4,0.018009278153773487,0.3872124547729294,0.12740909968377975
0114,cdot_cos,R,Q-R,202,40,39879,0.060004173309119356,0.10841086827615909,0.07784804552220609,0.9910047436023506,999.0,6.040804006349684,0.6046859133819056,8.594204709651523,-0.17533555599812672,0.038,0.9999999999997568,-119.82404666456058,1.0033748124539075,202,2026-10-07 22:01:55.963244,60.4,0.44729054052168976,1.3298750515482227,2.2305018708403255
0114,cdot_cos,S,R-S,203,40,39919,-0.004889518454240521,-0.04772290179133158,-0.06489369176335988,0.01946311776901227,999.0,6.0571154391754165,0.6047090226766241,8.615780484138334,-0.03402598347129995,0.04,0.99999999999975,6114.837092529057,1.0083419436998133,203,2026-10-07 22:01:56.003244,60.4,0.015717349692558877,0.43568936235518496,0.4077858206433138
0114,cdot_cos,T,S-T,204,40,40189,-0.05317374349047091,0.012434494945700819,-0.04828422503623039,0.0513503796108077,999.0,6.075659155338099,0.6047699906757125,8.637846342619946,-0.038791946556663494,0.27,0.9999999999997433,-78.17155157829473,1.0133093626617633,204,2026-10-07 22:01:56.273243,60.4,0.8843878207961677,0.19341513703714425,0.06868043023215646
0114,cdot_cos,P,T-P,205,41,40709,0.05698116790246235,-0.004589126043255875,0.11015491139293326,0.9987119753367705,897.0,6.161559613175474,0.6059551053811963,8.675959981562055,-0.18105429361101205,0.52,0.9999999999997425,-120.04099383465422,1.018277100828214,205,2026-10-07 22:01:56.793243,60.4,0.4557804191122433,0.09857086612826778,0.16519318814879932
0114,cdot_cos,Q,P-Q,206,41,40817,-0.005475177344768792,-0.005108362887115639,-0.06245634524723114,0.022480647691037234,897.0,6.178172856111497,0.6059817676049867,8.697477944800863,-0.03530860589304461,0.108,0.9999999999997343,5466.374030317232,1.0232443168879335,206,2026-10-07 22:01:56.901243,60.4,0.016118836812716097,0.47565472476653303,0.15382632348169298
0114,cdot_cos,R,Q-R,207,41,40848,0.08431037059995279,0.12633835201813085,0.08978554794472159,0.9956057177044357,897.0,6.2643010337250455,0.6071619288482671,8.735542350060618,-0.18438032034933366,0.031,0.9999999999997338,-126.31470089791985,1.0282114349295042,207,2026-10-07 22:01:56.932243,60.4,0.445525309264717,1.6374233767269775,2.7783283101144614
0114,cdot_cos,S,R-S,208,41,40877,-0.007472067756893675,-0.025292696006489302,-0.09178243835684646,0.003896939299709807,897.0,6.27969310546857,0.6071665457154053,8.756683851097195,-0.03321955138675189,0.029,0.9999999999997266,32740.983103769857,1.0331785511964953,208,2026-10-07 22:01:56.961244,60.4,0.010563448218819754,0.5257687110872764,0.5307610946042863
0114,cdot_cos,T,S-T,209,41,41147,-0.13915400295874725,0.03732295996356915,-0.13168193520185356,0.0003512753309845632,897.0,6.294795618968108,0.6071669618850554,8.777714342353438,-0.032673845362624805,0.27,0.9999999999997194,1311.2585793532414,1.0381459828765256,209,2026-10-07 22:01:57.231244,60.4,0.9834370825809104,0.1890979859780455,0.05593523518347306
0114,cdot_cos,P,T-P,210,42,41606,0.004892847312288916,-2.719977609255743e-05,0.14404685027103617,0.999833513487319,980.0,6.381806017896714,0.6083508710682569,8.815845145345312,-0.18957006832012963,0.459,0.9999999999997188,-132.52386685034682,1.0431136673564638,210,2026-10-07 22:01:57.690243,60.4,0.4370785366490928,0.11253116953745991,0.18956513927801055
0114,cdot_cos,Q,P-Q,211,42,41735,-0.06387409856662515,-0.04417653390013585,-0.06876694587891408,0.015466012722100974,980.0,6.398099232603496,0.6083691745024349,8.83707633536508,-0.03578681265518725,0.129,0.9999999999997103,8401.879896945633,1.0480809151181292,211,2026-10-07 22:01:57.819244,60.4,0.013606541738272387,0.4019398947097509,0.12630398997504927
0114,cdot_cos,R,Q-R,212,42,41768,0.053861433362328535,0.09231370369167011,0.1177355319289537,0.9991847711526433,980.0,6.48550651073183,0.6095510235178284,8.875200526240041,-0.19333204131567377,0.033,0.9999999999997096,-133.3040232791725,1.053048034952964,212,2026-10-07 22:01:57.852243,60.4,0.44268600189893237,1.6293068493223164,2.6487053978283144
0114,cdot_cos,S,R-S,213,42,41796,0.010227501304748256,-0.12629037468080953,-0.04363393205758028,0.06688900870395913,980.0,6.505633484658769,0.609630094992205,8.897261981019918,-0.04488621580722226,0.028,0.9999999999997028,1877.3625593659087,1.0580151488593597,213,2026-10-07 22:01:57.880243,60.4,0.03662008579757674,0.7278283631246194,0.7188204973906613
0114,cdot_cos,T,S-T,214,42,42066,-0.03160434765963798,0.006621193961025963,-0.041831848964386235,0.07401133905389941,980.0,6.526264899066809,0.6097175792709851,8.919402893395233,-0.04615182841148222,0.27,0.9999999999996958,-14.466743304138879,1.0629825943236124,214,2026-10-07 22:01:58.150244,60.4,0.9729497862321675,0.19856339496292547,0.07641264595570434
0114,cdot_cos,P,T-P,215,43,42586,0.03266859491641725,-0.001818394134068032,0.06427294257605523,0.9798083083129909,979.0,6.612857717938748,0.6108750836968903,8.957190752008954,-0.19508961554209356,0.52,0.999999999999695,-128.67146232650313,1.0679503889979058,215,2026-10-07 22:01:58.670244,60.4,0.4660638321511634,0.10044492284377529,0.1665246516768069
0114,cdot_cos,Q,P-Q,216,43,42697,-0.022561840517180458,-0.014841912603574736,-0.05523043543359771,0.0343593263532836,979.0,6.630727618824335,0.6109156517725884,8.978593658008453,-0.04057861863353957,0.111,0.9999999999996861,3808.68439652052,1.072917616466519,216,2026-10-07 22:01:58.781244,60.4,0.022199292876114333,0.47815696960250176,0.16099009806834874
0114,cdot_cos,R,Q-R,217,43,42734,0.07346202648756113,0.10395257277701755,0.09602386700474158,0.9969811068647131,979.0,6.719008565190504,0.612092117036919,9.01668387336937,-0.2018503503156033,0.037,0.9999999999996856,-137.08159226769,1.0778847409804864,217,2026-10-07 22:01:58.818244,60.4,0.44979344355899403,1.4086656271381564,2.3859715234099643
0114,cdot_cos,S,R-S,218,43,42771,-0.009127285522371683,-0.04329219755224536,-0.08258931200993282,0.00677044869322466,979.0,6.734968875232559,0.612100101904908,9.037553652994925,-0.03677720121907997,0.037,0.9999999999996771,20673.247112325484,1.0828518664114684,218,2026-10-07 22:01:58.855244,60.4,0.011237890310409768,0.44217650737370745,0.4313597308663485
0114,cdot_cos,T,S-T,219,43,43045,-0.07523609469744998,0.02353918323607134,-0.06610880917507829,0.01811076357104278,979.0,6.751729626736158,0.6121214609106824,9.058574350408765,-0.03871480070574619,0.274,0.9999999999996696,-90.71580892545099,1.0878193308040012,219,2026-10-07 22:01:59.129244,60.4,0.9511837385522637,0.193036071601415,0.061170625925545466
0114,cdot_cos,P,T-P,220,44,43565,0.045769360045730935,-0.003857464836042658,0.12100545474318092,0.9993307808076417,919.0,6.840752642470134,0.6132993560391788,9.096703559253354,-0.20701076534154,0.52,0.9999999999996689,-142.878564113448,1.0927871536869795,220,2026-10-07 22:01:59.649244,60.4,0.44353360695448457,0.1019277131546797,0.171198107180723
0114,cdot_cos,Q,P-Q,221,44,43679,-0.01895677076544043,-0.015366766861236923,-0.06472613081117137,0.019657206205340467,919.0,6.857734448417025,0.613322512433018,9.117698865930688,-0.03979594353390939,0.114,0.9999999999996598,7221.108043365024,1.0977543890421515,221,2026-10-07 22:01:59.763244,60.4,0.01496852395404338,0.4655732522295061,0.14896321006044663
0114,cdot_cos,R,Q-R,222,44,43717,0.07020360996309889,0.11917422938058995,0.08916038072853932,0.9954373881637665,919.0,6.9469033439784615,0.6144944760166468,9.155765744909303,-0.21034463344552262,0.038,0.9999999999996582,-145.52388170931974,1.102721514040875,222,2026-10-07 22:01:59.801243,60.4,0.4444996570962625,1.3891211649655841,2.346549883195697
0114,cdot_cos,S,R-S,223,44,43753,-0.005125246430695506,-0.04964073551440347,-0.0753288563937944,0.010458124679690668,919.0,6.9633076569544095,0.6145067817175552,9.176547427728904,-0.038992378203543905,0.036,0.9999999999996498,13924.623759040369,1.1076886370054229,223,2026-10-07 22:01:59.837244,60.4,0.012344972402939622,0.48756729407628546,0.45567536044299756
0114,cdot_cos,T,S-T,224,44,44024,-0.05699471021329044,0.005030828693409246,-0.05186946378259493,0.04176975351248947,919.0,6.982008189151954,0.614555929231015,9.19783519861704,-0.044560456069013814,0.271,0.999999999999642,-113.29317545292245,1.112656110527055,224,2026-10-07 22:02:00.108243,60.4,0.8825360993668432,0.20021800656605832,0.06900565386547837
0114,cdot_cos,P,T-P,225,45,44484,0.03679302712993256,-0.0033430095753605327,0.09378773734322299,0.9965460585666761,898.0,7.071825816513213,0.6157277996985756,9.235921355861365,-0.2154411052642017,0.46,0.9999999999996414,-145.8187179602666,1.1176238720414493,225,2026-10-07 22:02:00.568243,60.4,0.4524100068939359,0.11546484890339627,0.19525571165491082
0114,cdot_cos,Q,P-Q,226,45,44600,-0.04009043683839886,-0.03003484707010438,-0.07688346396833141,0.009529751154298539,898.0,7.088235850143079,0.6157389995805227,9.256591402684206,-0.0396590333355389,0.116,0.9999999999996314,15694.993282885749,1.1225911146357574,226,2026-10-07 22:02:00.684243,60.4,0.011886716657805474,0.46017385201801986,0.14146580715401375
0114,cdot_cos,R,Q-R,227,45,44634,0.06251471686823455,0.11074994961335646,0.10260515370663341,0.9979693189094209,898.0,7.178586150181394,0.6169111860728101,9.294708774097797,-0.21974722204125158,0.034,0.9999999999996313,-153.63441729675733,1.1275582329644962,227,2026-10-07 22:02:00.718244,60.4,0.4406412169118638,1.6120679823369615,2.6573617658327944
0114,cdot_cos,S,R-S,228,45,44671,0.012444799804914603,-0.09917273906796652,-0.05006991706331995,0.046343478266265274,898.0,7.197856472941992,0.6169655869105055,9.315980630988157,-0.04722627359931871,0.037,0.9999999999996223,3171.2921298751216,1.1325253568971247,228,2026-10-07 22:02:00.755244,60.4,0.0259114226275141,0.5013960860913556,0.5208195340702262
0114,cdot_cos,T,S-T,229,45,44943,-0.0466026609058813,0.0014955732038723418,-0.059047460710795904,0.027479079251656536,898.0,7.215689460552154,0.6169978421679084,9.336876166423181,-0.0438151535987065,0.272,0.9999999999996135,105.75392277924023,1.13749284627777,229,2026-10-07 22:02:01.027244,60.4,0.9251008529165146,0.19972153308010204,0.06556245444912479
0114,cdot_cos,P,T-P,230,46,45382,0.0476566610225726,0.0005673774126999804,0.0942593219284539,0.9966427260767836,939.0,7.306504986937568,0.618167014549369,9.374971613595669,-0.2245515489547542,0.439,0.9999999999996135,-154.58489973075865,1.1424606011227798,230,2026-10-07 22:02:01.466244,60.4,0.4471428853401172,0.12294739317949219,0.20686908060458672
0114,cdot_cos,Q,P-Q,231,46,45512,-0.019760141154835324,-0.017192965179375772,-0.06741680217740792,0.016758076903894175,939.0,7.323637271763748,0.6181866619776516,9.395628655526602,-0.04267554678672258,0.13,0.9999999999996033,9256.98771114509,1.147427870505408,231,2026-10-07 22:02:01.596244,60.4,0.014096456925149343,0.4160549272684457,0.13178680635523513
0114,cdot_cos,R,Q-R,232,46,45545,0.06497642894458101,0.12588772139582455,0.08473657009941633,0.9940481812592213,939.0,7.414679268027363,0.6193514058997119,9.433684429940874,-0.22818938429057317,0.033,0.9999999999996027,-159.27435549583393,1.1523949865211645,232,2026-10-07 22:02:01.629244,60.4,0.4435335230668231,1.6377991791491908,2.758848371624706
0114,cdot_cos,S,R-S,233,46,45572,-0.005017911681535829,-0.0275497658360573,-0.06999434062611684,0.014376802287199017,939.0,7.431732017587595,0.6193682414180084,9.454250760507199,-0.043054087596030174,0.027,0.9999999999995932,10996.709066779124,1.1573620937755076,233,2026-10-07 22:02:01.656243,60.4,0.013567701817316329,0.6108834850099399,0.6315833170456031
0114,cdot_cos,T,S-T,234,46,45842,-0.16751476561372428,-0.07333230920713267,-0.16249685393218843,5.4633428857456475e-05,939.0,7.4476669762179,0.619368305394281,9.474518099626447,-0.04032132539880054,0.27,0.9999999999995838,42715.24559995545,1.1623295942135408,234,2026-10-07 22:02:01.926244,60.4,0.9344710681074275,0.199957078551821,0.059018365297427676
0114,cdot_cos,P,T-P,235,47,46321,0.04364452718253542,0.0004987376449302074,0.2111592927962597,0.9999971093355697,939.0,7.539708840005578,0.6205386153201752,9.512681811847868,-0.23431054013359215,0.479,0.9999999999995836,-165.75883912680155,1.167297439119238,235,2026-10-07 22:02:02.405244,60.4,0.4369593902715914,0.11466616506641507,0.19215420414964066
0114,cdot_cos,Q,P-Q,236,47,46451,-0.01816043358594956,-0.01643132526072267,-0.061804960768484976,0.02336167282285079,939.0,7.557517162351526,0.6205659391012103,9.533320010710275,-0.04566557617346443,0.13,0.9999999999995726,6904.057813881627,1.1722647135786792,236,2026-10-07 22:02:02.535244,60.4,0.016066639046930956,0.42128527087567175,0.1369870949688289
0114,cdot_cos,R,Q-R,237,47,46487,0.058529004316431765,0.1196994131099634,0.07668943790238132,0.9903589941119808,939.0,7.649243010433253,0.6217235565303032,9.571317693213793,-0.23663526694630696,0.036,0.9999999999995728,-164.96787796507206,1.177231833545775,237,2026-10-07 22:02:02.571244,60.4,0.446185159266816,1.5929634392328753,2.547940224492414
0114,cdot_cos,S,R-S,238,47,46531,0.02009212109375136,-0.0812709251650062,-0.03843688322268041,0.0893507845387694,939.0,7.672210529976293,0.6218279295037792,9.593099271921558,-0.059692289564280604,0.044,0.9999999999995635,1695.2949742563158,1.1821989679735923,238,2026-10-07 22:02:02.615244,60.4,0.051599060709345605,0.4780472717683267,0.5219890805236388
0114,cdot_cos,T,S-T,239,47,46800,-0.03293439011507641,0.0018143489561539623,-0.053026511208827766,0.03906044176613076,939.0,7.6913111703488655,0.6218735534760552,9.613937043204695,-0.049776271964466066,0.269,0.9999999999995539,217.34226778460007,1.1871664814664205,239,2026-10-07 22:02:02.884243,60.4,0.8193763826607222,0.20356645684853475,0.0710060980393035
0114,cdot_cos,P,T-P,240,48,47260,0.022539158798491735,-0.00011805379986842818,0.05547354891356814,0.9661245551702001,898.0,7.7817292837608045,0.6230013325649707,9.65150045655957,-0.23703054099816018,0.46,0.9999999999995537,-166.03807507529285,1.1921343228904897,240,2026-10-07 22:02:03.344243,60.4,0.4538445240730276,0.11643098073323589,0.196561116112911
0114,cdot_cos,Q,P-Q,241,48,47385,-0.06068604954565552,-0.04632313565040039,-0.08322520834414726,0.00651700141977227,898.0,7.7984276726234425,0.6230089355023191,9.671705058719342,-0.04407743052148266,0.125,0.9999999999995421,25378.758450281366,1.1971015942170067,241,2026-10-07 22:02:03.469243,60.4,0.012555526618102551,0.4401916538353561,0.13358711090110376
0114,cdot_cos,R,Q-R,242,48,47417,0.05232632249018213,0.10309731732907568,0.11301237203583765,0.998915929054188,898.0,7.8917771972196435,0.6241735841542962,9.709867772352899,-0.24784366324517337,0.032,0.9999999999995419,-174.95940288752632,1.2020687064939184,242,2026-10-07 22:02:03.501244,60.4,0.4394829685826285,2.2522296687569607,2.917172643631283
0114,cdot_cos,S,R-S,243,48,47450,0.048710961396283364,-0.16750345659382115,-0.003615361093898768,0.44562395051652226,898.0,7.942570371423888,0.6246926807933953,9.7380007046613,-0.13602020051200198,0.033,0.9999999999995366,215.41935414423392,1.2070358217166453,243,2026-10-07 22:02:03.534244,60.4,0.4395036604905226,1.042640339404922,1.5391870970983166
0114,cdot_cos,T,S-T,244,48,47719,-0.014228805898937182,-0.0011616418471937315,-0.06293976729522055,0.02184786639909508,898.0,7.960591459620368,0.6247181234900788,9.758414591816864,-0.04846751073556838,0.269,0.9999999999995267,3441.1717777266067,1.2120033531790577,244,2026-10-07 22:02:03.803244,60.4,0.1642410379818685,0.20452451207076167,0.06699289292371897
0114,cdot_cos,P,T-P,245,49,48158,0.04567611797977883,-0.003243656947522444,0.059904923878716015,0.9738716198526066,960.0,8.052604558917958,0.6258515338070947,9.79613167494102,-0.24887849599620226,0.439,0.9999999999995266,-176.8212113934989,1.216971190227116,245,2026-10-07 22:02:04.242244,60.4,0.44697333747587903,0.12454648877295768,0.2095970371243494
0114,cdot_cos,Q,P-Q,246,49,48275,-0.02760510542255928,-0.020171886115427837,-0.07328122340233811,0.011818668076458063,960.0,8.069943276763025,0.6258652801493209,9.816319215346212,-0.04721761644540229,0.117,0.9999999999995144,14670.148337121878,1.2219384540592084,246,2026-10-07 22:02:04.359244,60.4,0.013969453287256543,0.4767651097696872,0.1481941696159612
0114,cdot_cos,R,Q-R,247,49,48313,0.0690944513013296,0.11104462410581559,0.09669955672388889,0.9971014827105814,960.0,8.164167594604065,0.6270242796170452,9.854465981370053,-0.25804819509070476,0.038,0.9999999999995143,-181.9073990251777,1.226905576780419,247,2026-10-07 22:02:04.397243,60.4,0.44174602598598395,1.46735833047409,2.479587311606299
0114,cdot_cos,S,R-S,248,49,48348,-0.00692501495964169,-0.047661964657921656,-0.0760194662609713,0.010035147471340636,960.0,8.181462509879056,0.6270359367691464,9.874577715102264,-0.04768964178744375,0.035,0.9999999999995037,18045.449821510836,1.2318726950368042,248,2026-10-07 22:02:04.432243,60.4,0.012143145495385458,0.4828412693572608,0.4941404364283284
0114,cdot_cos,T,S-T,249,49,48618,-0.13974099008736374,-0.05300423462679041,-0.13281597512772206,0.00032802754348349746,960.0,8.197966483459073,0.6270363178140662,9.894472115794395,-0.04560275285861464,0.27,0.9999999999994932,5476.753055017361,1.2368402428135445,249,2026-10-07 22:02:04.702244,60.4,0.9552689592509049,0.20645643156143278,0.06112582807413615
0114,cdot_cos,P,T-P,250,50,49118,0.05360104333143407,-0.007500321288648203,0.1933420334187978,0.9999915205697505,959.0,8.29294898292223,0.6281971975896179,9.932675850163127,-0.26390122469851074,0.5,0.9999999999994933,-188.0457188050801,1.2418082180000507,250,2026-10-07 22:02:05.202244,60.4,0.4372729645842399,0.11321093503940105,0.1899649989263139
0114,cdot_cos,Q,P-Q,251,50,49228,-0.009951779131233301,-0.00812216935584751,-0.06355282246266737,0.021070400848026468,959.0,8.311177418498474,0.6282216421459178,9.952908877026317,-0.050992576153174714,0.11,0.9999999999994809,8709.859403181015,1.2467754730429603,251,2026-10-07 22:02:05.312243,60.4,0.015370777125440676,0.5152186099647516,0.16571305069312814
0114,cdot_cos,R,Q-R,252,50,49261,0.08391376774454506,0.11584390302295815,0.09386554687577836,0.9965621972833305,959.0,8.406297077114475,0.6293770398341512,9.991057073009513,-0.2675645380661945,0.033,0.9999999999994804,-187.4436517561022,1.2517425854446569,252,2026-10-07 22:02:05.345243,60.4,0.4451163691653073,1.699005184168639,2.882413897454583
0114,cdot_cos,S,R-S,253,50,49288,-0.00563910734713233,-0.013883263624739706,-0.08955287509167739,0.004456195918872379,959.0,8.423311760653604,0.629382202960862,10.010943088043478,-0.0481818161087405,0.027,0.9999999999994693,42490.284326532776,1.256709687476019,253,2026-10-07 22:02:05.372243,60.4,0.010533164236478553,0.6243987884830086,0.6301734644121829
0114,cdot_cos,T,S-T,254,50,49557,-0.12145698606370951,0.029811657495785862,-0.11581787871657719,0.0009152479539001591,959.0,8.440014611692558,0.6293832634000642,10.030724938848127,-0.04739348155534639,0.269,0.999999999999458,743.4038196044769,1.2616772479853227,254,2026-10-07 22:02:05.641243,60.4,0.9835037599367388,0.2093161010990336,0.06209238304443689
0114,cdot_cos,P,T-P,255,51,50077,0.03078920712759656,-0.0040045453707486635,0.15224619319130608,0.9998985324526806,898.0,8.535923823044884,0.6305410347626503,10.06893929570697,-0.2736012374061482,0.52,0.9999999999994587,-195.3820617444915,1.2666452914521542,255,2026-10-07 22:02:06.161243,60.4,0.43745606804952863,0.10892353211871669,0.18444079106216643
0114,cdot_cos,Q,P-Q,256,51,50185,-0.048661075055701594,-0.030226960614592513,-0.07945028218329815,0.008172315982553618,898.0,8.553295085096023,0.6305504912304526,10.088814542643705,-0.04988535674024872,0.108,0.9999999999994452,23657.446452937707,1.2716125464349275,256,2026-10-07 22:02:06.269243,60.4,0.011281396955321318,0.5260781115854403,0.16084501899202605
0114,cdot_cos,R,Q-R,257,51,50217,0.07116283976080491,0.10673822253978163,0.1198239148165065,0.9992813121227025,898.0,8.64955669514734,0.6317060367040727,10.127024877910008,-0.27791217243697375,0.032,0.9999999999994447,-197.3326198772322,1.2765796555600615,257,2026-10-07 22:02:06.301243,60.4,0.44021168663485694,1.8363684640563538,3.008175314103634
0114,cdot_cos,S,R-S,258,51,50245,0.02434201464675813,-0.13847463750678574,-0.04682082511404678,0.05583089815571087,898.0,8.67082266679563,0.631770553815021,10.147744420802438,-0.06181089405458782,0.028,0.9999999999994336,3349.518836257191,1.2815467578650321,258,2026-10-07 22:02:06.329243,60.4,0.030313317604748376,0.7879034263665715,0.7594989874389414
0114,cdot_cos,T,S-T,259,51,50516,-0.017033934430095397,0.0011741268503925332,-0.041375949076853526,0.07592078360843547,898.0,8.693679287023867,0.6318582788451123,10.168803361609667,-0.0665968290388711,0.271,0.9999999999994229,-54.556093959788505,1.2865143376705017,259,2026-10-07 22:02:06.600243,60.4,0.9306571706695117,0.21622542852656537,0.08434177205991751
0114,cdot_cos,P,T-P,260,52,50975,0.03968550088934295,-0.004274533694444577,0.05671943531943835,0.9685028357634092,920.0,8.788016849057028,0.6329765983881912,10.206447814614242,-0.27637197074678055,0.459,0.9999999999994221,-187.58068121599487,1.2914822937087727,260,2026-10-07 22:02:07.059244,60.4,0.4681193947021403,0.12238606230527652,0.2055284575885856
0114,cdot_cos,Q,P-Q,261,52,51082,-0.030685895907849203,-0.019078146370772375,-0.07037139679719215,0.01405763317663514,920.0,8.806029692220111,0.6329928200789727,10.226319052672263,-0.053108725368187344,0.107,0.9999999999994089,13763.253682091836,1.2964495512050305,261,2026-10-07 22:02:07.166244,60.4,0.014937355680188322,0.5381388031954422,0.16834432862694437
0114,cdot_cos,R,Q-R,262,52,51114,0.0792169483077906,0.11145613368848868,0.1099028442156398,0.9986922411460158,920.0,8.903178552940853,0.63414447997109,10.264532238762836,-0.28792478152239864,0.032,0.9999999999994088,-203.89357809666205,1.301416659466676,262,2026-10-07 22:02:07.198244,60.4,0.44239747827248216,1.7911941277159449,3.0359018975231744
0114,cdot_cos,S,R-S,263,52,51146,-0.004392919216218649,-0.05936822319966129,-0.08360986752400924,0.006368287714200157,920.0,8.920666116393932,0.6341518187735268,10.284221390426698,-0.052163818070562584,0.032,0.9999999999993967,32125.263690323995,1.3063837687318651,263,2026-10-07 22:02:07.230243,60.4,0.010893093784156165,0.5578588013651631,0.5464863579087154
0114,cdot_cos,T,S-T,264,52,51415,-0.07284111271561006,0.007594770157915859,-0.06844819349939141,0.015761920422315844,920.0,8.938881516228223,0.6341699825122559,10.304049708383237,-0.05444258153130613,0.269,0.9999999999993848,-125.45674074762938,1.3113513599333468,264,2026-10-07 22:02:07.499244,60.4,0.9590076076211743,0.21535512003167365,0.06771524101967116
0114,cdot_cos,P,T-P,265,53,51895,0.03392401457030366,0.002354908749641226,0.10676512728591372,0.9984197862427276,958.0,9.036527170970972,0.6353197630820443,10.342263692458713,-0.2933463203937563,0.48,0.9999999999993848,-207.78202827554398,1.3163193873442105,265,2026-10-07 22:02:07.979244,60.4,0.44290122281675404,0.12297532327065579,0.20342844738072685
0114,cdot_cos,Q,P-Q,266,53,52024,-0.017987409506085805,-0.016936423315612983,-0.05191142407638946,0.04166843170146992,958.0,9.056937826568053,0.635367715014986,10.362541333977415,-0.06171680939864248,0.129,0.9999999999993707,4830.452012782458,1.3212866943912762,266,2026-10-07 22:02:08.108243,60.4,0.023444895364917964,0.4571503400925803,0.158222136411478
0114,cdot_cos,R,Q-R,267,53,52059,0.06210738148410403,0.1166358281016684,0.08009479099018983,0.9921372526465548,958.0,9.154471958714858,0.6365086687972245,10.400644895416201,-0.2964441737220463,0.035,0.9999999999993704,-205.72907332222647,1.3262538076148667,267,2026-10-07 22:02:08.143244,60.4,0.4530242272133846,1.6691760573887595,2.786689489908716
0114,cdot_cos,S,R-S,268,53,52086,0.0026480081378279165,-0.06446654630475596,-0.059459373346276115,0.026821958455519712,958.0,9.173780150585266,0.6365394926911805,10.420608156044336,-0.05905949845760799,0.027,0.9999999999993583,7701.320138300458,1.3312209050759858,268,2026-10-07 22:02:08.170244,60.4,0.0179634579434944,0.6785753182366697,0.7151182174225226
0114,cdot_cos,T,S-T,269,53,52374,-0.09408882364130279,0.006909915455900003,-0.09673683177913071,0.0028920177209049497,958.0,9.191115025899638,0.6365428161416803,10.440085983225018,-0.05312936124143364,0.288,0.9999999999993462,1784.3314400273773,1.3361885517703456,269,2026-10-07 22:02:08.458244,60.4,0.8943867874428375,0.20140561387183628,0.06019053928601409
0114,cdot_cos,P,T-P,270,54,52853,0.051595339421240824,0.002588598143609287,0.14568416306254361,0.9998491876595764,899.0,9.289789784175444,0.6376910401223953,10.478340718488974,-0.30392262604091513,0.479,0.9999999999993455,-218.41841749665383,1.3411566074516246,270,2026-10-07 22:02:08.937243,60.4,0.4381526684539557,0.1236389657082653,0.2060015830392602
0114,cdot_cos,Q,P-Q,271,54,52965,-0.005075178804936299,-0.005340486818029972,-0.05667051822617712,0.03158741922163173,899.0,9.309561155048156,0.6377272895109207,10.498324106376561,-0.061284366943117334,0.112,0.9999999999993314,6693.582125602804,1.3461238836013674,271,2026-10-07 22:02:09.049243,60.4,0.019077999342330895,0.5270969936912847,0.17653009707779038
0114,cdot_cos,R,Q-R,272,54,53007,0.07176949759708436,0.13404602088300577,0.07684467640202065,0.9904481101728437,899.0,9.407859510762291,0.6388631208336364,10.536408507454109,-0.3062077987512722,0.042,0.9999999999993312,-215.63363054873892,1.3510910108239231,272,2026-10-07 22:02:09.091244,60.4,0.44939178373265487,1.386110880029331,2.340437040812744
0114,cdot_cos,S,R-S,273,54,53043,-0.003585103744346761,-0.0373250904154532,-0.07535460134143111,0.010442044667189742,899.0,9.42599446897062,0.6388750873740695,10.555956851084591,-0.056842568328924314,0.036,0.999999999999318,20838.53991185594,1.3560581261207139,273,2026-10-07 22:02:09.127244,60.4,0.012438669295480572,0.5712447330219966,0.5037488391202377
0114,cdot_cos,T,S-T,274,54,53313,-0.046438034557369626,0.00020448155222582196,-0.04285293081302286,0.06989411236099174,899.0,9.448989131539875,0.6389551813012775,10.576598214947722,-0.07222534365885222,0.27,0.9999999999993053,-192.05919682254267,1.3610257506933812,274,2026-10-07 22:02:09.397243,60.4,0.8081698204713281,0.2266198784819077,0.0851654169231674
0114,cdot_cos,P,T-P,275,55,53752,0.05175629840606649,-0.0025035829729623434,0.09819433296343612,0.9973510453283984,939.0,9.54836920335085,0.6400972345401101,10.614819928910443,-0.3137386215143504,0.439,0.9999999999993054,-211.47287152949244,1.365993750103959,275,2026-10-07 22:02:09.836244,60.4,0.46310968480836934,0.13520638126598003,0.2263782956969817
0114,cdot_cos,Q,P-Q,276,55,53866,-0.009551207167234382,-0.009228181972527089,-0.06130750557330088,0.02405711344599438,939.0,9.567700334291406,0.6401247624928822,10.634559649727953,-0.0614068715498558,0.114,0.9999999999992909,9166.382696669261,1.3709610355694974,276,2026-10-07 22:02:09.950243,60.4,0.016421271448662556,0.520732092894332,0.1695713240399605
0114,cdot_cos,R,Q-R,277,55,53905,0.07212524356382746,0.11863823956975351,0.08167645073106185,0.9928485118195219,939.0,9.667096120530758,0.6412600483414868,10.67270268644111,-0.3172589019953555,0.039,0.9999999999992907,-225.3635335629178,1.3759281558639054,277,2026-10-07 22:02:09.989243,60.4,0.44644210447077937,1.5067742466541927,2.548609903573133
0114,cdot_cos,S,R-S,278,55,53941,-0.006793366845879373,-0.031219671370392055,-0.07891861040970684,0.008436762599011377,939.0,9.685228725530433,0.6412696887118986,10.692110867332325,-0.058229983362476784,0.036,0.9999999999992769,26869.187341038825,1.380895270516076,278,2026-10-07 22:02:10.025243,60.4,0.01169753668782767,0.5012383449944924,0.50368347221319
0114,cdot_cos,T,S-T,279,55,54212,-0.0896511654549323,0.00645122843869849,-0.08285779860905293,0.006662266119863834,939.0,9.703185281370361,0.6412773013514559,10.711451167898446,-0.05777162534585732,0.271,0.9999999999992633,60.21012989913059,1.3858629135716043,279,2026-10-07 22:02:10.296243,60.4,0.9920974264606616,0.2184358960997694,0.0662603536528731
0114,cdot_cos,P,T-P,280,56,54691,0.0316207500227817,-0.0038440650786717707,0.12127191547771402,0.9993414581291828,937.0,9.803620981216508,0.6424183911373774,10.749724355365073,-0.3246472546822455,0.479,0.9999999999992637,-233.87785310939552,1.3908310317372983,280,2026-10-07 22:02:10.775244,60.4,0.439530569547038,0.12580217588658812,0.2096778702424769
0114,cdot_cos,Q,P-Q,281,56,54784,-0.025307346503699604,-0.015255676698150516,-0.05692809652648131,0.03111496616248125,937.0,9.823703765869713,0.64245389367915,10.769498577976114,-0.06531359133503825,0.093,0.9999999999992485,7304.650608081809,1.3957982737905383,281,2026-10-07 22:02:10.868243,60.4,0.018862251788322338,0.6497147406503184,0.21594392100220441
0114,cdot_cos,R,Q-R,282,56,54826,0.08403642950405787,0.1072488219089771,0.10934377600775748,0.9986473878073968,937.0,9.924467922977467,0.6435925300595874,10.807765338518669,-0.32925703885566693,0.042,0.9999999999992482,-231.80661715659352,1.4007654003080758,282,2026-10-07 22:02:10.910244,60.4,0.44859561838048706,1.4123694231118264,2.3991465978036715
0114,cdot_cos,S,R-S,283,56,54861,-0.009449949991728017,-0.049825639298045794,-0.09348637949578589,0.003517162635297617,937.0,9.942342797411106,0.6435965373949472,10.826978493424281,-0.05875858191492546,0.035,0.9999999999992343,67500.82851972697,1.4057325117269177,283,2026-10-07 22:02:10.945244,60.4,0.010016148994341032,0.5083649194353714,0.5107106981039777
0114,cdot_cos,T,S-T,284,56,55130,-0.11303599720938068,0.023434342328416482,-0.10358604721765266,0.001914089596815806,937.0,9.960053467337943,0.6435987182350175,10.846127304959646,-0.05832292904418917,0.269,0.9999999999992197,199.76378674777652,1.4107001662502845,284,2026-10-07 22:02:11.214243,60.4,0.9925581614197156,0.22133045223292908,0.06583892166110329
0114,cdot_cos,P,T-P,285,57,55628,0.0359035787923855,-0.003078036327900767,0.1489395760017662,0.9998761047730416,900.0,10.061418580712422,0.6447371228228507,10.884424427166032,-0.3353214385316158,0.498,0.9999999999992203,-243.32167354899192,1.4156683601058087,285,2026-10-07 22:02:11.712243,60.4,0.4377669470118299,0.12124258271846272,0.20354440436642382
0114,cdot_cos,Q,P-Q,286,57,55736,-0.02779172800117142,-0.018880419369777756,-0.06369530679355692,0.020893618342684418,900.0,10.080811079725532,0.6447608937528763,10.90390547389008,-0.06453648304799665,0.108,0.9999999999992039,11391.43294739017,1.4206356405184333,286,2026-10-07 22:02:11.820243,60.4,0.015058042049913558,0.5601631112820374,0.17956017604731295
0114,cdot_cos,R,Q-R,287,57,55768,0.07647874922653403,0.11391530226292519,0.10427047722770544,0.998163282432111,900.0,10.182413812749342,0.6458956827078369,10.942176178523326,-0.33966582029957515,0.032,0.9999999999992044,-242.44978420777417,1.4256027425022813,287,2026-10-07 22:02:11.852243,60.4,0.44485803635024784,1.8910188168268782,3.1750854069940715
0114,cdot_cos,S,R-S,288,57,55795,0.012170930784088605,-0.09511166627006817,-0.06430781844244542,0.020150058766229703,900.0,10.201836284002452,0.645918573989707,10.96161109220056,-0.06531676422275727,0.027,0.9999999999991894,11984.870818254114,1.4305698336012376,288,2026-10-07 22:02:11.879244,60.4,0.014991296560451377,0.8101191364035512,0.7193507871522192
0114,cdot_cos,T,S-T,289,57,56069,-0.028607785202399084,0.002980681523310697,-0.04077871598648769,0.07849057539616155,900.0,10.226160246115134,0.6460077360827111,10.982140915494924,-0.08196643438121114,0.274,0.9999999999991762,-186.73485107265873,1.435537516563571,289,2026-10-07 22:02:12.153243,60.4,0.8161738414137522,0.22705001342823247,0.08877358435285343
0114,cdot_cos,P,T-P,290,58,56528,0.0316430376837637,-0.0040657660145083764,0.06025082288616278,0.9743980082660284,899.0,10.326259691361123,0.6471137657312583,11.019959889979754,-0.33888650595657943,0.459,0.9999999999991763,-232.29040190092022,1.4405056503313307,290,2026-10-07 22:02:12.612243,60.4,0.4685417194695391,0.12985317277120817,0.21808158005662215
0114,cdot_cos,Q,P-Q,291,58,56634,-0.03705305497619216,-0.022104366702303774,-0.06869609265995585,0.015531311704813611,899.0,10.345365458719103,0.6471313824531002,11.03924425709914,-0.06505626479792809,0.106,0.9999999999991596,15543.768222982098,1.445472930582438,291,2026-10-07 22:02:12.718244,60.4,0.014859298222268731,0.5739645113008122,0.18024308828282576
0114,cdot_cos,R,Q-R,292,58,56665,0.0818982087881224,0.11820613157669413,0.11895126376431456,0.999242444816431,899.0,10.447940167756895,0.6482639522567482,11.077549146771181,-0.3508139510666042,0.031,0.9999999999991597,-252.30911626662137,1.4504400290979997,292,2026-10-07 22:02:12.749243,60.4,0.4428358049751072,1.9492585473153279,3.308861581864279
0114,cdot_cos,S,R-S,293,58,56699,-0.006572175560923594,-0.018275824920160888,-0.088470384349046,0.004755856768706164,899.0,10.466219488652653,0.6482693387054989,11.096593528468139,-0.06287973777225694,0.034,0.9999999999991447,53455.296173933086,1.4554071360818297,293,2026-10-07 22:02:12.783243,60.4,0.010263867696591924,0.5404279677886434,0.5376270851693434
0114,cdot_cos,T,S-T,294,58,56968,-0.0878291169636484,0.0170611028246495,-0.0812569414027248,0.007333664554428575,899.0,10.484689269566523,0.6482776446866254,11.11565597224468,-0.0636458601254384,0.269,0.9999999999991296,-92.23743005291387,1.4603748234741034,294,2026-10-07 22:02:13.052243,60.4,0.9880348888843372,0.22600987659796662,0.0686608955905951
0114,cdot_cos,P,T-P,295,59,57427,0.06906360646798929,-0.0076260920600864255,0.15689272343163768,0.9999233604378789,940.0,10.58781280226236,0.6494092986604721,11.153981029165218,-0.3568921955891262,0.459,0.9999999999991301,-259.1307433551268,1.4653429875241986,295,2026-10-07 22:02:13.511244,60.4,0.4396983181434192,0.1327521738956866,0.22467000587328095
0114,cdot_cos,Q,P-Q,296,59,57537,-0.007879512356300147,-0.006581371624508761,-0.07694311882428943,0.009495801258842307,940.0,10.606555765202764,0.649420037416766,11.173055119114174,-0.0652403124059606,0.11,0.9999999999991125,27158.813851620973,1.470310282131952,296,2026-10-07 22:02:13.621243,60.4,0.011442458861433382,0.5543006783947843,0.170390572185494
0114,cdot_cos,R,Q-R,297,59,57568,0.08563712857353073,0.11919799053638869,0.09351664092983088,0.9964892375812369,940.0,10.709758951509212,0.6505461192624541,11.211319177182528,-0.36075922461840954,0.031,0.9999999999991129,-262.4311131060606,1.4752773794108451,297,2026-10-07 22:02:13.652243,60.4,0.44080252303004064,1.9602970474171775,3.3291350421434904
0114,cdot_cos,S,R-S,298,59,57597,-0.006836022601277353,-0.019932094401341936,-0.09247315117480809,0.0037383025343385896,940.0,10.728094182142629,0.6505503405770945,11.23025044852619,-0.064458135027106,0.029,0.9999999999990974,70191.66180029734,1.4802444726811788,298,2026-10-07 22:02:13.681243,60.4,0.010084063386610049,0.6307235713373832,0.6322493321867861
0114,cdot_cos,T,S-T,299,59,57867,-0.10270518479526049,0.033140707608231436,-0.09586916219398313,0.0030471480342282487,940.0,10.74634091864678,0.650553781418284,11.249136852275688,-0.06425619992058458,0.27,0.9999999999990817,58.68771483438013,1.4852121790362625,299,2026-10-07 22:02:13.951244,60.4,0.9968622773731145,0.2263136105652142,0.06758050557093122
0114,cdot_cos,P,T-P,300,60,58367,0.03088308919820817,-0.0018631975510722445,0.13358827399346865,0.9996869178307763,878.0,10.850303531847844,0.6516817802522028,11.287470063818175,-0.36763723257844827,0.5,0.9999999999990822,-268.95509422105175,1.490180478661787,300,2026-10-07 22:02:14.451244,60.4,0.4381392640184967,0.12351938411869945,0.20792522640212852
0114,cdot_cos,Q,P-Q,301,60,58478,-0.03604566055111757,-0.027036868488897487,-0.06692874974932574,0.017250782134488368,878.0,10.86986030276548,0.6517012303348625,11.306604617998634,-0.06955129845746595,0.111,0.9999999999990646,15325.689835693021,1.4951477801428903,301,2026-10-07 22:02:14.562243,60.4,0.01376201752931316,0.5571846175586467,0.1761871253841008
0114,cdot_cos,R,Q-R,302,60,58517,0.06256763561097381,0.1150335939865683,0.09861329616209139,0.9974170661206736,878.0,10.973998516945864,0.652824946531876,11.344898909840717,-0.37190239846197104,0.039,0.9999999999990653,-269.0635774478243,1.5001148966389113,302,2026-10-07 22:02:14.601243,60.4,0.44353211071987575,1.7130507472718393,2.670210620009856
0114,cdot_cos,S,R-S,303,60,58552,0.031239604746021835,-0.12137235992398365,-0.03132803086495198,0.1309923431308653,878.0,11.003478261052683,0.6529723998331464,11.366233025091862,-0.10590215141212968,0.035,0.9999999999990512,1803.9626428032223,1.5050820039128772,303,2026-10-07 22:02:14.636243,60.4,0.08112574719551943,0.7215183127846255,0.8422784030519738
0114,cdot_cos,T,S-T,304,60,58825,-0.02452722853444577,-0.0019449636089339318,-0.05576683328046761,0.0333004533292615,878.0,11.024504798840788,0.6530098802603406,11.385627217352878,-0.07570487660010294,0.273,0.9999999999990355,805.6811800879688,1.510049735813426,304,2026-10-07 22:02:14.909244,60.4,0.6710702177850636,0.22792341100464325,0.07702028493811247
0114,cdot_cos,P,T-P,305,61,59245,0.04297947840960663,0.002302935904151492,0.06750670694405239,0.9833311642155266,919.0,11.127924443461218,0.6541157854248284,11.423652149294712,-0.37389874279590896,0.42,0.9999999999990358,-269.63782770099124,1.5150178603538405,305,2026-10-07 22:02:15.329243,60.4,0.45044210375284216,0.1462837287307942,0.24623724909626316
0114,cdot_cos,Q,P-Q,306,61,59384,-0.02727567917373513,-0.027596540663631704,-0.07025515758334176,0.014155274976448992,919.0,11.147383130974655,0.6541316930559159,11.442642657626955,-0.07073880707059617,0.139,0.9999999999990177,19057.516110213535,1.5199852418301982,306,2026-10-07 22:02:15.468243,60.4,0.013765028214720363,0.4454075344378029,0.13999055765062302
0114,cdot_cos,R,Q-R,307,61,59418,0.048869223788275795,0.120427059060193,0.07614490296201093,0.9900398408863696,919.0,11.251747738034927,0.6552434381825651,11.48080393017178,-0.38092883875658723,0.034,0.999999999999018,-279.01182047084086,1.5249523444142612,307,2026-10-07 22:02:15.502244,60.4,0.44294965745547793,1.9352279252580598,3.0695472664786063
0114,cdot_cos,S,R-S,308,61,59453,0.012915820140320508,-0.07785567710168875,-0.03595340364795529,0.10233129080682024,919.0,11.278978629892203,0.6553582524688659,11.501502074257033,-0.09996043346883894,0.035,0.9999999999990036,2447.155439800358,1.529919450883211,308,2026-10-07 22:02:15.537244,60.4,0.060157077011739814,0.6542858873465665,0.7780254816364414
0114,cdot_cos,T,S-T,309,61,59723,-0.08246634188865745,-0.004039534349079626,-0.09538216202897797,0.0031378251544776654,919.0,11.297547750149187,0.6553617727786247,11.520220083371076,-0.06830264810725596,0.27,0.9999999999989871,8992.897651226971,1.5348871926277492,309,2026-10-07 22:02:15.807244,60.4,0.6290825465985044,0.23010906550231852,0.06877451947031187
0114,cdot_cos,P,T-P,310,62,60164,0.048255655194835115,-0.005018439254647666,0.13072199708349258,0.9996277634168853,959.0,11.403237525263455,0.6564823805060037,11.558576639053896,-0.3902924600254278,0.441,0.9999999999989871,-287.3349915864679,1.539855403921721,310,2026-10-07 22:02:16.248243,60.4,0.438236640347447,0.14208592301726294,0.23965935400060726
0114,cdot_cos,Q,P-Q,311,62,60274,-0.021847653825775398,-0.014603174724490442,-0.07010330902061052,0.014283836477334614,959.0,11.422867534250413,0.6564983804578081,11.577486945981729,-0.07288854410800039,0.11,0.999999999998969,19837.804500836424,1.5448227131908685,311,2026-10-07 22:02:16.358243,60.4,0.012846967423376468,0.5704401918458789,0.17845462715416457
0114,cdot_cos,R,Q-R,312,62,60312,0.07721438849571544,0.11344812646375839,0.09906204232149084,0.9974859607615479,959.0,11.528734367469548,0.6576148278597248,11.615805749073497,-0.3946423358972069,0.038,0.9999999999989694,-288.1943128147481,1.5497898259611453,312,2026-10-07 22:02:16.396243,60.4,0.4425044302773281,1.642680314019356,2.7859692952404016
0114,cdot_cos,S,R-S,313,62,60349,-0.0077425112263777894,-0.03126092167150782,-0.08495689972209322,0.0058735993260221305,959.0,11.547711238115884,0.657621396801314,11.63452213692775,-0.07112472447657571,0.037,0.9999999999989524,49249.579559479316,1.5547569371169958,313,2026-10-07 22:02:16.433243,60.4,0.01058205500252233,0.5055611039960968,0.5128883958469135
0114,cdot_cos,T,S-T,314,62,60622,-0.1805262564062348,-0.01895193699505466,-0.172783745179857,2.935148077171601e-05,959.0,11.56614588916526,0.6576214296273992,11.653093386097375,-0.0692045135122265,0.273,0.9999999999989357,58496.49611340637,1.5597247041979445,314,2026-10-07 22:02:16.706244,60.4,0.9726345059541113,0.22893062240022638,0.06752619432005626
0114,cdot_cos,P,T-P,315,63,61123,0.04841337743748097,-0.004978996785339218,0.22893963384371577,0.9999990123672036,939.0,11.672707357946408,0.6587389304633451,11.691468338975778,-0.4015680626442612,0.501,0.999999999998936,-297.4168237205116,1.5646931135006183,315,2026-10-07 22:02:17.207244,60.4,0.43706895736716384,0.12698582147022877,0.21269754247734182
0114,cdot_cos,Q,P-Q,316,63,61234,-0.01258392325869704,-0.010836712948965361,-0.06099730069617801,0.024500957931309915,939.0,11.693385682278429,0.6587662882706825,11.710498183713947,-0.07834823895113797,0.111,0.999999999998917,11814.536878142531,1.5696604298194456,316,2026-10-07 22:02:17.318244,60.4,0.016156618310166505,0.57286133177533,0.18629121019838732
0114,cdot_cos,R,Q-R,317,63,61272,0.07558334114364036,0.11660021921619917,0.08816726440233741,0.995156694526021,939.0,11.79988257360053,0.6598765866810774,11.748781143817894,-0.40506414215282477,0.038,0.9999999999989173,-294.2595433289735,1.5746275412961848,317,2026-10-07 22:02:17.356243,60.4,0.4463828926986973,1.6621617354348983,2.80254977163427
0114,cdot_cos,S,R-S,318,63,61307,0.005010067806762343,-0.07482350579766019,-0.07057327333687802,0.013889630785751395,939.0,11.81970997417148,0.6598920709852402,11.767573866956253,-0.07581800722135978,0.035,0.9999999999989004,21263.217996149593,1.579594645389225,318,2026-10-07 22:02:17.391244,60.4,0.013002873318819367,0.6615220285232631,0.5664971591700001
0114,cdot_cos,T,S-T,319,63,61582,-0.03346701312661748,0.0066909493468402135,-0.03847708093337982,0.08915342653498062,939.0,11.84618911559716,0.6599914520131461,11.787836806297877,-0.10143771719140031,0.275,0.9999999999988838,-257.7927649760487,1.5845624356956618,319,2026-10-07 22:02:17.666244,60.4,0.7768050071913163,0.24029508276136044,0.09628778700246697
0114,cdot_cos,P,T-P,320,64,62062,0.03146262224890616,0.0013712907414099307,0.06492963537552364,0.9805782709508317,898.0,11.951872269690229,0.6610835906947814,11.825835507198276,-0.406481231117194,0.48,0.9999999999988843,-279.30840565874786,1.5895308208212042,320,2026-10-07 22:02:18.146244,60.4,0.47215441424292237,0.1304069899858133,0.2201732376938955
0114,cdot_cos,Q,P-Q,321,64,62191,-0.045465572371665,-0.039142373860142354,-0.07692819462057116,0.00950428345050484,898.0,11.97137982598354,0.6610941679159572,11.84448880465018,-0.07542407234972616,0.129,0.9999999999988647,31299.067426569964,1.59449819409669,321,2026-10-07 22:02:18.275244,60.4,0.012409696090708447,0.4923896605904665,0.15122136661481328
0114,cdot_cos,R,Q-R,322,64,62224,0.05273809120967973,0.11546235394576349,0.09820366358134473,0.9973525338261887,898.0,12.07890880212257,0.6622032156949882,11.882825008907544,-0.4172888315232425,0.033,0.9999999999988651,-308.2507044666888,1.599465289792573,322,2026-10-07 22:02:18.308243,60.4,0.44076116847842434,2.9743960300605217,3.2584538223948316
0114,cdot_cos,S,R-S,323,64,62252,0.07413793757333004,-0.15440671510011592,0.021399846363650304,0.7845786121419425,898.0,12.167689963967534,0.6630744095536248,11.916919536589464,-0.34690622485283906,0.028,0.9999999999988618,80.78868551776333,1.6044323724325646,323,2026-10-07 22:02:18.336244,60.4,0.8163708545361984,1.9373304689462538,3.1707557801773207
0114,cdot_cos,T,S-T,324,64,62521,-0.0020442429357136463,-0.00012719363288062063,-0.07618218050904368,0.009937981025089892,898.0,12.18739930838356,0.6630854375716452,11.935551012169553,-0.0773563019654238,0.269,0.999999999998844,24442.281685654423,1.6094001706783165,324,2026-10-07 22:02:18.605243,60.4,0.03066834035031797,0.2305236229967649,0.07326893834953617
0114,cdot_cos,P,T-P,325,65,62960,0.04854225288127317,-0.004082483091050276,0.050586495816986814,0.9550161342111795,920.0,12.291711673139794,0.6641443739056093,11.973046301072943,-0.41085702166772375,0.439,0.9999999999988439,-314.9393490483369,1.6143684806248662,325,2026-10-07 22:02:19.044243,60.4,0.44409372141301184,0.1436329443645641,0.23761358714404165
0114,cdot_cos,Q,P-Q,326,65,63071,-0.007727650551263504,-0.007308072276063774,-0.05626990343253667,0.03233604980169661,920.0,12.313509033535647,0.6641801998110052,11.992099418913758,-0.08629147089925353,0.111,0.9999999999988238,9059.521236998191,1.6193358098539015,326,2026-10-07 22:02:19.155244,60.4,0.023254180704138462,0.585115862389186,0.1963726161788559
0114,cdot_cos,R,Q-R,327,65,63108,0.07523393228245076,0.121944484832408,0.08296158283371427,0.9933790904759501,920.0,12.421607394590193,0.6652798668539138,12.03036359399843,-0.429500252204708,0.037,0.9999999999988243,-312.10245275484334,1.6243029175471475,327,2026-10-07 22:02:19.192243,60.4,0.4497386419093083,1.726134456822405,2.9215773257985487
0114,cdot_cos,S,R-S,328,65,63145,-0.006096016054651081,-0.03373331322855871,-0.08132994833710185,0.007301632690186075,920.0,12.441242983340505,0.665287943110896,12.048890861084722,-0.07841883398971444,0.037,0.9999999999988055,43470.80819612198,1.629270026421761,328,2026-10-07 22:02:19.229243,60.4,0.011367421183801891,0.5214600407598586,0.5306915878462617
0114,cdot_cos,T,S-T,329,65,63418,-0.1870095723702401,-0.08669668609075382,-0.18091355631558903,1.796299472893684e-05,920.0,12.460195437606423,0.6652879629794509,12.067244446077543,-0.07580806858264147,0.273,0.9999999999987872,131401.87691455806,1.6342378539290006,329,2026-10-07 22:02:19.502244,60.4,0.9661471284355726,0.23463011906724568,0.06942290939896648
0114,cdot_cos,P,T-P,330,66,63880,0.06653121492935818,-0.003354715398740546,0.2535407872995983,0.9999997765020905,916.0,12.569351028351221,0.6663931356298346,12.105646445426169,-0.43813564537030747,0.462,0.9999999999987875,-327.84703517760596,1.6392062650526116,330,2026-10-07 22:02:19.964243,60.4,0.43736998164411084,0.1395672609459206,0.23626751243462835
0114,cdot_cos,Q,P-Q,331,66,63990,-0.012160977534344253,-0.011272481927157232,-0.07869219246370243,0.00855193981948466,916.0,12.589155586720453,0.6664025791430852,12.124146638302559,-0.07990130955395452,0.11,0.9999999999987658,37934.434601798624,1.6441735958864059,331,2026-10-07 22:02:20.074244,60.4,0.0112942658246403,0.5852050902122404,0.180041439720294
0114,cdot_cos,R,Q-R,332,66,64033,0.0716976756004732,0.12345889783353141,0.08385865313481745,0.9937260950424464,916.0,12.698096148197914,0.6674989945663458,12.162424918865367,-0.4410409703608354,0.043,0.9999999999987661,-329.382142156403,1.6491407210552957,332,2026-10-07 22:02:20.117243,60.4,0.44094517851400933,1.499148135676521,2.5335014297083855
0114,cdot_cos,S,R-S,333,66,64067,-0.004933307595711799,-0.032145821394749474,-0.076630983196185,0.009674775300858168,916.0,12.718082326388634,0.6675096602206884,12.180922676734117,-0.08132444612391386,0.034,0.9999999999987466,33726.624985411014,1.654107819371325,333,2026-10-07 22:02:20.151244,60.4,0.011995454747876971,0.5747687739720988,0.5878287703153011
0114,cdot_cos,T,S-T,334,66,64339,-0.14777937044107056,-0.05955340007774957,-0.14284606284535875,0.00017900779247772582,916.0,12.737180424828017,0.6675098575606293,12.199202234058394,-0.0778303013895547,0.272,0.999999999998728,17706.22164802166,1.65907566122745,334,2026-10-07 22:02:20.423244,60.4,0.956098439863143,0.2372517440754226,0.07021359720361206
0114,cdot_cos,P,T-P,335,67,64796,0.0401560691628017,0.002138643722789308,0.18793543960387227,0.9999882459454191,842.0,12.847147275165664,0.6686113354841877,12.237611399169399,-0.4496672780259998,0.457,0.9999999999987279,-337.5800537474193,1.6640440891285118,335,2026-10-07 22:02:20.880243,60.4,0.437396225875619,0.14196425980181804,0.24062768126399872
0114,cdot_cos,Q,P-Q,336,67,64927,-0.04217012124420083,-0.04152792700033086,-0.08232619040700254,0.0068781619161341154,842.0,12.866935758286878,0.6686189053435694,12.256002008892724,-0.08132694400100014,0.131,0.9999999999987059,48658.80797169169,1.6690114909889833,336,2026-10-07 22:02:21.011244,60.4,0.010790055077648068,0.4948117596842955,0.15105712306270444
0114,cdot_cos,R,Q-R,337,67,64959,0.04511292051427698,0.12367847327413994,0.08728304175847781,0.9948923530373265,842.0,12.97678795620295,0.6697129281820134,12.29431019665665,-0.45298955461453383,0.032,0.9999999999987059,-339.72107121832835,1.673978580285681,337,2026-10-07 22:02:21.043243,60.4,0.44022638080161525,3.293536306741951,3.4328811848772234
0114,cdot_cos,S,R-S,338,67,64991,0.08052117332009287,-0.14276597232366509,0.03540825280581589,0.8946041878146407,842.0,13.077722081918363,0.6706951048410655,12.330594561097143,-0.4189752380790583,0.032,0.9999999999987047,34.63156675735207,1.678945671383435,338,2026-10-07 22:02:21.075244,60.4,0.9220235154860547,1.8873481349789,3.1541914286066786
