record_id,input,event,transition,event_index,k,peak,value_cos,value_sin,value_return,x_input,rr,knowledge,decision,decision_norm,entropy,delta_t,cosine_similarity,delta_h_over_delta_d,frobenius_norm,matrix_size,timestamp,scale,P,zdot,zdot_back
0897,cdot_cos,Q,P-Q,1,0,1546,-0.0035541871515718357,-0.005947068740050779,-0.029001411231636257,0.3262851449633858,778.0,0.0016207044942063544,0.5004051760348626,0.5004051760348626,,,1.0,,0.004967141530112327,1,2026-10-07 21:01:17.630244,25.0,,,
0897,cdot_cos,R,Q-R,2,0,1564,0.025036264911980737,0.06295887087741352,0.028590452063552572,0.6714523785367623,778.0,0.007008705928138388,0.5012389733364168,0.7088589540823267,-8.384761480385166e-06,,1.0,,0.009934283060224654,2,2026-10-07 21:01:17.648243,25.0,,,
0897,cdot_cos,S,R-S,3,0,1588,-0.005965503784085498,-0.07018935739751994,-0.031001768696066235,0.3153889522320528,778.0,0.011297275501498375,0.501630615482065,0.8688497126469836,-1.415746218945116e-05,0.024,1.0,-0.014739733129362506,0.014901424593159275,3,2026-10-07 21:01:17.672243,25.0,0.6651453556813377,0.14401412990049628,0.17869039888999946
0897,cdot_cos,T,S-T,4,0,1857,-0.09938752434595524,-0.04149692118348397,-0.09342202056186974,0.08822116829185377,778.0,0.01392138416336221,0.5017401659940958,1.0034803319886536,-1.193391958199547e-05,0.269,1.0,0.020296962252730096,0.01986856617358953,4,2026-10-07 21:01:17.941243,25.0,0.8300069267871475,0.02771657865163204,0.009755050787597898
0897,cdot_cos,P,T-P,5,1,2196,0.026044339261146923,0.0019065132173361745,0.12543186360710218,0.9583454056318877,739.0,0.026208794816076412,0.5029301987904551,1.1245861124430887,-8.892033818707978e-05,0.339,1.0,-0.06469268648780918,0.02483570783151838,5,2026-10-07 21:01:18.280244,25.0,0.4207186794448173,0.027522881613995093,0.036246049123050746
0897,cdot_cos,Q,P-Q,6,1,2306,-0.004436786136482241,-0.006090126396787116,-0.030481125397629164,0.31820609821335166,739.0,0.03258189789765088,0.5033253269886748,1.2328902257698853,-6.756547939996122e-05,0.11,1.0,0.05404539307326929,0.02980284942259659,6,2026-10-07 21:01:18.390244,25.0,0.7290144847000944,0.08182869884873863,0.0579373007415861
0897,cdot_cos,R,Q-R,7,1,2339,0.026869906747573176,0.0744998405361542,0.031306692884055416,0.6862546980060601,739.0,0.04421110856279891,0.5041774598642242,1.3339281754896684,-0.00016103717512402617,0.033,1.0,-0.10969145588215767,0.03476999095937084,7,2026-10-07 21:01:18.423244,25.0,0.5596545753568052,0.2897773089537383,0.3524003231863039
0897,cdot_cos,S,R-S,8,1,2367,-0.0039661678006874534,-0.05837979185561233,-0.03083607454826063,0.3162840473307205,739.0,0.05170720028859761,0.5045701866964509,1.4271400024412402,-0.00012965362742890446,0.028,0.9999999999999998,0.07991190089351158,0.03973713250793408,8,2026-10-07 21:01:18.451244,25.0,0.7850115541371115,0.2348395738608297,0.26771756163566796
0897,cdot_cos,T,S-T,9,1,2615,-0.06767510563338763,-0.032437302288090115,-0.06370893783270018,0.1690010721301674,739.0,0.057362124699005375,0.5047800314067628,1.5143400942807683,-0.00011121779674304738,0.248,1.0,0.08785463621390265,0.044704274520428966,9,2026-10-07 21:01:18.699244,25.0,0.8472467409731209,0.04551886097498236,0.022802114558095814
0897,cdot_cos,P,T-P,10,2,2935,0.011949403092201978,6.132596418356312e-05,0.07962450872558961,0.879807945058291,739.0,0.07428455533218886,0.5058724396422831,1.599709114971289,-0.00040169580290498846,0.32,1.0,-0.2659060932688515,0.04967141685001175,10,2026-10-07 21:01:19.019244,25.0,0.48523144122231127,0.03707086181076372,0.0528825957286984
0897,cdot_cos,Q,P-Q,11,2,3046,-0.04531232238022271,-0.043473517363277044,-0.05726172547242469,0.1928583595081732,739.0,0.08108747625789416,0.5061118939330548,1.6785832545209847,-0.00019058465125947543,0.111,1.0,0.8816344487509237,0.05463855863218388,11,2026-10-07 21:01:19.130244,25.0,0.3303168944813218,0.1121102853013896,0.0612875759072549
0897,cdot_cos,R,Q-R,12,2,3082,0.021473786631760545,0.06533630086281403,0.06678610901198326,0.8415295149303733,739.0,0.09917303866909735,0.5071567086249815,1.7568423739795258,-0.000587798120715602,0.036,1.0,-0.3801759991751504,0.05960570017041785,12,2026-10-07 21:01:19.166244,25.0,0.5087670022184115,0.5001191349594677,0.5023767336445333
0897,cdot_cos,S,R-S,13,2,3106,0.0708647680666842,-0.1577449656824965,0.04939098143492365,0.7746531370593481,739.0,0.11709605397497583,0.5081184368177118,1.8320470784828498,-0.00069883649203579,0.024,0.9999999999999998,-0.11545712412251574,0.06457284170344327,13,2026-10-07 21:01:19.190243,25.0,0.8530898994108892,0.49444401839749197,0.7467923044116032
0897,cdot_cos,T,S-T,14,2,3374,-0.029747580249244288,-0.01941276613949401,-0.10061234831592848,0.0747919267753565,739.0,0.12290635155217697,0.5082112875726683,1.9015525187459879,-0.00025140932192738077,0.268,0.9999999999999999,4.818777944435671,0.06953998493623179,14,2026-10-07 21:01:19.458244,25.0,0.16869277226978863,0.04743514991674232,0.02168021484030276
0897,cdot_cos,P,T-P,15,3,3674,0.02455755723031327,0.0014484836756656191,0.05430513747955756,0.7953739862266175,759.0,0.1425212943303497,0.5091986716674899,1.972117976483411,-0.0009385787894981023,0.3,1.0000000000000002,-0.6959495004777206,0.07450712858075771,15,2026-10-07 21:01:19.758244,25.0,0.48087963107436876,0.05039864307143015,0.06538314259390915
0897,cdot_cos,Q,P-Q,16,3,3784,-0.009434063671635904,-0.013520075101676483,-0.033991620901949175,0.29947680204812877,759.0,0.15314553739503506,0.5095704265579073,2.038281708201683,-0.000566273208739862,0.11,1.0,1.0014813264197104,0.07947427076904708,16,2026-10-07 21:01:19.868243,25.0,0.5181625141990817,0.13475521359586287,0.09658402786077587
0897,cdot_cos,R,Q-R,17,3,3818,0.024203330838098502,0.06186947870790721,0.03363739450973441,0.6986620723628479,759.0,0.17216744132143955,0.5104376673725551,2.1045884201568956,-0.0011154513364494808,0.034,0.9999999999999997,-0.6332475575802126,0.08444141228624676,17,2026-10-07 21:01:19.902244,25.0,0.6111962685940862,0.4605460837545225,0.5594677625413084
0897,cdot_cos,S,R-S,18,3,3845,-0.001160264184516046,-0.09144106273347188,-0.02536359502261455,0.3465837502349172,759.0,0.1844626710903426,0.5108678546192688,2.167428748104727,-0.0007903764371099463,0.027,0.9999999999999999,0.7556590806048231,0.08940855379127373,18,2026-10-07 21:01:19.929244,25.0,0.662793876052489,0.4012159688663,0.45537888032974233
0897,cdot_cos,T,S-T,19,3,4113,-0.0567800088120531,-0.02534053052945933,-0.05561974462753705,0.19932896560837488,759.0,0.19383310364021974,0.5111152587923405,2.2278997640000386,-0.0006389413599817778,0.268,0.9999999999999998,0.6120958884724583,0.09437569842533595,19,2026-10-07 21:01:20.197243,25.0,0.7889839101058727,0.0646397535824441,0.034964300559243114
0897,cdot_cos,P,T-P,20,4,4433,0.03635174575685451,-0.0009118899311729954,0.0931317545689076,0.9111933730433044,760.0,0.21910957901053263,0.5122461473944947,2.2908344173472455,-0.0018811795187003205,0.32,0.9999999999999993,-1.098462002669656,0.09934284413567185,20,2026-10-07 21:01:20.517244,25.0,0.5166701211425879,0.057327171667030836,0.07898898553222776
0897,cdot_cos,Q,P-Q,21,4,4543,-0.004725251011548546,-0.0060826178908291425,-0.041076996768403054,0.26368070689481854,760.0,0.23052249350711948,0.5125733805274533,2.348906321044056,-0.0009248337722752306,0.11,0.9999999999999992,2.922521132804016,0.10430998683467148,21,2026-10-07 21:01:20.627244,25.0,0.3555557850017058,0.1525007121025389,0.10375376815078956
0897,cdot_cos,R,Q-R,22,4,4569,0.032525950942402564,0.06579976613689825,0.03725120195395111,0.7173349074776547,760.0,0.2526597356730912,0.5134635524174724,2.408357544562802,-0.0019275427255972814,0.026,0.9999999999999987,-1.1264217221018553,0.10927712816982735,22,2026-10-07 21:01:20.653243,25.0,0.5944012772331638,0.6511931646755972,0.851432390998912
0897,cdot_cos,S,R-S,23,4,4601,-0.010608108938800282,-0.059462401301873316,-0.04313405988120285,0.25381810729111065,760.0,0.26438453807025053,0.5137785061123676,2.4639951618905305,-0.001092415599147626,0.032,0.9999999999999988,2.6515870109970674,0.1142442697093258,23,2026-10-07 21:01:20.685244,25.0,0.4655771399001397,0.2806761044963678,0.36640007491122933
0897,cdot_cos,T,S-T,24,4,4853,-0.1611238909733024,-0.05678033791200634,-0.1505157820345021,0.02268966848168568,760.0,0.27062300636085873,0.5138066603709592,2.5171282951372964,-0.00060143840455074,0.252,0.9999999999999989,17.43882521358452,0.11921141581414792,24,2026-10-07 21:01:20.937243,25.0,0.4420473468111514,0.07228842559364272,0.024755826550032545
0897,cdot_cos,P,T-P,25,5,5193,0.02734597016705203,0.002074238431512419,0.18846986114035444,0.9910910191929034,758.0,0.30081790456944646,0.5150363582267461,2.5751817998196658,-0.0031088266866909297,0.34,0.9999999999999986,-2.039027937099037,0.1241785642393899,25,2026-10-07 21:01:21.277244,25.0,0.44640062937686087,0.06481984786054291,0.08880852414290508
0897,cdot_cos,Q,P-Q,26,5,5303,-0.004116209891737469,-0.005352470409663006,-0.0314621800587895,0.3129089631295586,758.0,0.3147005029060279,0.5154245634459781,2.6281599186288367,-0.00153951120596316,0.11,0.9999999999999982,4.042489392163291,0.12914570754437263,26,2026-10-07 21:01:21.387244,25.0,0.36082595000075424,0.16962534936630988,0.12620543942346776
0897,cdot_cos,R,Q-R,27,5,5339,0.02524917315143051,0.06817546865532552,0.029365383043167978,0.6757119202759786,758.0,0.33813548143003463,0.5162628099133059,2.682580263377574,-0.0027560907035315855,0.036,0.9999999999999977,-1.4513386515623854,0.13411284903113965,27,2026-10-07 21:01:21.423244,25.0,0.6431258194106395,0.5304030221763205,0.6509716256668534
0897,cdot_cos,S,R-S,28,5,5364,-0.0039376587883279066,-0.06558723090401578,-0.029186831939758417,0.32526697257896575,758.0,0.352889520502723,0.5166662836915455,2.733941008040351,-0.001836565604279381,0.025,0.9999999999999978,2.2790207166968934,0.13907999031173954,28,2026-10-07 21:01:21.448243,25.0,0.6061205265253954,0.4709748351646281,0.5901615629075341
0897,cdot_cos,T,S-T,29,5,5632,-0.09397416594518153,-0.04333677180309967,-0.09003650715685363,0.09527076816084701,758.0,0.36168422318826604,0.5167844571597048,2.782969484823152,-0.0011320434555533937,0.268,0.9999999999999976,5.961762481039138,0.14404713909821076,29,2026-10-07 21:01:21.716243,25.0,0.536684168254348,0.07665837408380453,0.03281605479680244
0897,cdot_cos,P,T-P,30,6,5951,0.032887596820020355,0.0005701422035784259,0.1268617627652019,0.9597492752618841,701.0,0.3939784090116422,0.5179748192703557,2.8370649444275653,-0.004395165200161869,0.319,0.9999999999999972,-2.741284954730357,0.14901429003245206,30,2026-10-07 21:01:22.035244,25.0,0.47595385216351876,0.07305309432955118,0.10123569223628895
0897,cdot_cos,Q,P-Q,31,6,6062,-0.0044789534245445,-0.006910305010358341,-0.03736655024456485,0.28208074270193045,701.0,0.4082920973705197,0.5183246414473004,2.8859094888850367,-0.0020681079900948278,0.111,0.9999999999999962,6.652114598312134,0.15398143415718327,31,2026-10-07 21:01:22.146244,25.0,0.32458407486330226,0.17647437412167963,0.12895214737727453
0897,cdot_cos,R,Q-R,32,6,6093,0.020699839973538074,0.06913906338193156,0.025178793398082575,0.6523692391611836,701.0,0.4331557200666551,0.5191336071833355,2.9366631753791643,-0.0037673824358266054,0.031,0.999999999999996,-2.100551815779414,0.15894857542410273,32,2026-10-07 21:01:22.177243,25.0,0.6369595686065788,0.6906878461726829,0.8020523450366258
0897,cdot_cos,S,R-S,33,6,6122,0.0034822773314455682,-0.07231957520409868,-0.017217562642092506,0.3940214915243666,701.0,0.45111474383322603,0.5196221623542434,2.9850020879473322,-0.002859453352816428,0.029,0.9999999999999957,1.8583962202730044,0.16391571674705804,33,2026-10-07 21:01:22.206244,25.0,0.7279532787880274,0.46072463471265357,0.6192766816058943
0897,cdot_cos,T,S-T,34,6,6371,-0.10102526968271937,-0.07834341194168232,-0.10450754701416494,0.06832624986246884,701.0,0.459877748879989,0.5197068776539938,3.030385827071094,-0.0014373986578619202,0.249,0.9999999999999951,16.786279445912292,0.16888286754568163,34,2026-10-07 21:01:22.455244,25.0,0.37182752069159486,0.08862274622901259,0.03519279135246174
0897,cdot_cos,P,T-P,35,7,6652,0.0458450630916891,0.0013591795366821675,0.14687033277440847,0.97519901793537,678.0,0.4952488714552743,0.5209158665644984,3.0817798562332657,-0.0060818220581450155,0.281,0.9999999999999944,-3.8415765106933053,0.17385002030248523,35,2026-10-07 21:01:22.736243,25.0,0.4659594924976485,0.08754216556447589,0.12587588105083733
0897,cdot_cos,Q,P-Q,36,7,6781,-0.002884514202687077,-0.007188639469360118,-0.04872957729437618,0.22824642616953772,678.0,0.5090764459272245,0.5211987969228897,3.127192817067211,-0.0024999055311949363,0.129,0.9999999999999936,12.660064290435038,0.17881716631203037,36,2026-10-07 21:01:22.865243,25.0,0.23863484191176498,0.15282924970312584,0.10719049978255933
0897,cdot_cos,R,Q-R,37,7,6801,0.015843441271383173,0.0864528150836956,0.01872795547407025,0.6149573685678421,678.0,0.5346788178786808,0.5219610193501317,3.1749649692031623,-0.004809775508950893,0.02,0.9999999999999928,-3.0304408466619344,0.18378430694958395,37,2026-10-07 21:01:22.885243,25.0,0.6186318935319615,1.1718808737810393,1.2801185975728158
0897,cdot_cos,S,R-S,38,7,6838,0.009485842020513125,-0.06753129320503218,-0.006357599250870047,0.4603484424236148,678.0,0.555951680878466,0.5225315416149653,3.221100790587184,-0.004175469567174356,0.037,0.9999999999999926,1.1117987515554415,0.18875144866136093,38,2026-10-07 21:01:22.922244,25.0,0.8590634617260914,0.4058455540264501,0.5749422432374395
0897,cdot_cos,T,S-T,39,7,7090,-0.10992113055374893,-0.12311970696889293,-0.11940697257426205,0.04810016005981104,678.0,0.5647113888766381,0.5225911500766967,3.2635807252976847,-0.0017666956888874416,0.252,0.9999999999999919,40.409931884209186,0.19371860263383173,39,2026-10-07 21:01:23.174243,25.0,0.25578078391427855,0.09298425269572666,0.034760746024492264
0897,cdot_cos,P,T-P,40,8,7330,0.0546740645237719,0.0013087610647652297,0.16459519507752082,0.9839344156323071,678.0,0.6028157442371123,0.5238103541075223,3.3128676084799995,-0.00800460988122835,0.24,0.9999999999999915,-5.116382520583181,0.19868575645599462,40,2026-10-07 21:01:23.414243,25.0,0.4587314943937205,0.10768588301187584,0.1587681473353091
0897,cdot_cos,Q,P-Q,41,8,7459,-0.002893314289841992,-0.007313158947360653,-0.057567378813613894,0.19167166977021705,678.0,0.6164006127223385,0.5240478240297972,3.3555433773823484,-0.0029799913302469127,0.129,0.9999999999999899,21.15896827205155,0.203652903887971,41,2026-10-07 21:01:23.543243,25.0,0.18523712587754057,0.15835226300722352,0.10530905802500945
0897,cdot_cos,R,Q-R,42,8,7479,0.015846522595795907,0.08080819540812524,0.0187398368856379,0.615027699608331,678.0,0.6436706280929759,0.5248097332120556,3.4011558546497733,-0.006181508097535813,0.02,0.9999999999999887,-4.201966378458996,0.20862004433991618,42,2026-10-07 21:01:23.563244,25.0,0.5957593924420236,1.2569469289334445,1.3635007685318723
0897,cdot_cos,S,R-S,43,8,7501,0.01144234911191156,-0.08251141417974389,-0.004404173483884347,0.47250169020177135,678.0,0.6666784898796763,0.5253949999350433,3.445245470810689,-0.005422830973682298,0.022,0.9999999999999886,1.296292944831223,0.21358718508931782,43,2026-10-07 21:01:23.585243,25.0,0.8694414766507572,0.7832716324623447,1.0458118993954697
0897,cdot_cos,T,S-T,44,8,7769,-0.0706690379235038,-0.07918149986156482,-0.08211138703541537,0.11377130753916033,678.0,0.6781345799213191,0.5255359130075565,3.4860109325923285,-0.0027710772155398688,0.268,0.9999999999999875,18.81836589642425,0.2185543437657199,44,2026-10-07 21:01:23.853244,25.0,0.3840664535904301,0.09520661891103999,0.042746604632995636
0897,cdot_cos,P,T-P,45,9,8008,0.05414160330968104,-0.0007483500610461445,0.12481064123318485,0.9577210014530457,681.0,0.7177092376159937,0.5267219485873446,3.533358315452835,-0.009933363242554234,0.239,0.9999999999999869,-6.038845839932095,0.2235215009394274,45,2026-10-07 21:01:24.092243,25.0,0.48624953757756845,0.11261994009687808,0.16558434181872222
0897,cdot_cos,Q,P-Q,46,9,8120,-0.004431966501341899,-0.007356661039746169,-0.05857356981102294,0.18780454595934096,681.0,0.7319669112876268,0.526954489599239,3.573979312796221,-0.0037165522334774263,0.112,0.999999999999985,26.73425628636988,0.22848864862053722,46,2026-10-07 21:01:24.204243,25.0,0.1877327108424269,0.19814460839835035,0.12730065778243846
0897,cdot_cos,R,Q-R,47,9,8149,0.02073742286855508,0.07415811947275745,0.02516938936989698,0.6523159202637562,681.0,0.7620936298972242,0.5277621006234351,3.618154755732079,-0.008092144094529002,0.029,0.9999999999999842,-5.4179446911424884,0.2334557896388531,47,2026-10-07 21:01:24.233243,25.0,0.5823282700850605,0.8893551912617302,1.0388523658481852
0897,cdot_cos,S,R-S,48,9,8178,0.0026981219577614114,-0.06423661986709646,-0.01803930091079367,0.38912718786897044,681.0,0.7835495123808072,0.528243797365961,3.659780466502895,-0.0059614537773659505,0.029,0.9999999999999832,4.423302316702334,0.23842293084689747,48,2026-10-07 21:01:24.262244,25.0,0.6994848140910596,0.5469447117162006,0.7398580166752754
0897,cdot_cos,T,S-T,49,9,8428,-0.10613949745074507,-0.09656484410775086,-0.10883761940850648,0.061748955827878385,681.0,0.7938164231767638,0.5283202309830606,3.6982417007713724,-0.002911127856279498,0.25,0.999999999999982,39.90817178146353,0.24339009198184594,49,2026-10-07 21:01:24.512243,25.0,0.3507028995112619,0.10536372052755816,0.04106764318382661
0897,cdot_cos,P,T-P,50,10,8689,0.04592367919479471,0.0004892496144681617,0.15206317664553978,0.9781525069732786,719.0,0.8362313726445862,0.5295308207255827,3.7443484384131653,-0.012424709847693042,0.261,0.9999999999999816,-7.858634231935099,0.24835725485962198,50,2026-10-07 21:01:24.773243,25.0,0.4650089975591126,0.1110957362850142,0.16250938493418554
0897,cdot_cos,Q,P-Q,51,10,8818,-0.008399017131080112,-0.014224765049878102,-0.054322696325874824,0.20455457863359858,719.0,0.8518083975175412,0.5297839399272515,3.7834141996777135,-0.004725067068041279,0.129,0.999999999999979,30.419038654072725,0.2533244056257724,51,2026-10-07 21:01:24.902244,25.0,0.19602150676114422,0.1855046967109542,0.12075213079810063
0897,cdot_cos,R,Q-R,52,10,8835,0.01979815568211759,0.06837634656845677,0.028197172813197703,0.6692797584180582,719.0,0.8840915843960124,0.5306120099695193,3.8262977353737186,-0.010068266205059882,0.017,0.9999999999999778,-6.4525932158894665,0.25829154528920284,52,2026-10-07 21:01:24.919244,25.0,0.5881948276857761,1.6473189040644365,1.899010992851247
0897,cdot_cos,S,R-S,53,10,8860,0.007238891695129214,-0.09108424440273813,-0.012559263986988376,0.42214317425719045,719.0,0.9078172402557321,0.5311342225380079,3.866715622696158,-0.007637153102195191,0.025,0.9999999999999768,4.655409022231736,0.26325868599253865,53,2026-10-07 21:01:24.944243,25.0,0.7273647995492678,0.7217803288027391,0.9490262343887856
0897,cdot_cos,T,S-T,54,10,9128,-0.07840016955253018,-0.05447657705385725,-0.0856390612476594,0.10517744769933567,719.0,0.9201806008361494,0.5312643218226166,3.9039796382698695,-0.004059713812944942,0.268,0.9999999999999751,27.497762958570995,0.26822585342220107,54,2026-10-07 21:01:25.212243,25.0,0.41428348309979457,0.10416202983214762,0.04613194246424371
0897,cdot_cos,P,T-P,55,11,9408,0.03916924501956478,0.0007031113563877523,0.11756941457209497,0.949752248711971,738.0,0.9636480882457632,0.532438923650437,3.94867287458288,-0.014704783398193423,0.28,0.999999999999974,-9.062704767795116,0.27319302306871535,55,2026-10-07 21:01:25.492243,25.0,0.4848484895783986,0.10993778217114335,0.15524102646290647
0897,cdot_cos,Q,P-Q,56,11,9519,-0.004294843755580905,-0.0058960830281850314,-0.04346408877514568,0.2522586424557244,738.0,0.9817457588519897,0.5327508435099458,3.986742410897418,-0.006321897228361227,0.111,0.9999999999999714,26.87512806344553,0.2781601736039518,56,2026-10-07 21:01:25.603244,25.0,0.2655351701639418,0.23244865198920459,0.16304207753357178
0897,cdot_cos,R,Q-R,57,11,9555,0.022371910955992853,0.06983948383641819,0.02666675471157376,0.6607568621635568,738.0,1.0152516889873666,0.5335677527697634,4.028348353479909,-0.012012181130953318,0.036,0.9999999999999698,-6.9656254158053,0.2831273152415214,57,2026-10-07 21:01:25.639244,25.0,0.6226881386994733,0.7775547184794085,0.9307202815382487
0897,cdot_cos,S,R-S,58,11,9579,-0.0006761163180162733,-0.06941510123333715,-0.023048027274009127,0.3598072844686392,738.0,1.037729698582507,0.5340125155734885,4.0669183157940445,-0.008283485077526272,0.024,0.999999999999968,8.383560905268295,0.28809445558218255,58,2026-10-07 21:01:25.663244,25.0,0.6375413466098805,0.7139466726039101,0.9365837331308524
0897,cdot_cos,T,S-T,59,11,9847,-0.10083375841735363,-0.05667471677112349,-0.10015764209933736,0.07558235900486227,738.0,1.0495211292723543,0.5341059371334006,4.10254571004259,-0.004417741183861009,0.268,0.9999999999999658,41.37956909842401,0.29306162796005536,59,2026-10-07 21:01:25.931243,25.0,0.41684122703870935,0.10701948483627442,0.04399787570838517
0897,cdot_cos,P,T-P,60,12,10146,0.020651535402102142,0.0013631593869244754,0.12148529381945578,0.9542237307989689,720.0,1.0950921424547502,0.5352851720134407,4.146301296991616,-0.017536945718140424,0.299,0.9999999999999651,-11.125183588389968,0.2980288054397966,60,2026-10-07 21:01:26.230243,25.0,0.47326988298256567,0.10310389125757626,0.1524114153257387
0897,cdot_cos,Q,P-Q,61,12,10257,-0.03990511003953245,-0.039754607260825255,-0.06055664544163459,0.18035914700241704,720.0,1.111177256244385,0.5355080169102969,4.1824515236964155,-0.006367536165038623,0.111,0.99999999999996,50.12189962918163,0.30299595751401204,61,2026-10-07 21:01:26.341243,25.0,0.17305982053846491,0.25613427242410525,0.14491093504175434
0897,cdot_cos,R,Q-R,62,12,10291,0.018265106078674022,0.058237682535515006,0.05817021611820647,0.8106524808463359,720.0,1.1519539509329015,0.5365094519284411,4.2244798656760345,-0.016553298739782295,0.034,0.9999999999999586,-10.171166765886907,0.30796309878995914,62,2026-10-07 21:01:26.375243,25.0,0.5404618190744594,0.9843319696620059,1.199314549662254
0897,cdot_cos,S,R-S,63,12,10318,0.006792877912350144,-0.09477107882957601,-0.011472228166323878,0.4287860627999247,720.0,1.1781118301814013,0.5370390318629727,4.262615386125281,-0.01093114065032736,0.027,0.9999999999999565,10.61625964818204,0.3129302393002557,63,2026-10-07 21:01:26.402244,25.0,0.5979040888223262,0.7589433305623425,0.9688103425370286
0897,cdot_cos,T,S-T,64,12,10567,-0.06625027221355884,-0.040422530342377055,-0.07304315012590898,0.13870606823842008,720.0,1.192936890783268,0.5372103254583452,4.297682822901243,-0.0063039028200280395,0.249,0.9999999999999537,27.013490027090953,0.31789741453537035,64,2026-10-07 21:01:26.651244,25.0,0.4799720198488478,0.12361041808000837,0.059538395991432624
0897,cdot_cos,P,T-P,65,13,10866,0.04049117951553149,-0.0014853763734384957,0.10674145172909033,0.9351443149402715,681.0,1.2396698183852455,0.5383649408598887,4.340437159545852,-0.020380506971487848,0.299,0.9999999999999523,-12.191595688609555,0.3228645988082505,65,2026-10-07 21:01:26.950243,25.0,0.5012303028321146,0.11026031963913947,0.15629741672902156
0897,cdot_cos,Q,P-Q,66,13,10977,-0.005516481885943406,-0.008937458431106448,-0.04600766140147489,0.24045410013312613,681.0,1.2588725619274734,0.5386617616552832,4.376109112898268,-0.008600627593452512,0.111,0.9999999999999477,39.68683987379907,0.32783175289255756,66,2026-10-07 21:01:27.061243,25.0,0.25419503195965026,0.24994629551110345,0.1729976895696212
0897,cdot_cos,R,Q-R,67,13,11004,0.02079665154095304,0.06870857891406894,0.026313133426896444,0.6587723855951358,681.0,1.2951578959887105,0.5394748209039578,4.41579200534492,-0.016608342687227926,0.027,0.9999999999999448,-9.848870309057114,0.3327988929334902,67,2026-10-07 21:01:27.088243,25.0,0.6174543374956688,1.1567292499689759,1.343901261527297
0897,cdot_cos,S,R-S,68,13,11035,0.005246096030955103,-0.07966751566439818,-0.015550555509997937,0.40401490494425035,681.0,1.3213359414257981,0.5399733539291999,4.452734632285521,-0.012273171157901781,0.031,0.9999999999999419,8.695856261922223,0.33776603395965926,68,2026-10-07 21:01:27.119244,25.0,0.7024202389003625,0.6276777996287435,0.8444530786157317
0897,cdot_cos,T,S-T,69,13,11286,-0.095762928711794,-0.08568206479178798,-0.1010090247427491,0.07410858254637406,681.0,1.3340739195656925,0.5400647913491569,4.486115370865388,-0.006060648916993745,0.251,0.9999999999999384,67.94288644441802,0.3427332150128538,69,2026-10-07 21:01:27.370244,25.0,0.35877532529373807,0.1257600388969043,0.05074891689200961
0897,cdot_cos,P,T-P,70,14,11547,0.06161882656026197,0.002049704543439099,0.15738175527205597,0.9808204325756804,659.0,1.384467480952044,0.5412747009979737,4.528629374317194,-0.02453725424675961,0.261,0.9999999999999369,-15.271062056438625,0.347700398967065,70,2026-10-07 21:01:27.631244,25.0,0.47095056162857557,0.12914221966791917,0.19307877925805186
0897,cdot_cos,Q,P-Q,71,14,11657,-0.0014724867132011917,-0.002621851068002026,-0.06309131327346316,0.17118064358499424,659.0,1.4014861582323463,0.5414858146619717,4.56264092324975,-0.008491493645495049,0.11,0.9999999999999313,76.00531532350348,0.3526675548858737,71,2026-10-07 21:01:27.741244,25.0,0.1511280812398337,0.23729364921683185,0.15471524800274786
0897,cdot_cos,R,Q-R,72,14,11693,0.014992299742778397,0.08919044164983049,0.01646478645597959,0.6014761796076891,659.0,1.436672083779747,0.542227484605787,4.600953137065158,-0.017880570267912003,0.036,0.9999999999999282,-12.659373216767552,0.3576346965249674,72,2026-10-07 21:01:27.777244,25.0,0.5914965698920922,0.9018183958873895,0.9773868207611318
0897,cdot_cos,S,R-S,73,14,11721,0.009641642719066295,-0.06146330936305231,-0.005350657023712102,0.46660817003089644,659.0,1.4664170827362384,0.5428027224073728,4.637708857016902,-0.015458399436912375,0.028,0.9999999999999247,4.210729587523634,0.3626018368497375,73,2026-10-07 21:01:27.805243,25.0,0.8549693776488256,0.7298313047611986,1.0623213913032605
0897,cdot_cos,T,S-T,74,14,11967,-0.13511331946039729,-0.18579939735606757,-0.14475496217946357,0.026112693591989335,659.0,1.4775426368463742,0.5428349109599767,4.669642835809876,-0.005863256387449296,0.246,0.9999999999999203,298.0917833597098,0.36756902263251534,74,2026-10-07 21:01:28.051244,25.0,0.1946626861204875,0.12980866380041978,0.0452258297159993
0897,cdot_cos,P,T-P,75,15,12206,0.07455332797869438,-0.00018832014989879665,0.20966664743909166,0.99473641891115,678.0,1.530282945326045,0.5440608322608625,4.711705419006435,-0.02838534751878614,0.239,0.9999999999999184,-18.37156358655541,0.3725362079513332,75,2026-10-07 21:01:28.290244,25.0,0.4522859168726707,0.1429279826140787,0.22067074677686488
0897,cdot_cos,Q,P-Q,76,15,12295,-0.003298102338902831,-0.0036072092268901474,-0.07785143031759721,0.12495892356448075,678.0,1.5458622125359038,0.544214795231795,4.744355024987041,-0.008574897946122017,0.089,0.9999999999999115,128.6702214999641,0.3775033613224316,76,2026-10-07 21:01:28.379244,25.0,0.09923306483327457,0.2976391841522802,0.17504794617819008
0897,cdot_cos,R,Q-R,77,15,12355,0.017221117893888076,0.09142802299606838,0.020519220232790906,0.6255049142821331,678.0,1.5832627201051508,0.5449853576478949,4.78222754911948,-0.020934140910371244,0.06,0.9999999999999086,-16.039249651965772,0.3824705085227197,77,2026-10-07 21:01:28.439244,25.0,0.5541128461919582,0.5611181642088514,0.6233417928207826
0897,cdot_cos,S,R-S,78,15,12378,0.008991692201211545,-0.0679886998904981,-0.008229425692676531,0.4487467457159785,678.0,1.613196392240966,0.5455380383850348,4.818061949298709,-0.017111822449895002,0.023,0.999999999999905,6.915961066884189,0.38743764756499793,78,2026-10-07 21:01:28.462244,25.0,0.7998164927526892,0.9075090127922645,1.3014640059050093
0897,cdot_cos,T,S-T,79,15,12645,-0.12480829022756794,-0.12195621725129065,-0.1337999824287795,0.03405929214987358,678.0,1.625008134693595,0.5455799815677282,4.84922139816762,-0.006840355428763215,0.267,0.9999999999998994,244.8900241119117,0.3924048442286472,79,2026-10-07 21:01:28.729243,25.0,0.2227737855164014,0.1233806852650636,0.044238735777636505
0897,cdot_cos,P,T-P,80,16,12884,0.04639141134351598,0.00012722225349574593,0.1711997015710839,0.9863462404269634,739.0,1.67908167817251,0.5467943597878623,4.890677927378909,-0.03193747240548543,0.239,0.9999999999998976,-20.66663956963268,0.3973720352927297,80,2026-10-07 21:01:28.968243,25.0,0.45574565983088994,0.15351473237647756,0.22624913589504195
0897,cdot_cos,Q,P-Q,81,16,12995,-0.009600349522968168,-0.014903816063325264,-0.05599176086648415,0.19784879912732867,739.0,1.6983881767695512,0.5470378823919206,4.9233414744333,-0.011655175643945324,0.111,0.99999999999989,83.28712170259108,0.4023391957352608,81,2026-10-07 21:01:29.079243,25.0,0.17548590070997627,0.2738388900525884,0.17393241979316446
0897,cdot_cos,R,Q-R,82,16,13029,0.022396896647721362,0.06530678132038968,0.03199724617068953,0.6899597541652035,739.0,1.7398739117641846,0.5478869438913974,4.9613278387563025,-0.025487092970798035,0.034,0.9999999999998864,-16.290830917875024,0.4073063370311219,82,2026-10-07 21:01:29.113244,25.0,0.5811753131482116,1.2143893624184665,1.2201686763127462
0897,cdot_cos,S,R-S,83,16,13056,0.05151261173754453,-0.1441219216574972,0.02911571508982317,0.6743427087900344,739.0,1.780966653414007,0.5487165179056449,4.999045942645497,-0.025843628187432157,0.027,0.9999999999998839,-0.4297810810256779,0.41227347689579075,83,2026-10-07 21:01:29.140243,25.0,0.9862988614106243,1.0197866973134948,1.521953394437865
0897,cdot_cos,T,S-T,84,16,13323,-0.050723854539372074,-0.027747135944434762,-0.1022364662769166,0.0720303374745586,739.0,1.7949423934191133,0.5488051134501095,5.029882502830246,-0.008926642370178338,0.267,0.9999999999998777,190.94623685067558,0.41724068178004675,84,2026-10-07 21:01:29.407244,25.0,0.15030152152011841,0.12114475669784275,0.05234359552474297
0897,cdot_cos,P,T-P,85,17,13623,0.02705159569582223,-0.0001437848372507812,0.0777754502351943,0.8748332289132129,780.0,1.845657953490655,0.549880888197278,5.069651900098866,-0.032965133964078824,0.3,0.9999999999998747,-22.345283394290377,0.42220789689682153,85,2026-10-07 21:01:29.707244,25.0,0.4822900496912522,0.12554742803954708,0.16905186690513885
0897,cdot_cos,Q,P-Q,86,17,13734,-0.006970255207559831,-0.008636821721400111,-0.03402185090338206,0.2993182769415286,780.0,1.8702708502428416,0.5502488506994804,5.102798582120405,-0.016326988109546747,0.111,0.9999999999998663,45.21696030151628,0.42717505993385557,86,2026-10-07 21:01:29.818244,25.0,0.3609348247360731,0.30453149607533725,0.22173780857825753
0897,cdot_cos,R,Q-R,87,17,13764,0.025774987792742402,0.05506647190845617,0.03274524300030223,0.6939456780875867,780.0,1.9132639456193798,0.5511017304256437,5.140335419485397,-0.029028238720444875,0.03,0.999999999999862,-14.892194316817262,0.4321422000014659,87,2026-10-07 21:01:29.848243,25.0,0.6456174734284932,1.1383219543687448,1.4331031792179427
0897,cdot_cos,S,R-S,88,17,13792,-0.0066434107892098465,-0.08598257257351379,-0.03241839858195225,0.3077924887029772,780.0,1.9385701675049662,0.5514799206027109,5.173340907281491,-0.017392059690197942,0.028,0.9999999999998562,30.768062567049387,0.43710933981863154,88,2026-10-07 21:01:29.876243,25.0,0.5121942989053662,0.6912314159713114,0.9037936387709429
0897,cdot_cos,T,S-T,89,17,14043,-0.12307123219745064,-0.03201752897585748,-0.11642782140824079,0.05162737005972665,780.0,1.9519729049137733,0.5515433502645402,5.203250248108476,-0.009303543626484887,0.251,0.9999999999998482,127.51945746590133,0.44207654704270566,89,2026-10-07 21:01:30.127244,25.0,0.4192023091459423,0.14021259132680436,0.05339736019445036
0897,cdot_cos,P,T-P,90,18,14403,0.027254354042038603,0.0017950520506834415,0.15032558623948925,0.9772046528048071,838.0,2.008956888351022,0.5527436305918881,5.2437872470421265,-0.04025082276814142,0.36,0.9999999999998456,-25.783376130169987,0.44704378920889043,90,2026-10-07 21:01:30.487243,25.0,0.4635408408711032,0.11559843423034498,0.15828884288124653
0897,cdot_cos,Q,P-Q,91,18,14513,-0.0030758348088379115,-0.003333615059595871,-0.030330188850876516,0.31902530498683096,838.0,2.0352037775596217,0.5531353504246579,5.276575767830568,-0.01892597175583888,0.11,0.9999999999998348,54.43903838495937,0.45201095420817233,91,2026-10-07 21:01:30.597243,25.0,0.3240846111283597,0.3232587481501045,0.23860808371454212
0897,cdot_cos,R,Q-R,92,18,14548,0.03229789195992592,0.0628247165388776,0.03537372676876383,0.7077214233280996,838.0,2.080073812944045,0.5540041002502996,5.313821501760005,-0.03291121555949354,0.035,0.9999999999998298,-16.098125594816675,0.4569780954671704,92,2026-10-07 21:01:30.632244,25.0,0.6538099687605442,0.9733012800005079,1.2820010109835243
0897,cdot_cos,S,R-S,93,18,14574,-0.011595332226581998,-0.054100233999758635,-0.043893224186507915,0.25024039274499077,838.0,2.1033348671596572,0.5543111993797432,5.345584469692012,-0.017341617213713963,0.026,0.9999999999998216,50.69893351371094,0.46194523410710425,93,2026-10-07 21:01:30.658243,25.0,0.40745818007350937,0.7107634907359209,0.8946559313697
0897,cdot_cos,T,S-T,94,18,14842,-0.12915085870642307,-0.006572587439664184,-0.11755552647984106,0.0502643233817548,838.0,2.117033514462313,0.5543728795918693,5.374845336061819,-0.010302584254076697,0.268,0.9999999999998124,114.12141296206786,0.4669124541720232,94,2026-10-07 21:01:30.926244,25.0,0.5049833417384566,0.13475994553275247,0.0511143556069242
0897,cdot_cos,P,T-P,95,19,15241,0.020853453223836416,-0.001297859755715643,0.15000431193025948,0.9770250499728347,800.0,2.1755661979652126,0.5555714688677517,5.415041769747866,-0.044751255313982316,0.399,0.9999999999998084,-28.74101391783782,0.47187972065872996,95,2026-10-07 21:01:31.325243,25.0,0.46311442760599547,0.1062173562991064,0.1466984548944853
0897,cdot_cos,Q,P-Q,96,19,15352,-0.012229053118037571,-0.012425411104486575,-0.033082506341873985,0.30426651355830925,800.0,2.201794964789,0.555944603880797,5.447123440483674,-0.020445769268644467,0.111,0.9999999999997947,65.13858307470788,0.4768468881322519,96,2026-10-07 21:01:31.436243,25.0,0.30459317005017644,0.33540689219056974,0.23629519661069617
0897,cdot_cos,R,Q-R,97,19,15373,0.032165884506529824,0.053946162935851874,0.04439493762456739,0.7521055161050769,800.0,2.250026528031519,0.5568666713860333,5.4845017081131,-0.038220753806893895,0.021,0.9999999999997881,-19.27731368615448,0.4818140238439122,97,2026-10-07 21:01:31.457243,25.0,0.6280967481778088,1.6824378392379167,2.296741106786629
0897,cdot_cos,S,R-S,98,19,15395,-0.01824953149439982,-0.08262471855395488,-0.05041541600092964,0.2209075548869282,800.0,2.2724573540369923,0.5571374258354966,5.515380173733743,-0.018055026933500626,0.022,0.999999999999778,74.47976169316371,0.4867811602824348,98,2026-10-07 21:01:31.479244,25.0,0.32729161155887,1.0164020227749557,1.0195830002487867
0897,cdot_cos,T,S-T,99,19,15661,-0.06957195285540116,-0.009919349111279797,-0.05132242136100134,0.21702970334372493,800.0,2.294748217033617,0.5574033943533407,5.546094796657157,-0.018117558127965543,0.266,0.9999999999997683,-0.23510750434594394,0.49174838797832987,99,2026-10-07 21:01:31.745243,25.0,0.9965545352445554,0.14886776686791325,0.08380023682941634
0897,cdot_cos,P,T-P,100,20,16041,0.024420466714810813,0.0018563620751365722,0.09399241957021197,0.9129191630580051,740.0,2.351655006010722,0.5585218088027682,5.585219211745861,-0.04702999059200914,0.38,0.9999999999997625,-25.851268712455617,0.49671566093856906,100,2026-10-07 21:01:32.125243,25.0,0.5407674974913558,0.1114550190081875,0.1497547078344871
0897,cdot_cos,Q,P-Q,101,20,16151,-0.005379515537337634,-0.007308206782764588,-0.029799982252148447,0.32191184730043615,740.0,2.3794540314798396,0.5589160410588978,5.617037931098939,-0.023388636020380146,0.11,0.9999999999997474,59.96808785697065,0.5016828306703521,101,2026-10-07 21:01:32.235244,25.0,0.3639258337574564,0.3316944528833546,0.2527184133556126
0897,cdot_cos,R,Q-R,102,20,16184,0.0222725405695511,0.06193320689570947,0.027652056106888735,0.6662563676990876,740.0,2.42462778564506,0.559731741468595,5.653014751971731,-0.03857788503568465,0.033,0.9999999999997389,-18.621112401971327,0.506649970350046,102,2026-10-07 21:01:32.268243,25.0,0.6745365351407107,1.1322786984033302,1.3689016413703219
0897,cdot_cos,S,R-S,103,20,16212,-0.0022925954380684397,-0.07650597368317179,-0.02456513600761954,0.35111803018698323,740.0,2.4541844255744594,0.5601614872549122,5.685019462473338,-0.02562832311824196,0.028,0.9999999999997279,30.133074784547986,0.5116171084288521,103,2026-10-07 21:01:32.296243,25.0,0.6033346679754548,0.8273665817268612,1.0555942831928273
0897,cdot_cos,T,S-T,104,20,16480,-0.0917352798042242,-0.05258884920129478,-0.08944268436615577,0.0965580819966194,740.0,2.4709603142217644,0.5602796523275027,5.713755033366598,-0.014683530224216264,0.268,0.9999999999997142,92.62291008748927,0.5165843457836878,104,2026-10-07 21:01:32.564243,25.0,0.47455448021798385,0.1451794677135547,0.06259659943024276
0897,cdot_cos,P,T-P,105,21,16781,0.04264859149869972,0.0016153879450476751,0.13438387130292392,0.9664176929449511,680.0,2.5320006202689247,0.5614619486427658,5.753274303821475,-0.054239533463221024,0.301,0.9999999999997085,-33.456928460613156,0.5215515987097588,105,2026-10-07 21:01:32.865243,25.0,0.4822543443816036,0.141992219432692,0.2027917144423929
0897,cdot_cos,Q,P-Q,106,21,16892,-0.002875484914715249,-0.004764100013236975,-0.045524076413414966,0.24266902296890722,680.0,2.556439630320245,0.5617587160903541,5.783661427749851,-0.022083907718242302,0.111,0.9999999999996911,108.3529410192734,0.5265187717734698,106,2026-10-07 21:01:32.976243,25.0,0.23315170678365527,0.3116760539353701,0.2201712617236065
0897,cdot_cos,R,Q-R,107,21,16926,0.01959632356977535,0.08809578318677198,0.0224718084844906,0.6368678158864204,680.0,2.601192704242577,0.562537350769537,5.818933094372797,-0.040974165084951344,0.034,0.999999999999681,-24.260744957483414,0.5314859117067404,107,2026-10-07 21:01:33.010243,25.0,0.6306347117662157,1.1579342569768034,1.316266880068584
0897,cdot_cos,S,R-S,108,21,16955,0.007254789658572435,-0.0657511086424335,-0.012341533911202917,0.42347155162968114,680.0,2.6351791597946677,0.5630549168805277,5.851439837838064,-0.031583371562547764,0.029,0.9999999999996696,18.144142985771307,0.5364530498777227,108,2026-10-07 21:01:33.039244,25.0,0.7427962693403033,0.8402793022843252,1.1719467431755444
0897,cdot_cos,T,S-T,109,21,17221,-0.11076640157999786,-0.11693010017827546,-0.11802119123857029,0.04971147860355193,680.0,2.6499289037750677,0.5631156651713571,5.879101645491742,-0.01383397457441763,0.266,0.9999999999996538,292.17936415618993,0.5414202956560737,109,2026-10-07 21:01:33.305243,25.0,0.27719627093951166,0.147030662666996,0.05545016533984991
0897,cdot_cos,P,T-P,110,22,17461,0.05809516507490243,0.00021371992385406876,0.1688615666549003,0.9855362325567815,659.0,2.7133994723335095,0.5643196144242283,5.918635645110107,-0.06037323477460027,0.24,0.9999999999996481,-38.655499880245685,0.5463875310848376,110,2026-10-07 21:01:33.545243,25.0,0.4626154433146403,0.1762386849840823,0.2644607023268408
0897,cdot_cos,Q,P-Q,111,22,17590,-0.005756714225257058,-0.012731384528121637,-0.06385187930015948,0.1684997991327393,659.0,2.7345234725674272,0.56452538139871,5.947645637158764,-0.020407883588501582,0.129,0.9999999999996282,194.22626632268617,0.5513547158492197,111,2026-10-07 21:01:33.674243,25.0,0.14109398570445536,0.2538540809495386,0.16375193979781158
0897,cdot_cos,R,Q-R,112,22,17611,0.012180886007986998,0.08687698652560268,0.017937600233244057,0.6102682674058395,659.0,2.7788938252184905,0.5652704364665283,5.98226172178534,-0.0433644366277942,0.021,0.9999999999996172,-30.81188764545268,0.5563218495340535,112,2026-10-07 21:01:33.695244,25.0,0.5889661120894728,2.004323707456914,2.112873935764917
0897,cdot_cos,S,R-S,113,22,17634,0.01531071040772312,-0.07745025841106332,0.0031298243997361225,0.5195514284172237,659.0,2.8187050682806176,0.5659045063662329,6.015649147388232,-0.039489393173119745,0.023,0.9999999999996063,6.111382130707882,0.5612889846409382,113,2026-10-07 21:01:33.718244,25.0,0.9065322108837284,1.2040322369045007,1.7309236113968318
0897,cdot_cos,T,S-T,114,22,17900,-0.0954580665154162,-0.13149400996869504,-0.11076877692313933,0.0590103425181136,659.0,2.8342793081160975,0.5659765100485851,6.042977217357213,-0.015600582726475489,0.266,0.9999999999995896,331.77206590361266,0.566256240310746,114,2026-10-07 21:01:33.984244,25.0,0.2162593702925584,0.1507473250718929,0.058549773817593596
0897,cdot_cos,P,T-P,115,23,18120,0.06089837264073686,-0.001189691588371571,0.15635643915615305,0.9803322436864802,698.0,2.8989026452188646,0.567172289544857,6.082247038705486,-0.06560843494462705,0.22,0.9999999999995836,-41.82029577698978,0.5712234745159797,115,2026-10-07 21:01:34.204243,25.0,0.4666308460589636,0.19346637945167988,0.29374244137621425
0897,cdot_cos,Q,P-Q,116,23,18230,-0.009073721798539028,-0.016388726585937867,-0.06997209443927589,0.1481352123076069,698.0,2.9194045150748367,0.5673529126965641,6.110579802178078,-0.02112135212652431,0.11,0.9999999999995629,246.29778850414337,0.5761906537269166,116,2026-10-07 21:01:34.314244,25.0,0.12169210891936902,0.3124667437461163,0.18638063505429112
0897,cdot_cos,R,Q-R,117,23,18269,0.01820232175754368,0.07837392676972492,0.027276043556082707,0.6641628685855309,698.0,2.9676453288430102,0.5681625142217703,6.145619198579937,-0.05026315717400773,0.039,0.9999999999995519,-35.99524474717241,0.5811577965239193,117,2026-10-07 21:01:34.353244,25.0,0.5600189753057052,1.2073335082979448,1.2369439427736815
0897,cdot_cos,S,R-S,118,23,18292,0.037227018196357084,-0.11882077198094583,0.019024696438813403,0.616712457529213,698.0,3.0135765287220764,0.5689139487720883,6.179989317561201,-0.04860184613017102,0.023,0.9999999999995434,2.2108526193447458,0.5861249313894787,118,2026-10-07 21:01:34.376243,25.0,0.9663955501607159,1.3602342593402437,1.9970086903941797
0897,cdot_cos,T,S-T,119,23,18559,-0.06507382316522481,-0.05644160565926234,-0.10230084136158189,0.0719228376062013,698.0,3.0302161047726615,0.5690015627106825,6.207076216510873,-0.017790391259606353,0.267,0.9999999999995246,351.6729799501086,0.5910921986587139,119,2026-10-07 21:01:34.643244,25.0,0.17694514177260084,0.15201376021391777,0.06232050955275311
0897,cdot_cos,P,T-P,120,24,18818,0.05489679674246281,-0.005618674499078333,0.11997061990768762,0.9525409334290544,720.0,3.0947518766763085,0.5701615060198455,6.245808460152975,-0.06987986150665745,0.259,0.999999999999518,-44.9069103942994,0.5960594632951199,120,2026-10-07 21:01:34.902244,25.0,0.474537507515436,0.16921840428146068,0.2491728644928456
0897,cdot_cos,Q,P-Q,121,24,18928,-0.0037271670877577307,-0.005294771617018727,-0.05862396383022054,0.18761245150807276,720.0,3.117871238190458,0.5703898780779184,6.274290870206035,-0.025388771118465846,0.11,0.9999999999994955,194.81845004867887,0.6010266461578617,121,2026-10-07 21:01:35.012243,25.0,0.17335869787561628,0.34230849703724897,0.2101760137649965
0897,cdot_cos,R,Q-R,122,24,18953,0.03343538067741672,0.07750662860066278,0.03716254776517445,0.7168852907281903,720.0,3.1700597460245032,0.5712622330055496,6.309799855090021,-0.05797682191368016,0.025,0.9999999999994854,-37.35641281204858,0.605993781298906,122,2026-10-07 21:01:35.037244,25.0,0.5700178702079599,1.5967727464967751,2.0875403133618065
0897,cdot_cos,S,R-S,123,24,18985,-0.007049393858414654,-0.06310716674138792,-0.040484774535831373,0.26656529281873514,720.0,3.197709875515297,0.5715864952262785,6.339203150980075,-0.03110098471505436,0.032,0.9999999999994686,82.88303564384533,0.6109609209641278,123,2026-10-07 21:01:35.069243,25.0,0.421410665540383,0.6501655862922936,0.8640665465872999
0897,cdot_cos,T,S-T,124,24,19238,-0.16733208765212695,-0.09485460606956253,-0.1602826937937123,0.01786180583406634,720.0,3.21167034354721,0.5716082209499709,6.365162030790171,-0.015805205540967836,0.253,0.999999999999447,704.0400306402196,0.6159281898265818,124,2026-10-07 21:01:35.322243,25.0,0.3799299277064155,0.16200559620143362,0.055179715541158886
0897,cdot_cos,P,T-P,125,25,19538,0.02543938223228056,0.0018456289115458312,0.19277146988440752,0.99199210125503,778.0,3.2796847071932222,0.5728143679896412,6.404261715022738,-0.07793114220633805,0.3,0.9999999999994414,-51.507763665654544,0.6208954883226141,125,2026-10-07 21:01:35.622243,25.0,0.45059329973490575,0.1652729404451899,0.2267145454867074
0897,cdot_cos,Q,P-Q,126,25,19667,-0.004007183908210045,-0.006766301569914296,-0.029446566140490606,0.323843506614049,778.0,3.310834107814324,0.5732079373760427,6.434245675520328,-0.03622783134308261,0.129,0.9999999999994188,105.96177524010265,0.6258626859182148,126,2026-10-07 21:01:35.751244,25.0,0.31627596468913505,0.3175691314733571,0.24146822186900557
0897,cdot_cos,R,Q-R,127,25,19687,0.024859510057571206,0.06485896558180669,0.028866693965781252,0.6729740729944809,778.0,3.3616175431133484,0.5740255107264494,6.468941569241311,-0.059767734502112105,0.02,0.9999999999994057,-28.79240516746376,0.6308298173203336,127,2026-10-07 21:01:35.771244,25.0,0.6744509183574503,2.046692843573661,2.53917176495122
0897,cdot_cos,S,R-S,128,25,19710,-0.005643303332600002,-0.0682657430075589,-0.030502813390171208,0.3180884790303664,778.0,3.3927018215572704,0.5744118050944944,6.498730317209998,-0.037023700160145175,0.023,0.999999999999388,58.87746812636577,0.635796951058715,128,2026-10-07 21:01:35.794244,25.0,0.5410139917816396,1.0951285039156828,1.3514903671270448
0897,cdot_cos,T,S-T,129,25,19976,-0.09030475726786709,-0.03201302545867406,-0.08466145393526708,0.107499934538019,778.0,3.41199345429347,0.5745423351125449,6.525549122631442,-0.023147312699428074,0.266,0.9999999999993661,106.3080176342739,0.6407642385246474,129,2026-10-07 21:01:36.060243,25.0,0.5490962278465222,0.16118905048138824,0.07252493509849392
0897,cdot_cos,P,T-P,130,26,20316,0.02007163663558687,0.0011015455633241887,0.11037639390345397,0.9404425879845717,799.0,3.478454396413369,0.5756838070022907,6.563808034373544,-0.08069229255543366,0.34,0.9999999999993583,-50.412962748317405,0.6457315754894375,130,2026-10-07 21:01:36.400243,25.0,0.49010238001986894,0.1461076548023952,0.195473359176174
0897,cdot_cos,Q,P-Q,131,26,20426,-0.005806609542249483,-0.006911244432070601,-0.025878246177836354,0.34367578840599755,799.0,3.5113466595590985,0.5761007463471658,6.5937773524932055,-0.04050085233050264,0.11,0.9999999999993326,96.39637208374528,0.650698764874802,131,2026-10-07 21:01:36.510243,25.0,0.3707006721254794,0.38950647777815045,0.29902057405208704
0897,cdot_cos,R,Q-R,132,26,20457,0.02634696099281417,0.052881577084407626,0.03215357053506365,0.6907951372278951,799.0,3.564145821524562,0.5769384744424054,6.62852140095453,-0.06577505596791056,0.031,0.9999999999993187,-30.169936738457178,0.655665902637008,132,2026-10-07 21:01:36.541243,25.0,0.6809597329585136,1.3278589613130587,1.7031987730794687
0897,cdot_cos,S,R-S,133,26,20486,-0.01138460266532797,-0.07430833419894017,-0.03773156365814214,0.2802364404689145,799.0,3.593673915160508,0.5772781916898818,6.657499869133916,-0.03720492861291158,0.029,0.999999999999297,84.09972577852287,0.6606330395734687,133,2026-10-07 21:01:36.570244,25.0,0.4639806474059622,0.8670427926997946,1.0182101253774518
0897,cdot_cos,T,S-T,134,26,20736,-0.08866231943383816,-0.018982834353976834,-0.0772777167685102,0.12653568426923736,799.0,3.61443430350115,0.5774315609242691,6.684256567558522,-0.026338974658529326,0.25,0.9999999999992721,70.84832885679349,0.6656003273326788,134,2026-10-07 21:01:36.820243,25.0,0.6619648740508105,0.17945152932534647,0.08304155336256791
0897,cdot_cos,P,T-P,135,27,21115,0.04027954967835191,-4.262960160801996e-05,0.12894186911219008,0.9617108301258578,760.0,3.6833996798231814,0.5785967252535632,6.722689584919463,-0.0885204166872389,0.379,0.9999999999992646,-53.36710064440358,0.6705677065113507,135,2026-10-07 21:01:37.199244,25.0,0.4953686182004083,0.12807926561170407,0.1819666921425627
0897,cdot_cos,Q,P-Q,136,27,21226,-0.0035943804330352378,-0.004689653009299844,-0.04387393011138715,0.25033090257333745,760.0,3.711518386834822,0.5788998716291155,6.751077980489426,-0.036564702261977444,0.111,0.9999999999992321,171.3882091798255,0.6755348998974199,136,2026-10-07 21:01:37.310244,25.0,0.24149043664120085,0.37192231212749555,0.2533216847895534
0897,cdot_cos,R,Q-R,137,27,21252,0.030725402773322856,0.06496491827289022,0.0343197832063581,0.7022414944518888,760.0,3.7659664331154854,0.579749955746512,6.785802688384149,-0.07155348874728046,0.026,0.999999999999216,-41.1592050354506,0.680502033391044,137,2026-10-07 21:01:37.336244,25.0,0.6132467790731299,1.6159448599340616,2.0941556261793686
0897,cdot_cos,S,R-S,138,27,21284,-0.008688097570522023,-0.05405606563227075,-0.03941350034384488,0.2718339900460656,760.0,3.795547519551393,0.5800788921636013,6.8143874827062785,-0.0393026781510263,0.032,0.9999999999991911,98.0457283557562,0.6854691717699529,138,2026-10-07 21:01:37.368243,25.0,0.4401783058124026,0.7195341456704835,0.9244089511221132
0897,cdot_cos,T,S-T,139,27,21535,-0.12922646472803398,-0.0435735021473515,-0.12053836715751196,0.04682152281848767,760.0,3.8120166184383963,0.5801355420113858,6.8397006148036255,-0.022013980381075774,0.251,0.9999999999991604,305.18524667019597,0.6904364703655296,139,2026-10-07 21:01:37.619244,25.0,0.45595970925166923,0.17474697955769689,0.06561393978885785
0897,cdot_cos,P,T-P,140,28,21875,0.02538299195266743,0.0018217828157165664,0.15460945668070142,0.9794722528174334,740.0,3.883270503289357,0.5813201294276719,6.878276136690905,-0.09626652403537703,0.34,0.9999999999991513,-62.68219857264875,0.6954038369449111,140,2026-10-07 21:01:37.959244,25.0,0.462401101419372,0.15168520079806452,0.20957024956164855
0897,cdot_cos,Q,P-Q,141,28,21986,-0.007376683022926813,-0.011127417443892184,-0.03275967497559425,0.30597769887148724,740.0,3.9151625549810802,0.5816899916676461,6.907189779818875,-0.04365401012794515,0.111,0.9999999999991178,142.248946286307,0.700371033839124,141,2026-10-07 21:01:38.070244,25.0,0.2996272563047861,0.3895343746938147,0.2873157810065169
0897,cdot_cos,R,Q-R,142,28,22019,0.024262279990084807,0.06900150252880527,0.03163896301301162,0.6880404451671913,740.0,3.9697471344713837,0.582521350847147,6.941546924367755,-0.07550179576394603,0.033,0.9999999999990997,-38.30809404801779,0.7053381719633864,142,2026-10-07 21:01:38.103244,25.0,0.6558553991488054,1.3473506736804781,1.6540781663728328
0897,cdot_cos,S,R-S,143,28,22046,-0.0016955997385633187,-0.07402280626659366,-0.025957879728648124,0.3432268692155826,740.0,4.004087699443992,0.5829358968486472,6.970903355004652,-0.04802227922948221,0.027,0.9999999999990736,66.28821996838529,0.7103053060214662,143,2026-10-07 21:01:38.130244,25.0,0.5642689217397455,0.9996333148282558,1.2718727767632618
0897,cdot_cos,T,S-T,144,28,22294,-0.09184851417272552,-0.04944563932582845,-0.0901529144341622,0.09502022249346617,740.0,4.0237273334721095,0.583050640636174,6.996611598004612,-0.027648071969713785,0.248,0.9999999999990414,177.5626175405847,0.7152726136170492,144,2026-10-07 21:01:38.378243,25.0,0.47858932574287205,0.1818395756908865,0.07919207269402317
0897,cdot_cos,P,T-P,145,29,22615,0.02297853120505388,0.0017151314894508064,0.11482704537777941,0.9463776701284934,738.0,4.0942801289866715,0.5841929672376925,7.0346189490236055,-0.10035899160469941,0.321,0.9999999999990303,-63.651603261558755,0.720239981353086,145,2026-10-07 21:01:38.699244,25.0,0.4845627832397755,0.1609849442651047,0.2197906402322802
0897,cdot_cos,Q,P-Q,146,29,22704,-0.00871806508463534,-0.008221917134856952,-0.03169659628968922,0.31165037735087386,738.0,4.127079667690307,0.5845689480322355,7.063377785907477,-0.04723789863025868,0.089,0.9999999999989948,141.28671928314512,0.7252071644189827,146,2026-10-07 21:01:38.788243,25.0,0.3248005598511043,0.49448602130289077,0.36853414273747503
0897,cdot_cos,R,Q-R,147,29,22764,0.021913636007234224,0.06976028253493329,0.030631701091869565,0.6826100309106462,738.0,4.182298640778586,0.5853921169621621,7.097506587480257,-0.08033147548858924,0.06,0.9999999999989757,-40.20265543948627,0.7301743246209262,147,2026-10-07 21:01:38.848243,25.0,0.6623489373351095,0.7967370556483185,0.920316218137988
0897,cdot_cos,S,R-S,148,29,22786,0.011190048594543506,-0.10979038818438389,-0.010723587412690718,0.4333761344775867,738.0,4.222688114368105,0.5859144842345337,7.127961737944125,-0.05941197248540123,0.022,0.9999999999989501,40.04749935463875,0.7351414539701828,148,2026-10-07 21:01:38.870244,25.0,0.7032033173165771,1.4039899847059325,1.835885163159952
0897,cdot_cos,T,S-T,149,29,23053,-0.06933512005880821,-0.04343685764840775,-0.08052516865335171,0.11783131566651142,738.0,4.244074200105647,0.5860564781337597,7.153735393764565,-0.031686461196219456,0.267,0.9999999999989153,195.2584684293906,0.7401087897387819,149,2026-10-07 21:01:39.137243,25.0,0.41686389119978023,0.1718146047815896,0.08009769939154338
0897,cdot_cos,P,T-P,150,30,23353,0.029958160605370595,0.0019747715626053874,0.0992932806641788,0.9228939096368092,759.0,4.314437113321474,0.5871681249341167,7.191316099419777,-0.10529849990333005,0.3,0.999999999998902,-66.21890935454392,0.7450761559180749,150,2026-10-07 21:01:39.437243,25.0,0.4970425452789801,0.171222786173022,0.23454304405275592
0897,cdot_cos,Q,P-Q,151,30,23463,-0.004870921015469979,-0.006334038494186808,-0.03482908162084057,0.2951030425154566,759.0,4.34680787180946,0.5875233964181342,7.219613202555746,-0.04901196992625427,0.11,0.9999999999988625,158.43244535299064,0.7500433602512777,151,2026-10-07 21:01:39.547244,25.0,0.3171361343079332,0.40256913267899014,0.29427962261805846
0897,cdot_cos,R,Q-R,152,30,23497,0.02582761304030039,0.06733614944837887,0.03069853405577037,0.6829719104302894,759.0,4.403002322510852,0.5883452690448071,7.253612543653252,-0.0859017256270182,0.034,0.9999999999988417,-44.88500347079529,0.7550104988555878,152,2026-10-07 21:01:39.581243,25.0,0.650872582849142,1.3189490168413296,1.652777961805629
0897,cdot_cos,S,R-S,153,30,23524,-0.00621420570837257,-0.06022611383360809,-0.032041818748672964,0.30980192740484863,759.0,4.436496404954671,0.5887179154217981,7.282043372710881,-0.0517115121928283,0.027,0.9999999999988097,91.74975404367973,0.7599776318562761,153,2026-10-07 21:01:39.608243,25.0,0.5162458447716677,1.01898205550678,1.240521571993297
0897,cdot_cos,T,S-T,154,30,23792,-0.08804760996318049,-0.033768001082724874,-0.08183340425480792,0.11447389755488649,759.0,4.458027353508218,0.5888555850467058,7.3075105684011925,-0.033445181573050896,0.268,0.9999999999987716,132.68235917709205,0.7649449812413389,154,2026-10-07 21:01:39.876243,25.0,0.5791711110071446,0.17549219963423215,0.08033936027442944
0897,cdot_cos,P,T-P,155,31,24112,0.021458953364499253,0.0013316514677890713,0.10950656332767975,0.9392128711415044,779.0,4.530560223958619,0.5899845825616811,7.345253971585922,-0.11376576859024268,0.32,0.9999999999987584,-71.14328061116117,0.7699123802802101,155,2026-10-07 21:01:40.196243,25.0,0.493606232874659,0.16813987986688816,0.22666522015750423
0897,cdot_cos,Q,P-Q,156,31,24223,-0.006835459978428689,-0.008513163054083221,-0.02829441334292794,0.33018237211287543,779.0,4.565636876623026,0.5903812596184568,7.373864995849915,-0.05565892914145448,0.111,0.9999999999987155,146.48399360703007,0.7748795895391507,156,2026-10-07 21:01:40.307244,25.0,0.3520505344734343,0.4176218263039653,0.31600587985952316
0897,cdot_cos,R,Q-R,157,31,24256,0.02541218760283416,0.05911777991464601,0.03224764758126285,0.6912972765464258,779.0,4.623272269398099,0.5912113943285844,7.407863047726275,-0.09232923299754525,0.033,0.9999999999986927,-44.173919496094705,0.7798467268961435,157,2026-10-07 21:01:40.340243,25.0,0.6722204492564775,1.3838334856091095,1.7465270537900979
0897,cdot_cos,S,R-S,158,31,24283,-0.007670251118076824,-0.07193471274212589,-0.03308243872091098,0.30426687142276815,779.0,4.656969886673227,0.5915766044749148,7.436008135818071,-0.054503521816797414,0.027,0.9999999999986573,103.5724542727458,0.78481385920635,158,2026-10-07 21:01:40.367244,25.0,0.49957132439889634,0.9850573167729711,1.2480598990788143
0897,cdot_cos,T,S-T,159,31,24552,-0.10739533022536836,-0.03705893913095108,-0.09972507910729153,0.07634141121209179,779.0,4.67646536450384,0.591668220877401,7.460657920623545,-0.03171110205791117,0.269,0.9999999999986139,248.78099489130844,0.7897812227830562,159,2026-10-07 21:01:40.636243,25.0,0.4873600753651774,0.1759643405056713,0.07247389528108718
0897,cdot_cos,P,T-P,160,32,24891,0.02269160122572104,0.0016687554716669662,0.1300869314510894,0.9627511281587599,760.0,4.751638701865279,0.5928230582465643,7.498690224182066,-0.12340730923254846,0.339,0.9999999999985997,-79.40183581093359,0.7947486564807846,160,2026-10-07 21:01:40.975244,25.0,0.47566707876069786,0.1634095644292257,0.22175025770335904
0897,cdot_cos,Q,P-Q,161,32,25002,-0.005656443558605337,-0.007398889299240537,-0.028348044784326377,0.32988590877355056,760.0,4.787257049186855,0.5932185272188026,7.527105364001474,-0.0591414797929843,0.111,0.9999999999985535,162.50536439263095,0.7997158698106818,161,2026-10-07 21:01:41.086244,25.0,0.3373461883046141,0.4211702507441719,0.32088601190609295
0897,cdot_cos,R,Q-R,162,32,25035,0.024629283061018636,0.06352740015732845,0.030285726619623973,0.6807331630026545,760.0,4.845138497530485,0.5940342113855119,7.560827316489398,-0.09698822534110657,0.033,0.9999999999985271,-46.39877429619223,0.8046830066616827,162,2026-10-07 21:01:41.119244,25.0,0.6769079365860348,1.4078639963288282,1.7539832831402984
0897,cdot_cos,S,R-S,163,32,25063,-0.006064165880087857,-0.05800683030718001,-0.030693448941106493,0.3170556160983618,760.0,4.880176072944558,0.5944139445066543,7.5889754037453026,-0.05925897782870855,0.028,0.9999999999984884,99.35727333685178,0.8096501391411208,163,2026-10-07 21:01:41.147244,25.0,0.5290437880150096,1.0215315768972484,1.2513419790740292
0897,cdot_cos,T,S-T,164,32,25311,-0.08827412939678805,-0.03738672103260096,-0.0822099635167002,0.11352306369926853,760.0,4.902344265836731,0.5945498820790008,7.613959715497003,-0.03770954299008352,0.248,0.9999999999984415,158.52449375578752,0.814617495147944,164,2026-10-07 21:01:41.395243,25.0,0.56470128146586,0.1963244268544823,0.08938787456521406
0897,cdot_cos,P,T-P,165,33,25651,0.02535317253221704,0.0016901349485131485,0.1136273019290051,0.9448350486485693,700.0,4.977552988664381,0.5956807054939381,7.651663636184933,-0.1290931049148489,0.34,0.9999999999984264,-80.81152257519489,0.8195849481083545,165,2026-10-07 21:01:41.735244,25.0,0.4926832577180846,0.16045286693923067,0.2212021259636768
0897,cdot_cos,Q,P-Q,166,33,25762,-0.00962195749234375,-0.016607359847601363,-0.03497513002456079,0.2943440965081134,700.0,5.0114522153554075,0.5960327836151106,7.679351999446219,-0.05881291999893823,0.111,0.9999999999983742,199.61531458380296,0.8245521657501245,166,2026-10-07 21:01:41.846244,25.0,0.302710410943007,0.4140787576701678,0.30539843865789856
0897,cdot_cos,R,Q-R,167,33,25794,0.018555634291496027,0.06500556448423572,0.028177591783839776,0.6691713956786052,700.0,5.069478472867158,0.5968328410549298,7.71278694342067,-0.1015330555323596,0.032,0.9999999999983458,-53.396335571946395,0.8295193011318783,167,2026-10-07 21:01:41.878243,25.0,0.6565535571709549,1.5994713894909862,1.8133205472422032
0897,cdot_cos,S,R-S,168,33,25822,0.011062720486641465,-0.09715694670882821,-0.007492913804854562,0.4533057501116009,700.0,5.113818384282831,0.5973745185096703,7.742865587408423,-0.07833856218498733,0.028,0.9999999999983098,42.81975028568797,0.8344864329693054,168,2026-10-07 21:01:41.906244,25.0,0.743727814851327,1.2843062309545143,1.5835682648454505
0897,cdot_cos,T,S-T,169,33,26091,-0.04647517563208563,-0.039619574342796685,-0.05753789611872709,0.19178589225457393,700.0,5.141399621800611,0.5976036215358957,7.768853968667182,-0.04906484020022473,0.269,0.999999999998263,127.77536144787766,0.8394538254076925,169,2026-10-07 21:01:42.175244,25.0,0.55066238394259,0.18910183376629564,0.10253248147873675
0897,cdot_cos,P,T-P,170,34,26351,0.04630274070027786,0.0016452522723524893,0.09277791633236349,0.9104749496954202,698.0,5.215555170849098,0.5986906712880917,7.80597849706283,-0.13310729838048618,0.26,0.9999999999982435,-77.31243028250087,0.8444212107534984,170,2026-10-07 21:01:42.435244,25.0,0.531852647763439,0.20022963316033832,0.2852136501864879
0897,cdot_cos,Q,P-Q,171,34,26480,-0.003059047569352613,-0.007095955964364623,-0.049361788269630474,0.22547429157806306,698.0,5.245519031043987,0.5989597239337245,7.832422169108827,-0.054313038378356646,0.129,0.9999999999981869,292.8581498122941,0.8493884534882755,171,2026-10-07 21:01:42.564243,25.0,0.23439606811073155,0.3321363028142006,0.23227798600689192
0897,cdot_cos,R,Q-R,172,34,26504,0.016581529736854783,0.08227593814430981,0.019640577306207396,0.6203453776191772,698.0,5.3012463369751615,0.599699657865195,7.8649948498873625,-0.10177743158537,0.024,0.9999999999981531,-64.14679904284182,0.8543555797406984,172,2026-10-07 21:01:42.588243,25.0,0.627284687310441,2.0892392865837404,2.3219710804656124
0897,cdot_cos,S,R-S,173,34,26538,0.007981194290103537,-0.06886544324871582,-0.008600335446751246,0.44645402435034,698.0,5.345802516800006,0.6002318970580643,7.894825566501428,-0.08211241231750503,0.034,0.9999999999981145,36.947709847987824,0.8593227180083662,173,2026-10-07 21:01:42.622243,25.0,0.7870299329780072,0.9451629113558039,1.3104758772013185
0897,cdot_cos,T,S-T,174,34,26790,-0.09838473477885723,-0.0896254036148526,-0.10636592906896077,0.06542739723550248,698.0,5.365517414947356,0.6003098763411695,7.918638717681149,-0.036549457251150434,0.252,0.9999999999980581,584.2956392008923,0.8642901054990497,174,2026-10-07 21:01:42.874244,25.0,0.2874774118203489,0.19715019601396916,0.0782337228069438
0897,cdot_cos,P,T-P,175,35,27049,0.053059401456290976,-0.0017575385821279002,0.1514441362351482,0.9778193229711442,699.0,5.445166215591047,0.6014746771524785,7.956769949914587,-0.14888468800856763,0.259,0.9999999999980423,-96.441580111175,0.8692575035811138,175,2026-10-07 21:01:43.133244,25.0,0.47024020315868303,0.20837383034433318,0.3075243268096163
0897,cdot_cos,Q,P-Q,176,35,27160,-0.004032756364908696,-0.006166448421856961,-0.057092157821199675,0.19351910836016223,699.0,5.473455059065721,0.601705065901182,7.982527918096504,-0.053396880563848566,0.111,0.9999999999979805,414.46384852587505,0.8742247311381192,176,2026-10-07 21:01:43.244244,25.0,0.16724998792717535,0.40624721754694865,0.25485444571778354
0897,cdot_cos,R,Q-R,177,35,27186,0.03018141779372976,0.08319401334993642,0.034214174158638457,0.701689132817618,699.0,5.535353097886469,0.6025400637837064,8.016282444190951,-0.11771745113300733,0.026,0.9999999999979505,-77.03081877848945,0.8791918592481148,177,2026-10-07 21:01:43.270243,25.0,0.5790317766058987,1.881095211948142,2.3806938007980243
0897,cdot_cos,S,R-S,178,35,27218,-0.002500745263860195,-0.057587383754664344,-0.032682163057589954,0.30638935527106603,699.0,5.571272010087024,0.6029044749223863,8.04375725029131,-0.06889587195594085,0.032,0.9999999999979025,133.9738937561681,0.8841589952168122,178,2026-10-07 21:01:43.302243,25.0,0.49231894453319336,0.8309238900629512,1.1224660062673364
0897,cdot_cos,T,S-T,179,35,27468,-0.14976245376140054,-0.10757246001724861,-0.14726170849754036,0.02456543484109236,699.0,5.588532226850498,0.6029336874433722,8.066711260060657,-0.03326441848030562,0.25,0.9999999999978396,1219.7322337525966,0.889126393517685,179,2026-10-07 21:01:43.552243,25.0,0.3426114867471981,0.19760417522979878,0.06904086705389645
0897,cdot_cos,P,T-P,180,36,27748,0.032685326315614265,-0.0024112077929034064,0.18244778007701482,0.989658494821905,721.0,5.6700740977019235,0.6041099490257982,8.104994064705796,-0.15837995966833557,0.28,0.9999999999978252,-106.36710665155151,0.8940938307536322,180,2026-10-07 21:01:43.832243,25.0,0.45385805420623493,0.20676437741497283,0.2912209673265188
0897,cdot_cos,Q,P-Q,181,36,27859,-0.0056734606822461215,-0.00818625707697277,-0.038358786997860383,0.27708453053244997,721.0,5.704320278202883,0.6044390635867403,8.131904851912621,-0.0671816631206251,0.111,0.9999999999977642,277.10198019393465,0.8990610629983719,181,2026-10-07 21:01:43.943244,25.0,0.25730633827838373,0.4351861832488053,0.3085241486572929
0897,cdot_cos,R,Q-R,182,36,27885,0.027429557068065852,0.06762235649478752,0.03310301775031197,0.6958420262272784,721.0,5.766685430383158,0.6052651508677958,8.16548235412987,-0.12329315685569317,0.026,0.9999999999977325,-67.92441309999919,0.904028190542479,182,2026-10-07 21:01:43.969243,25.0,0.6343805230085204,1.8928753395054314,2.3986596992413567
0897,cdot_cos,S,R-S,183,36,27917,-0.006220811947170954,-0.07080710517605807,-0.033650369015236804,0.30126964287516494,721.0,5.802749795857165,0.6056226249493571,8.192720070561863,-0.07188676438262318,0.032,0.9999999999976813,143.80453052298114,0.908995326336841,183,2026-10-07 21:01:44.001244,25.0,0.48914205691483914,0.9136596341323272,1.1270114210627236
0897,cdot_cos,T,S-T,184,36,28168,-0.09518186421458491,-0.04703012609139798,-0.08896105226741395,0.09761357137664006,721.0,5.825159646967627,0.6057384249525428,8.216644836217407,-0.04489052206790798,0.251,0.999999999997619,233.12816556170165,0.9139627398714492,184,2026-10-07 21:01:44.252243,25.0,0.5480550406741154,0.2049956863052291,0.0892822753404852
0897,cdot_cos,P,T-P,185,37,28469,0.029408674409121212,0.0018527538287495102,0.12459053862370612,0.9574976323936605,758.0,5.90565763038239,0.6068736831647854,8.25438388938147,-0.1625129674996389,0.301,0.9999999999976024,-103.60853959327895,0.9189302201341946,185,2026-10-07 21:01:44.553244,25.0,0.48491935686833426,0.19380728515379803,0.26743516084638946
0897,cdot_cos,Q,P-Q,186,37,28579,-0.004736887516063011,-0.006080154225550187,-0.034145561925184226,0.29867004173364575,758.0,5.941831632630214,0.6072275661545172,8.281489653082328,-0.07373263426024586,0.11,0.9999999999975383,250.87482533893936,0.9238974559600172,186,2026-10-07 21:01:44.663244,25.0,0.29996644767549024,0.44769807073498397,0.32885456588930173
0897,cdot_cos,R,Q-R,187,37,28613,0.025899827402343038,0.06868004172894061,0.030636714918406048,0.6826371868753185,758.0,6.004151205944087,0.6080359742747077,8.314776791225542,-0.12798709245780548,0.034,0.9999999999975034,-67.11270810191506,0.9288645933074035,187,2026-10-07 21:01:44.697243,25.0,0.6544855960791321,1.4644369432868998,1.8329286268786258
0897,cdot_cos,S,R-S,188,37,28640,-0.005784680239772378,-0.055748053945129855,-0.03168450764211542,0.31171521379364764,758.0,6.041413344773723,0.6084049240844865,8.342037949597204,-0.07713815756588784,0.027,0.9999999999974493,137.8207375208975,0.9338317221218949,188,2026-10-07 21:01:44.724244,25.0,0.5172685925317472,1.0317295357819207,1.3800792159124413
0897,cdot_cos,T,S-T,189,37,28907,-0.13819667435498453,-0.06854881289374212,-0.13241199411521215,0.03521952905068874,758.0,6.059864600876311,0.6084466025560721,8.364767766597733,-0.038372062750726424,0.267,0.9999999999973784,930.122754995963,0.9387991710557513,189,2026-10-07 21:01:44.991244,25.0,0.36412111888325716,0.19097910900080128,0.06910582809957977
0897,cdot_cos,P,T-P,190,38,29227,0.032461721147067704,-0.00024413933090999658,0.17065839550205225,0.9861627870720162,739.0,6.143396188980151,0.6096129745986328,8.402945245635983,-0.17499293268367372,0.32,0.9999999999973618,-117.13318302194334,0.9437666941392084,190,2026-10-07 21:01:45.311244,25.0,0.4580750633425678,0.1858852674840275,0.2610362128245003
0897,cdot_cos,Q,P-Q,191,38,29337,-0.005125084869622829,-0.00701663160724684,-0.03758680601669053,0.28096697547721994,739.0,6.178831172066088,0.6099450562545821,8.42961911358745,-0.07493458793281324,0.11,0.9999999999972906,301.30644965875433,0.9487339345096347,191,2026-10-07 21:01:45.421243,25.0,0.26308559625321887,0.4502129604888726,0.3221362098721592
0897,cdot_cos,R,Q-R,192,38,29366,0.026790411448219368,0.064645136215027,0.0319154963178422,0.6895223959313912,739.0,6.242443040287703,0.610759587003126,8.462943941583433,-0.13549922895099414,0.029,0.9999999999972535,-74.3552543921065,0.9537010644735421,192,2026-10-07 21:01:45.450243,25.0,0.639560495771093,1.7421720509287475,2.1935126972970505
0897,cdot_cos,S,R-S,193,38,29396,-0.005738328387980307,-0.057338975344183314,-0.03252873983619967,0.30720507811809544,739.0,6.279877151019956,0.6111222887636383,8.48999303404482,-0.08035961802212105,0.03,0.9999999999971944,152.02465753406207,0.9586681965725022,193,2026-10-07 21:01:45.480243,25.0,0.5035054766440216,0.9396102536312956,1.2478036910750965
0897,cdot_cos,T,S-T,194,38,29647,-0.13397247090465192,-0.06164308692942874,-0.12823414251667162,0.0389460361065763,739.0,6.29881965550558,0.611168261635587,8.512599735335359,-0.04084510773165039,0.251,0.9999999999971179,859.5179856183223,0.9636356382509121,194,2026-10-07 21:01:45.731244,25.0,0.3800610680484425,0.20557346584307,0.07546814536105516
0897,cdot_cos,P,T-P,195,39,29966,0.02367825881742782,0.0016870162587256578,0.15765072972207975,0.9809465211742738,720.0,6.383075030873177,0.6123255413156253,8.550672078838293,-0.1829681935505323,0.319,0.9999999999971001,-122.80789879087531,0.968603178775657,195,2026-10-07 21:01:46.050244,25.0,0.45989186635473545,0.19302786752374712,0.26412343375422037
0897,cdot_cos,Q,P-Q,196,39,30077,-0.005693340676304606,-0.00834979280301282,-0.029371599493732428,0.32425402611086596,720.0,6.421971434985731,0.6127078048049189,8.577920967268629,-0.08525642408688486,0.111,0.9999999999970275,255.61365968853858,0.9735704254112463,196,2026-10-07 21:01:46.161243,25.0,0.31787636880419995,0.45728219843788853,0.35041805506805723
0897,cdot_cos,R,Q-R,197,39,30109,0.021465634086159795,0.06635339812240716,0.0271589747624644,0.663509748776968,720.0,6.484591678926388,0.6134895843731338,8.61074848632388,-0.1382413747542601,0.032,0.9999999999969862,-67.774795890816,0.9785375590414407,197,2026-10-07 21:01:46.193243,25.0,0.6816230215357527,1.6492028241798933,1.9568826231455283
0897,cdot_cos,S,R-S,198,39,30138,0.0017174163675792828,-0.07981030256218596,-0.019748217718580513,0.37902104929787306,720.0,6.527520415733244,0.6139359033465862,8.638855765010538,-0.09550424551122111,0.029,0.9999999999969278,95.7546772265985,0.9835046890851845,198,2026-10-07 21:01:46.222244,25.0,0.6392310474709568,1.1831446812517483,1.4803012692019404
0897,cdot_cos,T,S-T,199,39,30388,-0.07371008610278017,-0.0451741860737445,-0.07542750247035945,0.1317369532831496,720.0,6.553214070438989,0.6140909863501468,8.662831283238669,-0.05745397430285823,0.25,0.9999999999968529,245.35423182912018,0.9884721447453214,199,2026-10-07 21:01:46.472243,25.0,0.5156773693520835,0.21545997255339167,0.10277461882298056
0897,cdot_cos,P,T-P,200,40,30686,0.03210166451415995,-0.0023433133932835785,0.10581175061694012,0.9337203311294439,699.0,6.63525040200994,0.6151895126865662,8.700105764980192,-0.18475684552345284,0.298,0.9999999999968304,-115.88513356496772,0.9934396746677516,200,2026-10-07 21:01:46.770243,25.0,0.5020632090376281,0.19819273825161168,0.27528970325822383
0897,cdot_cos,Q,P-Q,201,40,30797,-0.00624412932778779,-0.009551033687588787,-0.038345793841947744,0.27714960129573535,699.0,6.67133694243695,0.6155153551529254,8.726448954908875,-0.08197362998115554,0.111,0.9999999999967509,315.43836716782084,0.9984069267232752,201,2026-10-07 21:01:46.881243,25.0,0.2854018561020034,0.4571942925876219,0.32510396781089973
0897,cdot_cos,R,Q-R,202,40,30824,0.026089113243443922,0.07427325180782375,0.03233324257123171,0.691753750237789,699.0,6.736747534964392,0.6163281916164476,8.759682298807913,-0.1495997947608656,0.027,0.9999999999967092,-83.19774987292675,1.0033740524747112,202,2026-10-07 21:01:46.908243,25.0,0.636324149670299,1.953843904728488,2.4226145380534145
0897,cdot_cos,S,R-S,203,40,30856,-0.0020132106823613437,-0.06805397153204987,-0.028102323925805264,0.3312453087627942,699.0,6.776844513292288,0.6167171874767312,8.786880228139482,-0.09239153093613027,0.032,0.9999999999966445,147.06651063850285,1.0083411866733156,203,2026-10-07 21:01:46.940243,25.0,0.5383782992089757,0.9442178259356782,1.253030572746755
0897,cdot_cos,T,S-T,204,40,31106,-0.1184518323987584,-0.07327811106129888,-0.11643862171639704,0.051614151547020766,699.0,6.797177475824276,0.6167777867933085,8.809361725498096,-0.047057958369865115,0.25,0.9999999999965581,748.0871918485618,1.0133086573382157,204,2026-10-07 21:01:47.190243,25.0,0.38161000240854537,0.21331217505612976,0.08133185012794897
0897,cdot_cos,P,T-P,205,41,31385,0.03681785537026941,-0.00288986748842267,0.1552696877690278,0.9798015106536682,719.0,6.883500600820353,0.6179274653380887,8.847388154673824,-0.20112326656541127,0.279,0.9999999999965385,-134.00729177302324,1.0182761759962744,205,2026-10-07 21:01:47.469243,25.0,0.46485753643658456,0.21736700689327104,0.30940188170637145
0897,cdot_cos,Q,P-Q,206,41,31495,-0.006014343366754611,-0.008618868573425675,-0.04283219873702402,0.255250031579561,719.0,6.918468265670721,0.6182267542796286,8.873236924950817,-0.08216848631563362,0.11,0.999999999996453,397.4579870467318,1.0232434318571426,206,2026-10-07 21:01:47.579243,25.0,0.23511195831930654,0.4647580352926491,0.31788786227606924
0897,cdot_cos,R,Q-R,207,41,31522,0.029168443549479325,0.07084315996123693,0.03518278691623394,0.706733038811058,719.0,6.985747368584736,0.6190549530130679,8.906663657883483,-0.15913380446463968,0.027,0.9999999999964115,-92.93097784560413,1.028210557047175,207,2026-10-07 21:01:47.606244,25.0,0.6165279666936112,1.9635174397073971,2.4918186264450064
0897,cdot_cos,S,R-S,208,41,31553,-0.003648847785682668,-0.08873588936734672,-0.032817291335161994,0.3056719058345475,719.0,7.02449820741492,0.6194129464070273,8.933314449175676,-0.09232205193656728,0.031,0.9999999999963408,186.62845084693336,1.0331776894411657,208,2026-10-07 21:01:47.637243,25.0,0.4849636167222983,1.0272311329991308,1.250027059038202
0897,cdot_cos,T,S-T,209,41,31805,-0.08630367765036764,-0.04807207977643438,-0.08265482986468498,0.11240863076568543,719.0,7.049435698830682,0.619544563263837,8.956665765447173,-0.05967453195476549,0.252,0.9999999999962551,248.04968583163236,1.0381451788320606,209,2026-10-07 21:01:47.889244,25.0,0.5786294313185152,0.21934644624898078,0.09895829926889622
0897,cdot_cos,P,T-P,210,42,32104,0.036226414028077795,-0.00031043178592626283,0.12253009167844545,0.9553512299292306,761.0,7.135048816324407,0.6206624526536676,8.994267765247518,-0.20624306946561635,0.299,0.9999999999962333,-131.11184240961606,1.0431127478706488,210,2026-10-07 21:01:48.188244,25.0,0.4913202058309157,0.20345947366489406,0.28633149663453
0897,cdot_cos,Q,P-Q,211,42,32215,-0.00467807306600936,-0.00610212108229989,-0.04090448709408716,0.26451889245776994,761.0,7.171104464082289,0.6209717495954966,9.02015053579497,-0.08757575724886282,0.111,0.9999999999961434,383.66791315497,1.048080010689752,211,2026-10-07 21:01:48.299244,25.0,0.2579409290542846,0.4664373138815831,0.32482565547641595
0897,cdot_cos,R,Q-R,212,42,32244,0.02893484315067229,0.0651745391786692,0.03361291621668165,0.6985332192569075,761.0,7.238597900006118,0.6217880581271993,9.053385793339709,-0.16498268149336287,0.029,0.9999999999960987,-94.82557297673151,1.053047138471448,212,2026-10-07 21:01:48.328243,25.0,0.6255136543183554,1.8134563484041644,2.3273598594423888
0897,cdot_cos,S,R-S,213,42,32274,-0.007925966704837936,-0.059336975429732305,-0.036860809855510226,0.28464823491134,761.0,7.27628493228973,0.6221205015881142,9.079564830094936,-0.09276360254658203,0.03,0.9999999999960218,217.23717695645286,1.0580142687263805,213,2026-10-07 21:01:48.358243,25.0,0.45908119778128464,0.9742781799387146,1.2562344094537419
0897,cdot_cos,T,S-T,214,42,32524,-0.12483045469758768,-0.04223188041436356,-0.11690448799274974,0.051047014279498475,761.0,7.297054590802441,0.6221801077659115,9.101725355282584,-0.051325577067870845,0.25,0.9999999999959249,695.1968237187111,1.0629817700957689,214,2026-10-07 21:01:48.608243,25.0,0.44603571533698755,0.21777855003850632,0.08307863405084248
0897,cdot_cos,P,T-P,215,43,32865,0.023477687246514622,0.0015195250252036188,0.1483081419441023,0.9760536945451405,819.0,7.385174207308983,0.6233191062765685,9.139667678642443,-0.21912542513202063,0.341,0.9999999999959039,-147.32227170986928,1.067949429252452,215,2026-10-07 21:01:48.949243,25.0,0.4649753983515842,0.18962682185212862,0.25841529767314525
0897,cdot_cos,Q,P-Q,216,43,32975,-0.00495419748574263,-0.00552101001492352,-0.028431884732257252,0.3294227301146166,819.0,7.426380083305593,0.6237032169769863,9.166543901487238,-0.10332669201666311,0.11,0.9999999999958128,301.47229168417,1.0729166953865845,216,2026-10-07 21:01:49.059244,25.0,0.32604987134620445,0.4979244167271115,0.37459887269644715
0897,cdot_cos,R,Q-R,217,43,33012,0.028798905957566266,0.061193541358600625,0.033753103443308896,0.6992707369793787,819.0,7.494717578988948,0.6245180589277511,9.199741753344771,-0.17247972427540062,0.037,0.9999999999957642,-84.86680416223753,1.0778838361628598,217,2026-10-07 21:01:49.096244,25.0,0.6696940789069715,1.424750329492408,1.8469593427933877
0897,cdot_cos,S,R-S,218,43,33036,-0.010865918302185968,-0.06367615141323141,-0.039664824259752235,0.2705920963909151,819.0,7.531811607688031,0.6248331839971131,9.225567710146434,-0.09425305945146685,0.024,0.9999999999956796,248.24005586838183,1.0828509549991117,218,2026-10-07 21:01:49.120243,25.0,0.4360648983741249,1.1747988569130914,1.545584529128452
0897,cdot_cos,T,S-T,219,43,33304,-0.1530892533670262,-0.02482407818613365,-0.14222333506484022,0.02777142352278297,819.0,7.551107924120776,0.6248655199527834,9.247181561363853,-0.0492127756421362,0.268,0.9999999999955738,1392.8855008506307,1.0878185034210575,219,2026-10-07 21:01:49.388243,25.0,0.4004304156471976,0.2038847155734346,0.07200118071919978
0897,cdot_cos,P,T-P,220,44,33684,0.022123817676719684,0.001552053169596855,0.1752130710437459,0.9876335769739273,837.0,7.641093815235392,0.6260147556501876,9.285316177502276,-0.23087573566490205,0.38,0.9999999999955507,-158.07284827045385,1.0927862538579205,220,2026-10-07 21:01:49.768243,25.0,0.4552798403482393,0.1735476266617683,0.23680497661740899
0897,cdot_cos,Q,P-Q,221,44,33773,-0.005731573282063007,-0.004527242215423236,-0.027855390958782693,0.33261425677223155,837.0,7.68300412038372,0.6264014750200231,9.312144937659136,-0.10841712457435074,0.089,0.9999999999954502,316.6601433557613,1.097753486882277,221,2026-10-07 21:01:49.857243,25.0,0.3231904346777491,0.6259579624084155,0.4709023050373989
0897,cdot_cos,R,Q-R,222,44,33831,0.02904159003160763,0.058105171565641246,0.034773163313670634,0.7046060749186865,837.0,7.75251433254409,0.6272201628120992,9.34538762508082,-0.18096158133141743,0.058,0.9999999999953988,-88.61064921109448,1.1027206651107808,222,2026-10-07 21:01:49.915244,25.0,0.6697282845972775,0.9155571339404983,1.1984519337994732
0897,cdot_cos,S,R-S,223,44,33855,-0.012887825137433525,-0.06665759782499699,-0.041929415169041154,0.2595641003865705,837.0,7.789208747920818,0.627521569092195,9.370913139118903,-0.09615528816099969,0.024,0.9999999999953049,281.3686998939343,1.1076877821755522,223,2026-10-07 21:01:49.939244,25.0,0.41396567378973437,1.420217967069722,1.528933974030348
0897,cdot_cos,T,S-T,224,44,34103,-0.07121683962893732,-0.009008218708025302,-0.058329014491503794,0.18873890149638298,837.0,7.820684794963436,0.6277406708167345,9.395179835077743,-0.08282287011614756,0.248,0.9999999999952068,60.850356485683164,1.1126553111809396,224,2026-10-07 21:01:50.187244,25.0,0.8513132865764312,0.23643993401721172,0.12691954452668672
0897,cdot_cos,P,T-P,225,45,34521,0.025126507648917155,-0.0016186198093549225,0.09634334727785449,0.9174795146056378,727.0,7.906482955193355,0.6288049982781331,9.432093212676172,-0.22719076699925106,0.418,0.9999999999951745,-135.64236771020802,1.117623158889909,225,2026-10-07 21:01:50.605243,25.0,0.5296981808099949,0.15211124801813525,0.205258756530906
0897,cdot_cos,Q,P-Q,226,45,34632,-0.005227389583622557,-0.007389960047175757,-0.030353897232539714,0.3188965537439741,727.0,7.947849798306597,0.6291746440777566,9.458587998793472,-0.1103786743034515,0.111,0.999999999995062,316.0108753157079,1.1225904363627321,226,2026-10-07 21:01:50.716243,25.0,0.3470505001372497,0.5046932913874922,0.37267426228146255
0897,cdot_cos,R,Q-R,227,45,34652,0.030524123980782122,0.06634717299251544,0.03575151356440468,0.7096712306492942,727.0,8.018524865881378,0.6299967091761894,9.491876784813662,-0.1897406975870373,0.02,0.9999999999950036,-96.53982809254111,1.1275575432749696,227,2026-10-07 21:01:50.736243,25.0,0.6581873331816745,2.71413384526471,3.5337533787390463
0897,cdot_cos,S,R-S,228,45,34674,-0.009268015778979984,-0.07721945097071005,-0.039792139759762105,0.26996434237852535,727.0,8.056415152117186,0.6303092314986666,9.517479964265458,-0.1023796716735374,0.022,0.9999999999949044,279.53531517701646,1.132524654787906,228,2026-10-07 21:01:50.758244,25.0,0.4260049062900293,1.5107945716653537,1.7222857379912493
0897,cdot_cos,T,S-T,229,45,34943,-0.08008226851013191,-0.03730493593642571,-0.07081425273115192,0.1454980228778482,727.0,8.084999827034654,0.6304776209893698,9.540876952565203,-0.07754067678653269,0.269,0.9999999999947934,147.50917520611017,1.13749223990693,229,2026-10-07 21:01:51.027244,25.0,0.7259057973990197,0.2189988176049876,0.10626273203519732
0897,cdot_cos,P,T-P,230,46,35248,0.03810970503106507,0.0013009028199862372,0.11819197354119698,0.950489829026241,675.0,8.17423651598867,0.6315768702308826,9.578357314158051,-0.24353462886370392,0.305,0.9999999999947593,-151.00665600525974,1.1424598982248086,230,2026-10-07 21:01:51.332243,25.0,0.5058054975847319,0.19805730517539236,0.29257930804595167
0897,cdot_cos,Q,P-Q,231,46,35368,-0.02170303974250305,-0.023742389401844036,-0.05981274477356811,0.18312477341098668,675.0,8.205814783191643,0.6317884990140158,9.602374333634092,-0.08679942947625062,0.12,0.999999999994631,740.6138100260772,1.1474271989406688,231,2026-10-07 21:01:51.452243,25.0,0.1643565820354326,0.43647263506641687,0.26315222669145066
0897,cdot_cos,R,Q-R,232,46,35392,0.01862603798304607,0.08458794257277226,0.04032907772554912,0.7326730158264023,675.0,8.27898994840461,0.632634706908669,9.636025473768562,-0.20222865296224474,0.024,0.9999999999945722,-136.4076419226791,1.1523943122585873,232,2026-10-07 21:01:51.476243,25.0,0.5650812791887283,2.713073616566475,3.048965217206915
0897,cdot_cos,S,R-S,233,46,35422,0.02141055414892854,-0.08355695474085387,0.0027845161658824717,0.5173962015012211,675.0,8.336042316786834,0.6332317870919199,9.665884426057294,-0.15880835297814444,0.03,0.9999999999944964,72.7210535571494,1.1573614384553867,233,2026-10-07 21:01:51.506243,25.0,0.7607783690063702,1.3254463930891802,1.9017456127408277
0897,cdot_cos,T,S-T,234,46,35683,-0.08822184981265609,-0.09052983540794508,-0.10963240396158463,0.060607764340956854,675.0,8.35851673198996,0.6333017023191693,9.687673937828826,-0.06285318741288391,0.261,0.999999999994369,1372.4501705894124,1.1623290269345006,234,2026-10-07 21:01:51.767244,25.0,0.21726107873173184,0.22072884072237015,0.08610887051006125
0897,cdot_cos,P,T-P,235,47,35923,0.07575191598207295,-0.005789809261255218,0.16397376579472905,0.9836869795209867,658.0,8.451262771643911,0.634435666581483,9.725735880423901,-0.2608271379266831,0.24,0.9999999999943383,-174.58570529361998,1.1672965764020504,235,2026-10-07 21:01:52.007244,25.0,0.4681232843416519,0.24548942179654828,0.38644183189146347
0897,cdot_cos,Q,P-Q,236,47,36012,-0.015176477567546543,-0.018203289955221663,-0.0909283935496195,0.09336614801318543,658.0,8.476351654452303,0.6345432190294212,9.748059704883243,-0.07104256820778744,0.089,0.9999999999941978,1764.5769422919445,1.1722638213811596,236,2026-10-07 21:01:52.096244,25.0,0.0691539256340981,0.5307017896248691,0.2818975596448533
0897,cdot_cos,R,Q-R,237,47,36071,0.013630841179985387,0.08894539154392646,0.02880731874753193,0.6726473067478137,658.0,8.545727690197138,0.6353176729580798,9.78061321361128,-0.1973657324240037,0.059,0.9999999999941339,-163.11256169235915,1.1772310060369828,237,2026-10-07 21:01:52.155244,25.0,0.5272681246920725,1.0906234447323118,1.175865012624318
0897,cdot_cos,S,R-S,238,47,36098,0.019892189722041865,-0.08114445802301617,0.006261348542056478,0.5390537171382975,658.0,8.605045220930716,0.6359378085372273,9.810792719990376,-0.16990298963236178,0.027,0.9999999999940573,44.28506235587799,1.1821981258485843,238,2026-10-07 21:01:52.182244,25.0,0.8507493034845981,1.4976049363021369,2.1969455827251125
0897,cdot_cos,T,S-T,239,47,36362,-0.10184182085057207,-0.1362977467864224,-0.12173401057261393,0.04550543132459423,658.0,8.626598356757453,0.6359901380449057,9.832190992189133,-0.06202190840057534,0.264,0.9999999999939236,2061.5726388016737,1.1871657388498025,239,2026-10-07 21:01:52.446244,25.0,0.17562525242709434,0.21859793357447915,0.08164066601036873
0897,cdot_cos,P,T-P,240,48,36581,0.06694870154123783,-0.00048200673593390067,0.16879052239180992,0.9855108930816072,700.0,8.720464929858041,0.6371226469268098,9.870284248337017,-0.2715587292177716,0.219,0.9999999999938946,-185.0200242711589,1.1921332608614155,240,2026-10-07 21:01:52.665244,25.0,0.46226925582687184,0.281628576805144,0.42861448904377925
0897,cdot_cos,Q,P-Q,241,48,36672,-0.003381306980952853,-0.003603854695449168,-0.07033000852219068,0.14700962372632684,700.0,8.749951673398106,0.6372914544141483,9.893447012391619,-0.08589545885658251,0.091,0.9999999999937573,1099.8521054276082,1.197100514851244,241,2026-10-07 21:01:52.756243,25.0,0.11515194659180218,0.5367879903603195,0.3240301487919277
0897,cdot_cos,R,Q-R,242,48,36730,0.021033861852577357,0.0887053796805031,0.02441516883353021,0.6480273026266624,700.0,8.81816034410362,0.6380351641480604,9.925521110795746,-0.19962716811078443,0.058,0.9999999999936897,-152.92486311284281,1.202067699734283,242,2026-10-07 21:01:52.814244,25.0,0.5656834706746229,1.0084283577127615,1.1760115638881505
0897,cdot_cos,S,R-S,243,48,36755,0.003944175640645971,-0.060380708560988,-0.017089686211931385,0.39478507134137825,700.0,8.866929362892787,0.6384879163534466,9.953064991955074,-0.14360542226835232,0.025,0.9999999999935938,123.73599769579076,1.2070348149209356,243,2026-10-07 21:01:52.839243,25.0,0.6769831822468381,1.362970061643658,1.9507607515667047
0897,cdot_cos,T,S-T,244,48,37021,-0.16379682316992292,-0.12853842440198948,-0.1677409988105689,0.014868577388341676,700.0,8.886308847185802,0.6385049633161478,9.973789773474492,-0.05728367991532077,0.266,0.9999999999934516,5063.760850891551,1.2120024499049709,244,2026-10-07 21:01:53.105243,25.0,0.22159212814926701,0.21617048422889013,0.07285520410908
0897,cdot_cos,P,T-P,245,49,37281,0.055948206954336735,-0.002941763045224985,0.21974503012425967,0.9959039419663099,778.0,8.981932060502556,0.6396459806967569,10.012067279078357,-0.28409138710437476,0.26,0.9999999999934254,-198.77673297840104,1.2169700752297299,245,2026-10-07 21:01:53.365243,25.0,0.4500656643992251,0.24706079117826457,0.3677815896798241
0897,cdot_cos,Q,P-Q,246,49,37391,-0.0029531395963702215,-0.0036470235313592852,-0.05890134655070696,0.1865578149801333,778.0,9.0147804585985,0.6398595470342641,10.035829491704572,-0.0982670936908626,0.11,0.9999999999932857,870.1010448676483,1.2219373750489577,246,2026-10-07 21:01:53.475244,25.0,0.1509189400073873,0.4819752303896943,0.2986218008722119
0897,cdot_cos,R,Q-R,247,49,37423,0.03151592658851071,0.06980196171953801,0.03446906618488094,0.7030212756997727,778.0,9.087966611188289,0.6406638488870334,10.06884759328236,-0.2200130510893881,0.032,0.9999999999932226,-151.3684905478351,1.2269045040434432,247,2026-10-07 21:01:53.507244,25.0,0.5750157262700609,1.7603472375737061,2.28706726843092
0897,cdot_cos,S,R-S,248,49,37451,-0.008326283751958178,-0.05055801751058208,-0.03984221034046889,0.26971771117553506,778.0,9.127442681803217,0.6409722139942725,10.09406540136954,-0.11936698077378337,0.028,0.9999999999931071,326.38605326241134,1.2318716250474142,248,2026-10-07 21:01:53.535244,25.0,0.43034628366421485,1.0628493994163497,1.4098596648188482
0897,cdot_cos,T,S-T,249,49,37720,-0.1616597948266847,-0.03776694950634018,-0.1533335110747265,0.021179018338317247,778.0,9.147486177555605,0.6409964227899133,10.114777848563701,-0.06080342157622453,0.269,0.9999999999929597,2419.1025471278285,1.2368392841406906,249,2026-10-07 21:01:53.804243,25.0,0.38168400248890044,0.2158220491379217,0.0745111366259771
0897,cdot_cos,P,T-P,250,50,38059,0.02033264212606511,-0.0012118184657395681,0.1819924369527498,0.9895413371469993,879.0,9.243554944239419,0.6421267211864122,10.152940472797106,-0.2928750571541854,0.339,0.9999999999929327,-205.31891073790692,1.241807104183022,250,2026-10-07 21:01:54.143244,25.0,0.45276083088777114,0.20540325353053704,0.28338869228263724
0897,cdot_cos,Q,P-Q,251,50,38168,-0.01089743286589305,-0.00952302681461882,-0.03123007499195816,0.3141578624556382,879.0,9.286749583449309,0.6424852368098046,10.178906845747136,-0.13262138812964444,0.109,0.9999999999927998,446.99214920723995,1.2467744068032056,251,2026-10-07 21:01:54.252243,25.0,0.29868832671139783,0.5580399693292035,0.3962810936687164
0897,cdot_cos,R,Q-R,252,50,38193,0.035347292592140055,0.04946302486323781,0.046244725458033105,0.7606266446112466,879.0,9.365207657553185,0.643352599936387,10.212932525129869,-0.24221109015215253,0.025,0.9999999999927405,-126.34812186945595,1.2517415187893361,252,2026-10-07 21:01:54.277244,25.0,0.6360644758762266,2.238549647052004,3.1383229641550514
0897,cdot_cos,S,R-S,253,50,38226,-0.023000023088049572,-0.07521017954133752,-0.058347315680189624,0.18866885611085088,879.0,9.398677065801909,0.6435675989670356,10.236595942629803,-0.10391692207738426,0.033,0.9999999999926065,643.231588801009,1.2567086500960947,253,2026-10-07 21:01:54.310244,25.0,0.2642618779085767,1.107675411604439,1.014224492385573
0897,cdot_cos,T,S-T,254,50,38479,-0.06353930284497379,0.0097088825002141,-0.040539279756924215,0.2662989720799066,879.0,9.438314234719078,0.6438709635260923,10.261641231002875,-0.12349928625271545,0.253,0.9999999999924857,-64.55059956978556,1.2616762915510762,254,2026-10-07 21:01:54.563244,25.0,0.8533695671049378,0.2595922103344152,0.15666865184651804
0897,cdot_cos,P,T-P,255,51,38938,0.03539966344651906,-0.0008723992602744763,0.09893896629149285,0.9222612118948345,859.0,9.530030724231123,0.6449206988381831,10.298584968648319,-0.28737721299854896,0.459,0.9999999999924472,-156.1135696382582,1.266644418707568,255,2026-10-07 21:01:55.022244,25.0,0.5653819678707626,0.14443882328539814,0.1998180599390959
0897,cdot_cos,Q,P-Q,256,51,39009,-0.0024980029408129363,-0.0014151684285836576,-0.037897666387331996,0.2793996158130702,859.0,9.570909074495074,0.6452384422861218,10.323843593071578,-0.1289284889322578,0.071,0.9999999999922924,498.6687376064343,1.2716116365813106,256,2026-10-07 21:01:55.093244,25.0,0.29259497645688876,0.8450572380362672,0.5757514121683167
0897,cdot_cos,R,Q-R,257,51,39066,0.04340596048671999,0.05932862117239244,0.045903963427532925,0.7590721069490932,859.0,9.650028852032273,0.6461010395612187,10.357816245298496,-0.25083211817454143,0.057,0.9999999999922274,-141.32160251560725,1.2765788226024097,257,2026-10-07 21:01:55.150244,25.0,0.6150837204726542,0.9850451804053487,1.3880662725824464
0897,cdot_cos,S,R-S,258,51,39090,-0.017051750927438096,-0.03956440042730205,-0.06045771141415809,0.18072507086150316,859.0,9.683204225061283,0.6463062727914155,10.381244654752315,-0.10576211833364513,0.024,0.9999999999920794,706.8543417738156,1.281545930705967,258,2026-10-07 21:01:55.174243,25.0,0.2536846941100124,1.1271696659519066,1.3823072095420958
0897,cdot_cos,T,S-T,259,51,39358,-0.16000050684916786,0.013653385243436636,-0.14294875592172976,0.0272859324391514,859.0,9.704132995997965,0.6463372542921069,10.401842446899838,-0.06690442338316067,0.268,0.9999999999919118,1254.2224903042704,1.2865136244170143,259,2026-10-07 21:01:55.442244,25.0,0.5594539228631584,0.22190393470899186,0.07809242886821349
0897,cdot_cos,P,T-P,260,52,39797,0.02386243063903284,-0.0015882322981312187,0.1838629374882007,0.9900143802670098,779.0,9.802144734065303,0.6474605219433187,10.440016659726584,-0.31478734013402976,0.439,0.9999999999918764,-220.68018827341712,1.291481735181739,260,2026-10-07 21:01:55.881243,25.0,0.45499833556689706,0.1634463993211148,0.22326136234017865
0897,cdot_cos,Q,P-Q,261,52,39888,-0.004070071690114509,-0.0036977471102800042,-0.02793250232914735,0.3321864615168324,779.0,9.847638934601903,0.6478370555623254,10.466158598920247,-0.1471184598144827,0.091,0.9999999999917192,445.29590946450753,1.2964490032691491,261,2026-10-07 21:01:55.972243,25.0,0.3199193926335703,0.6779505147432655,0.499936269632971
0897,cdot_cos,R,Q-R,262,52,39924,0.03660994128671521,0.06175105842093416,0.040680012976829716,0.734387887336271,779.0,9.925531727748577,0.6486688324654848,10.49965314992567,-0.2531961084703211,0.036,0.9999999999916414,-127.53137079536285,1.3014161377267026,262,2026-10-07 21:01:56.008243,25.0,0.6577341224514319,1.5825001737859417,2.1636886985187216
0897,cdot_cos,S,R-S,263,52,39949,-0.015769632368762786,-0.06280991585860442,-0.05237957365547799,0.21257230833287472,779.0,9.961578947114491,0.648909426427842,10.523573332512687,-0.11781232902228544,0.025,0.9999999999914878,562.7064707759957,1.3063832459147968,263,2026-10-07 21:01:56.033243,25.0,0.3169067202561009,1.2331818436152986,1.4418887746365527
0897,cdot_cos,T,S-T,264,52,40217,-0.1119057930452282,-0.025366551863252144,-0.09613616067646541,0.0829134912208861,779.0,9.987190819929342,0.6490032492192183,10.545085539351476,-0.0839559891175322,0.268,0.9999999999913166,360.8541102659909,1.3113509579337455,264,2026-10-07 21:01:56.301243,25.0,0.6681363892577131,0.23047704333382912,0.0955666896076534
0897,cdot_cos,P,T-P,265,53,40576,0.03858631406231309,0.0008312686890220893,0.1504921071075413,0.9772972031124992,760.0,10.085114642341424,0.6501082645066381,10.583027419112256,-0.3225140438931363,0.359,0.9999999999912746,-215.88665558884298,1.316318901614259,265,2026-10-07 21:01:56.660243,25.0,0.4772653337048276,0.19164224030552315,0.27276830755454406
0897,cdot_cos,Q,P-Q,266,53,40687,-0.004292234668046895,-0.00560059826496113,-0.04287854873035998,0.2550298186655161,760.0,10.124789948468708,0.650396358521461,10.607676235695566,-0.13151719633184708,0.111,0.9999999999911003,662.9670792662571,1.3212862241586083,266,2026-10-07 21:01:56.771244,25.0,0.2340413201449633,0.521987479742038,0.3574351903358947
0897,cdot_cos,R,Q-R,267,53,40716,0.0304874313493626,0.06946702897220214,0.0347796660174095,0.7046399100193792,760.0,10.200995862844156,0.6511917827725294,10.640594299915122,-0.25379047076613714,0.029,0.9999999999910123,-153.7208279356057,1.3262533399056406,267,2026-10-07 21:01:56.800243,25.0,0.6176778225646296,2.045343870655573,2.6277901508775208
0897,cdot_cos,S,R-S,268,53,40746,-0.005909038438735139,-0.07157401483054553,-0.03639646978809774,0.28701789735088284,760.0,10.243419892966731,0.651515538498138,10.665801947269673,-0.14204917784748583,0.03,0.9999999999908626,345.14074680407657,1.3312204591893448,268,2026-10-07 21:01:56.830244,25.0,0.45537315159106645,1.1464330325297332,1.4141343374191706
0897,cdot_cos,T,S-T,269,53,41016,-0.098833820059454,-0.042087229573916564,-0.09292478162071886,0.08922622510326192,760.0,10.26978184479594,0.6516161570542406,10.687332538811871,-0.08855336821925018,0.27,0.9999999999906829,531.6694226233293,1.3361881952966796,269,2026-10-07 21:01:57.100243,25.0,0.5465616716060546,0.2276051025146612,0.09763685862669949
0897,cdot_cos,P,T-P,270,54,41336,0.01825684246441856,0.0013685237526338781,0.11709066252387257,0.9491779781919953,760.0,10.366326648324648,0.6526856868807924,10.724753899092553,-0.32578197787306235,0.32,0.9999999999906334,-221.80644593955472,1.3411560646256497,270,2026-10-07 21:01:57.420243,25.0,0.48278584201473085,0.22198972545363072,0.3017025110272131
0897,cdot_cos,Q,P-Q,271,54,41447,-0.011491739322393089,-0.016747130948667307,-0.02974858178681165,0.3221924097303134,760.0,10.411855269086264,0.6530483825821728,10.750567804284847,-0.15461447182122434,0.111,0.9999999999904654,471.9314439084874,1.3461233931732686,271,2026-10-07 21:01:57.531244,25.0,0.33052927112763764,0.5538777744030186,0.4101677546091483
0897,cdot_cos,R,Q-R,272,54,41482,0.024502845612477626,0.06580968414075503,0.03599458493487072,0.7109216818918436,760.0,10.489287514242118,0.6538480464366837,10.783573124476503,-0.2642281623480617,0.035,0.9999999999903756,-137.07470946511503,1.3510905236982687,272,2026-10-07 21:01:57.566243,25.0,0.6604427450673002,1.7893782737625634,2.2123498615958477
0897,cdot_cos,S,R-S,273,54,41507,-0.0006116531995968896,-0.09519257890686446,-0.025114498812074518,0.3479953740247253,760.0,10.537111748249643,0.6542391646469863,10.809839984314198,-0.16408506826997027,0.025,0.99999999999023,256.04303619772327,1.3560576288103374,273,2026-10-07 21:01:57.591244,25.0,0.5431813439208147,1.5367791583151913,1.9129693603009912
0897,cdot_cos,T,S-T,274,54,41775,-0.0809236681634717,-0.03519013491905871,-0.08031201496387481,0.11838636239432973,760.0,10.566126472157878,0.6543721736835401,10.831821768854219,-0.09989533099221928,0.268,0.9999999999900478,482.59681402773145,1.3610253805469865,274,2026-10-07 21:01:57.859244,25.0,0.5259390516412149,0.2330628773351037,0.10826389517998053
0897,cdot_cos,P,T-P,275,55,42096,0.022806766661086084,0.0016366899685170033,0.10373043482455778,0.9304265993750547,818.0,10.662033450501259,0.6554166814424996,10.8688917785406,-0.33167887573540744,0.321,0.999999999989994,-221.90696311730844,1.3659932781550512,275,2026-10-07 21:01:58.180243,25.0,0.49717205080592747,0.22177693781482555,0.298775633468476
0897,cdot_cos,Q,P-Q,276,55,42185,-0.0058059663666217105,-0.004724031496072577,-0.028612733027707796,0.3284247514098571,818.0,10.708507266234996,0.6557850172687996,10.894755643832331,-0.16171819037752777,0.089,0.9999999999898207,461.42860189627714,1.3709605537810887,276,2026-10-07 21:01:58.269243,25.0,0.34959908192506656,0.6961225168337968,0.5221777048734518
0897,cdot_cos,R,Q-R,277,55,42245,0.028512002554359796,0.06314798510067869,0.034317968920981504,0.7022320102616577,818.0,10.785943258497674,0.6565719580446796,10.927572107544272,-0.27072654403165847,0.06,0.9999999999897279,-138.5216740512982,1.3759277521668447,277,2026-10-07 21:01:58.329243,25.0,0.6685452822396336,0.9984388195982834,1.2905998710446436
0897,cdot_cos,S,R-S,278,55,42267,-0.009902576552643958,-0.06398868852141212,-0.03841457910700376,0.2768052263076544,818.0,10.82831992458679,0.6568819178311024,10.95244731488017,-0.1489162019084899,0.022,0.9999999999895619,392.9875663193893,1.3808948476817733,278,2026-10-07 21:01:58.351244,25.0,0.44132261892811064,1.5581760777959082,1.9262120949597905
0897,cdot_cos,T,S-T,279,55,42535,-0.10702339564339311,-0.018358260888440957,-0.09712081909074916,0.08106079952668338,818.0,10.854503005920694,0.6569726624523751,10.973643950505647,-0.09229045931640639,0.268,0.9999999999893643,624.0121100062827,1.3858626193948294,279,2026-10-07 21:01:58.619244,25.0,0.5414199298788421,0.23373651408325785,0.09769806467874838
0897,cdot_cos,P,T-P,280,56,42914,0.01849349890292399,-0.00103612880274568,0.1255168945463171,0.958430182789669,859.0,10.953602696135416,0.658044719271856,11.011232067895111,-0.3507990408874011,0.379,0.9999999999893143,-241.1332840512594,1.3908307022136042,280,2026-10-07 21:01:58.998244,25.0,0.47858875815699875,0.1956263401498768,0.26147675518396213
0897,cdot_cos,Q,P-Q,281,56,43024,-0.005227457182622297,-0.005415513754782999,-0.023720956085546287,0.35594133192588495,859.0,11.002787771754301,0.6584424491619624,11.037545782419508,-0.17519418410960322,0.11,0.9999999999891335,441.5178771976352,1.3957980401978844,281,2026-10-07 21:01:59.108243,25.0,0.36701810493631465,0.5924459375189706,0.4471370510807724
0897,cdot_cos,R,Q-R,282,56,43050,0.036278353274603034,0.05415566404375674,0.04150581045722533,0.7383954022163102,859.0,11.08394080238959,0.6592668234535008,11.07101190243612,-0.29043919762940645,0.026,0.9999999999890399,-139.79695231001065,1.400765143978563,282,2026-10-07 21:01:59.134243,25.0,0.6724714234636477,2.2640001854278364,3.12127040904956
0897,cdot_cos,S,R-S,283,56,43082,-0.01849428680714494,-0.052262232358340675,-0.054772640081747974,0.20273037907006536,859.0,11.120515781396549,0.6594929915416837,11.094428661568465,-0.1315540882593224,0.032,0.9999999999888521,702.508964224925,1.405732265698839,283,2026-10-07 21:01:59.166244,25.0,0.2988674809279042,1.0091616845575024,1.142968093967467
0897,cdot_cos,T,S-T,284,56,43334,-0.10632770018316162,0.006708699945600094,-0.08783341337601669,0.10012510136257545,859.0,11.14852715020127,0.6596046653397037,11.115894770324184,-0.1010292928840362,0.252,0.9999999999886463,273.33892028830775,1.410700011813918,284,2026-10-07 21:01:59.418243,25.0,0.7392359929211275,0.25456019819451087,0.11115622541556038
0897,cdot_cos,P,T-P,285,57,43773,0.022989530991824055,-0.001324484791745203,0.12931723117498567,0.962054886857223,801.0,11.248814121286582,0.6606767813163225,11.153547917120875,-0.36323438685232795,0.439,0.9999999999885952,-244.5678449781574,1.4156682961605798,285,2026-10-07 21:01:59.857243,25.0,0.4858467758861247,0.16881799423228222,0.2284441254790712
0897,cdot_cos,Q,P-Q,286,57,43882,-0.004285808078658496,-0.004987458859157442,-0.02727533907048255,0.3358410598233871,801.0,11.296749349137214,0.6610506563428765,11.179422630357283,-0.17467432179564138,0.109,0.9999999999883958,504.3398239101745,1.4206356364788375,286,2026-10-07 21:01:59.966244,25.0,0.3397670490371225,0.5920103845123827,0.43977273257460125
0897,cdot_cos,R,Q-R,287,57,43906,0.03540512887636873,0.059592417248436946,0.03969093695502723,0.7295367321922314,801.0,11.377872385110281,0.6618621205725939,11.212697300947953,-0.2969538522452347,0.024,0.9999999999882928,-150.68998234486233,1.4256027321333853,287,2026-10-07 21:01:59.990243,25.0,0.6624702863609535,2.4759914672972303,3.38012649887783
0897,cdot_cos,S,R-S,288,57,43940,-0.016971192035408405,-0.06356240825093729,-0.05237632091177713,0.212585920189819,801.0,11.41559693956748,0.6620984012028542,11.236224374020349,-0.1387685793851726,0.034,0.9999999999880945,669.4804931142461,1.4305698579491806,288,2026-10-07 21:02:00.024243,25.0,0.31984416156744727,1.0785426435171832,1.1095457193293863
0897,cdot_cos,T,S-T,289,57,44193,-0.07568037278252664,-0.011862236033476841,-0.05870918074711823,0.18728796126382483,801.0,11.45121328486945,0.6623064971708637,11.259252403844345,-0.1313955064088837,0.253,0.9999999999878939,35.431118857407846,1.435537625502375,289,2026-10-07 21:02:00.277244,25.0,0.9454317425038212,0.26401836993821165,0.14077606838723056
0897,cdot_cos,P,T-P,290,58,44574,0.024373413322676386,0.0019122518489631008,0.10005378610520302,0.9242360313804234,758.0,11.549190234756216,0.6633324961012874,11.29618812492512,-0.3630238118155652,0.381,0.9999999999878293,-225.7588176149585,1.4405057748004777,290,2026-10-07 21:02:00.658243,25.0,0.5283202470009289,0.18994197670019605,0.2571573487841621
0897,cdot_cos,Q,P-Q,291,58,44663,-0.006335877424624386,-0.005759121566531252,-0.03070929074730077,0.3169698661194398,758.0,11.595949071115,0.6636840122058205,11.321645225224719,-0.17425127300061402,0.089,0.9999999999876197,537.0238699751391,1.4454730615688036,291,2026-10-07 21:02:00.747243,25.0,0.338464791113064,0.7039992143424341,0.5253801838065578
0897,cdot_cos,R,Q-R,292,58,44719,0.02584256605176044,0.06870791033069408,0.03217844347638483,0.6909279412428833,758.0,11.674502094909169,0.664449615574935,11.354164313460837,-0.29398881519873254,0.056,0.9999999999875049,-156.39631045068802,1.450440251290206,292,2026-10-07 21:02:00.803244,25.0,0.6654538124748496,1.123249131255626,1.402732567753029
0897,cdot_cos,S,R-S,293,58,44744,-0.004158164747251608,-0.07256437388986767,-0.030000730799012047,0.32081731990148477,758.0,11.72175297381563,0.6648048133600399,11.379669804740763,-0.17770176748354521,0.025,0.9999999999873188,327.38674786732275,1.455407348930489,293,2026-10-07 21:02:00.828243,25.0,0.5197567138268843,1.6713165136228625,1.8900351562584206
0897,cdot_cos,T,S-T,294,58,45013,-0.061710978249576005,-0.031671882952056404,-0.0575528135023244,0.1917280925219929,758.0,11.758067920590312,0.6650169990175601,11.402710652863554,-0.13701859200883393,0.269,0.9999999999871095,191.7338615163119,1.4603751846932032,294,2026-10-07 21:02:01.097243,25.0,0.7431055455291598,0.24785650839285303,0.1349998021363666
0897,cdot_cos,P,T-P,295,59,45332,0.02758332129528487,-0.001927253300773571,0.08929429954486087,0.903117826000601,699.0,11.855099775330984,0.6660155824784257,11.439238616255572,-0.367639665933701,0.319,0.9999999999870353,-230.9482211180833,1.4653431769726857,295,2026-10-07 21:02:01.416243,25.0,0.5340307084166337,0.22412418234139073,0.3041750932309477
0897,cdot_cos,Q,P-Q,296,59,45442,-0.005773534925226804,-0.008714730687451341,-0.033356856220511676,0.3028165486138585,699.0,11.90105914892412,0.6663500763914743,11.464366672240095,-0.17510048866714822,0.11,0.9999999999868191,575.6133961057336,1.4703105328211121,296,2026-10-07 21:02:01.526243,25.0,0.3330067692729401,0.5751767854119177,0.4178124872103178
0897,cdot_cos,R,Q-R,297,59,45468,0.029396176906470752,0.07710312416788281,0.03516971183169756,0.7066652852084095,699.0,11.981638668121606,0.6671300139137182,11.497157250909465,-0.3082736348012872,0.026,0.9999999999867022,-170.7484796358977,1.4752776312717495,297,2026-10-07 21:02:01.552243,25.0,0.6492116176322253,2.4382843062292516,3.099212276826422
0897,cdot_cos,S,R-S,298,59,45500,-0.0037576114896687917,-0.07212361045443938,-0.03315378839613954,0.30388940559157623,699.0,12.02784993284804,0.667465131779197,11.52228142321015,-0.17763971958898486,0.032,0.9999999999865071,389.8148343289926,1.4802447494102449,298,2026-10-07 21:02:01.584243,25.0,0.4793199944155984,1.364225084921039,1.444102022701066
0897,cdot_cos,T,S-T,299,59,45751,-0.04904790713807094,-0.03163486166434271,-0.045290295648402146,0.243744747986196,699.0,12.068949073556553,0.6677338019654625,11.546243613219124,-0.15849853694064595,0.251,0.999999999986302,71.24416339005883,1.4852125510665277,299,2026-10-07 21:02:01.835244,25.0,0.886241604676471,0.28015437605543747,0.16374159644825656
0897,cdot_cos,P,T-P,300,60,46031,0.05004612777058239,-0.001457493102134484,0.09909403490865333,0.9225387002332138,681.0,12.16848742962787,0.6687496908616644,11.583132090336983,-0.385513973831631,0.28,0.9999999999862327,-223.46482744297808,1.490180448255328,300,2026-10-07 21:02:02.115244,25.0,0.5549571622740055,0.24481658012719873,0.3554941288261329
0897,cdot_cos,Q,P-Q,301,60,46141,-0.005245592044016057,-0.008526629714626066,-0.05529171981459845,0.20064098711272038,681.0,12.206046358427784,0.6689704267803582,11.606251835998542,-0.14624024779990472,0.11,0.9999999999859907,1083.9818342549177,1.4951478114325703,301,2026-10-07 21:02:02.225244,25.0,0.19472465036584405,0.5259561945441376,0.3414448072719461
0897,cdot_cos,R,Q-R,302,60,46170,0.023201134601804292,0.07538303903071658,0.028446726645820347,0.6706592304243288,681.0,12.28419779242758,0.6697077151176878,11.638328277166437,-0.30539150132501136,0.029,0.9999999999858654,-215.86026180957836,1.5001149186827345,302,2026-10-07 21:02:02.254244,25.0,0.5938441014064324,2.2443827343350877,2.6948770344757302
0897,cdot_cos,S,R-S,303,60,46201,0.0013369334705610665,-0.06871793627009894,-0.021864201131243224,0.3666524264721923,681.0,12.33622055701922,0.6701104418896954,11.664591257716635,-0.2042430115016582,0.031,0.9999999999856798,251.15909061403832,1.505082033436985,303,2026-10-07 21:02:02.285243,25.0,0.6094270721623273,1.269324129116522,1.6781536965044808
0897,cdot_cos,T,S-T,304,60,46452,-0.10023229741600188,-0.09108000145757948,-0.10156923088656294,0.07315331141292256,681.0,12.362895888432805,0.6701907628016318,11.6852243069488,-0.10505012898567725,0.251,0.9999999999854302,1234.957125418066,1.5100498548033148,304,2026-10-07 21:02:02.536243,25.0,0.38897378842210817,0.2610354644407824,0.10627622077125684
0897,cdot_cos,P,T-P,305,61,46712,0.037232441587148356,0.0029625065170373706,0.13746473900315023,0.9688295594307127,719.0,12.467260360168492,0.6712535805158949,11.722989764852208,-0.41249887397814106,0.26,0.9999999999853734,-289.27702358220085,1.5150177092389896,305,2026-10-07 21:02:02.796243,25.0,0.4745765598564712,0.2838652848571697,0.4014018143680281
0897,cdot_cos,Q,P-Q,306,61,46840,-0.004061077214723666,-0.008518000667907661,-0.04129351880187202,0.2626310910382741,719.0,12.510505836558533,0.671541388770027,11.747227543855223,-0.1718664959685997,0.128,0.9999999999851417,836.0857430415823,1.5199851380813374,306,2026-10-07 21:02:02.924243,25.0,0.24656929698060048,0.46324099471807545,0.3378552842971949
0897,cdot_cos,R,Q-R,307,61,46867,0.017400089553619793,0.07275988025414218,0.02146116676834346,0.631004645290736,719.0,12.58585005481632,0.6722323580387861,11.778513783457583,-0.3005309315843676,0.027,0.9999999999850052,-186.20862234123956,1.5249522382469047,307,2026-10-07 21:02:02.951244,25.0,0.6517307446926921,2.4545264496983012,2.7905266021402357
0897,cdot_cos,S,R-S,308,61,46899,0.0046893682187739375,-0.06994112099568732,-0.012710721334845855,0.4212197913188528,719.0,12.643050264842241,0.6726931916671475,11.80576894271269,-0.22919824005763967,0.032,0.9999999999848289,154.7905515931518,1.5299193559866042,308,2026-10-07 21:02:02.983244,25.0,0.7325475339595517,1.3350426532970083,1.7875065633100595
0897,cdot_cos,T,S-T,309,61,47151,-0.08855145612943373,-0.064324988028632,-0.09324082434820767,0.08858622602033314,719.0,12.671292784627328,0.6727900666857743,11.826621491737647,-0.11353248660014915,0.252,0.9999999999845761,1193.9688383750533,1.5348872011104204,309,2026-10-07 21:02:03.235244,25.0,0.3610315513700656,0.264287604252022,0.11207349121066122
0897,cdot_cos,P,T-P,310,62,47431,0.04511280054600097,0.0010813855846089407,0.1336642566754347,0.965828899277385,720.0,12.77625121738526,0.6738453087423789,11.864323249849216,-0.4234381165048884,0.28,0.9999999999845197,-293.6820305493861,1.5398551434604857,310,2026-10-07 21:02:03.515244,25.0,0.48100414627174665,0.25951483514626045,0.37485154556404454
0897,cdot_cos,Q,P-Q,311,62,47521,-0.0041859758233211315,-0.004162560184241743,-0.0492987763693221,0.2257495136248091,720.0,12.816621092309234,0.6740917040875576,11.8877900986131,-0.16373229624937977,0.09,0.9999999999842714,1054.020805738772,1.5448224536223638,311,2026-10-07 21:02:03.605243,25.0,0.20470993991168174,0.6596730810951061,0.44855416582192636
0897,cdot_cos,R,Q-R,312,62,47579,0.0220915767457788,0.07993585327425672,0.026277552569099933,0.6585724006558759,720.0,12.89499237198238,0.6748099560391946,11.919573982115596,-0.3189686373827881,0.058,0.9999999999841429,-216.13076132908995,1.5497896576341184,312,2026-10-07 21:02:03.663244,25.0,0.6146623744353733,1.1288475336012034,1.3512289598818228
0897,cdot_cos,S,R-S,313,62,47602,-0.00035088228449355394,-0.05085569426990975,-0.022442459030272355,0.36330189030187116,720.0,12.947567406206973,0.6752058289796047,11.945664338269749,-0.21493283338978203,0.023,0.9999999999839457,262.80099843457526,1.5547567444754404,313,2026-10-07 21:02:03.686244,25.0,0.6162893661589962,1.6415759207004956,2.2858710532432114
0897,cdot_cos,T,S-T,314,62,47870,-0.14559350450931027,-0.10010131492439706,-0.1452426222248167,0.025804438441695367,720.0,12.970504864334602,0.6752339373458047,11.965229661272108,-0.09404099633339365,0.268,0.9999999999836704,4300.920096032128,1.5597246635162667,314,2026-10-07 21:02:03.954243,25.0,0.27650601163226207,0.24385436761986842,0.08558753032697361
0897,cdot_cos,P,T-P,315,63,48151,0.031862663303544154,0.0003579370202092732,0.17745616781285442,0.9883000779552585,718.0,13.078273347251223,0.6763095253826059,12.003358149544487,-0.4432996065532665,0.281,0.999999999983619,-324.71410825521247,1.5646926311700877,315,2026-10-07 21:02:04.235244,25.0,0.45481646577307394,0.25036855827215015,0.38351773279936135
0897,cdot_cos,Q,P-Q,316,63,48280,-0.04139489188078367,-0.04291280058309147,-0.07325755518432783,0.13806695087893361,718.0,13.11121199408355,0.6764596386806061,12.025065537155042,-0.13619049532930771,0.129,0.9999999999833409,2045.848804304969,1.5696600798671605,316,2026-10-07 21:02:04.364243,25.0,0.10487389468243316,0.48742328317382305,0.25533834753742507
0897,cdot_cos,R,Q-R,317,63,48298,0.01794541949740044,0.06294337974609836,0.059340311378184116,0.8151018262828321,718.0,13.204028554310069,0.6773451171349808,12.05984332767274,-0.3850559764156556,0.018,0.9999999999832448,-281.05198930231427,1.5746271468830957,317,2026-10-07 21:02:04.382244,25.0,0.5239757481651642,4.347895038037909,5.156475568139918
0897,cdot_cos,S,R-S,318,63,48322,0.015432960678149685,-0.10941408053571319,-0.002512458819250756,0.48430229302888,718.0,13.267736215452915,0.6778706330308829,12.088221330961133,-0.26564077127589314,0.024,0.9999999999830769,227.23423986019094,1.5795942359223085,318,2026-10-07 21:02:04.406244,25.0,0.6379238026460786,1.882056214569864,2.6544858809519254
0897,cdot_cos,T,S-T,319,63,48589,-0.09106556324309,-0.06452311196667829,-0.10649852392123968,0.06522499570551736,718.0,13.294367252609423,0.6779413742764796,12.108476454600806,-0.11140935941217292,0.267,0.9999999999828035,2180.219058383756,1.5845621747584613,319,2026-10-07 21:02:04.673243,25.0,0.2504823696644332,0.2483711026280241,0.09974171219665645
0897,cdot_cos,P,T-P,320,64,48869,0.03458518174594082,-5.5998297922134873e-05,0.1256507449890308,0.9585632994164298,701.0,13.40036638425628,0.6789800638992782,12.146022001889984,-0.4448971560347334,0.28,0.9999999999827441,-321.06587887536284,1.5895301635408516,320,2026-10-07 21:02:04.953243,25.0,0.47256309086844284,0.24901188208214756,0.3785683273102056
0897,cdot_cos,Q,P-Q,321,64,48980,-0.03779694368264296,-0.03930953963671747,-0.07238212542858379,0.1406921419975201,701.0,13.433813906575425,0.679132367814633,12.167715197977193,-0.14108352214880054,0.111,0.9999999999824588,1994.7854470987074,1.5944975578971872,321,2026-10-07 21:02:05.064243,25.0,0.11608518241091603,0.5671961514778333,0.30132902990220767
0897,cdot_cos,R,Q-R,322,64,49012,0.01837136926865735,0.06366089955959156,0.056168312951300314,0.8028507577117313,701.0,13.52628392988436,0.680000750168245,12.202236099082178,-0.39131230062903244,0.032,0.9999999999823608,-288.1550706775918,1.5994646731549131,322,2026-10-07 21:02:05.096244,25.0,0.5275769493542106,2.4035821762016796,2.889688228404186
0897,cdot_cos,S,R-S,323,64,49041,0.010707219286943846,-0.09719769442815099,-0.0076641499817135025,0.4522450715316404,701.0,13.587643165852333,0.680489360871824,12.229950310517602,-0.26092880054725065,0.029,0.999999999982179,266.8453620167331,1.6044317789634004,323,2026-10-07 21:02:05.125243,25.0,0.6067187418797816,1.5968005100832934,2.1158357230335705
0897,cdot_cos,T,S-T,324,64,49310,-0.07111201633529647,-0.061684629119214754,-0.08181923562224032,0.11450980918260029,701.0,13.61889835946919,0.6806130157617319,12.251093221754244,-0.13333886807078438,0.269,0.9999999999819106,1031.8227817067464,1.6093997480385913,324,2026-10-07 21:02:05.394243,25.0,0.3840875441661023,0.25312979785664796,0.11619031084333631
0897,cdot_cos,P,T-P,325,65,49570,0.03700643501317162,0.000716058859752781,0.10811845134846809,0.937201156546109,717.0,13.72382699709921,0.6816241085968535,12.28821338628739,-0.4491212014346856,0.26,0.9999999999818447,-312.3178430256915,1.6143676889387388,325,2026-10-07 21:02:05.654243,25.0,0.4950425229241553,0.28480659292263305,0.4035716831923813
0897,cdot_cos,Q,P-Q,326,65,49659,-0.007780790189165712,-0.007695209899730183,-0.044787225202337334,0.2460705282011022,717.0,13.76699778778896,0.6818892971653874,12.31189293294233,-0.1857005582848409,0.089,0.9999999999815822,993.3333273233156,1.6193350111711644,326,2026-10-07 21:02:05.743244,25.0,0.24207112267720826,0.7014988677569769,0.48506506392977583
0897,cdot_cos,R,Q-R,327,65,49717,0.021386772245062413,0.07572273679666403,0.029167562434228127,0.6746272923489629,717.0,13.848693795559951,0.6826157335128945,12.34389815969319,-0.35258281807953495,0.058,0.999999999981451,-229.72729870603817,1.6243022216393392,327,2026-10-07 21:02:05.801243,25.0,0.6229346584171429,1.2111997441801197,1.408551858120549
0897,cdot_cos,S,R-S,328,65,49740,0.008221722218277055,-0.0927309748333662,-0.013165050026785358,0.41845323500460613,717.0,13.907496958113853,0.6830658761824695,12.370910688495176,-0.25487960396240505,0.023,0.9999999999812539,217.04943947965958,1.6292693047348856,328,2026-10-07 21:02:05.824243,25.0,0.6815873617885667,1.9248183130769794,2.5566592414740024
0897,cdot_cos,T,S-T,329,65,50008,-0.08196429888781526,-0.056107113050653676,-0.0901860211060923,0.09494907413562073,717.0,13.937235437961492,0.6831679680991839,12.391606125602502,-0.12928919055761356,0.268,0.9999999999809731,1230.1700021572833,1.634237292959939,329,2026-10-07 21:02:06.092243,25.0,0.37855593239497276,0.25465274701486074,0.1109644770434291
0897,cdot_cos,P,T-P,330,66,50287,0.03456283002763648,-0.0024749362923234255,0.11652712891545174,0.9484940520308408,761.0,14.043990830513819,0.6841868463797388,12.428933917515923,-0.4655903766633111,0.279,0.9999999999809107,-330.0700314492299,1.639205326446869,330,2026-10-07 21:02:06.371244,25.0,0.48562852891835545,0.2734762157446902,0.38263581559973603
0897,cdot_cos,Q,P-Q,331,66,50398,-0.004826495202969043,-0.00626777289227673,-0.039389325230605524,0.2719536372537878,761.0,14.08983516634703,0.6844786550783916,12.453061523911476,-0.2009306929701124,0.111,0.9999999999806476,906.9629689419932,1.6441727360347718,331,2026-10-07 21:02:06.482244,25.0,0.2678926284837148,0.5991898403768422,0.41301203453343055
0897,cdot_cos,R,Q-R,332,66,50424,0.03459450740453769,0.07119619106933066,0.039421002607506736,0.7282031333678923,761.0,14.177010975077478,0.685259307230565,12.486083036098842,-0.3833749502696312,0.026,0.9999999999805256,-233.7074928847095,1.6491398280838656,332,2026-10-07 21:02:06.508243,25.0,0.6213319024328109,2.511979676275162,3.3529157204018527
0897,cdot_cos,S,R-S,333,66,50456,-0.010650083389000153,-0.06256654968106105,-0.04524459079353785,0.24395543275851614,761.0,14.220458109513338,0.6855205999633132,12.509641291085076,-0.19186541107772592,0.032,0.9999999999802751,732.9309819593198,1.654106943876573,333,2026-10-07 21:02:06.540244,25.0,0.3685624170039767,1.0958617333199083,1.3577229511206323
0897,cdot_cos,T,S-T,334,66,50708,-0.12145612989464025,-0.03471373180838645,-0.11080604650564009,0.058958626023422556,761.0,14.247146126009952,0.6855837310119076,12.529564178025716,-0.11813449937597714,0.252,0.9999999999799744,1167.9025351754385,1.6590748929686046,334,2026-10-07 21:02:06.792243,25.0,0.5357290018937438,0.27066627644753033,0.10590482736751547
0897,cdot_cos,P,T-P,335,67,51048,0.02112537079842951,0.001268108055329322,0.14258150069306977,0.9724693202427218,859.0,14.356873912842893,0.6866240295002054,12.567348532385433,-0.48715903120100207,0.34,0.9999999999799203,-354.7294704127181,1.6640431814747165,335,2026-10-07 21:02:07.132244,25.0,0.46883554895118434,0.23900770896395182,0.32272878480276873
0897,cdot_cos,Q,P-Q,336,67,51159,-0.004583868153306286,-0.004807086726387448,-0.025709238951735797,0.3446294602142448,859.0,14.409671368105439,0.6869922473162482,12.59284280218334,-0.23558657212146028,0.111,0.9999999999796645,683.2164227770689,1.6690105975108234,336,2026-10-07 21:02:07.243244,25.0,0.34374482673626355,0.626943360504663,0.4756527501130258
0897,cdot_cos,R,Q-R,337,67,51194,0.03168890964412415,0.05871927858216322,0.03627277779743043,0.7123488821427275,859.0,14.496055338874928,0.6877526059946368,12.625526833828006,-0.3868036571233434,0.035,0.9999999999795322,-198.87599010817374,1.6739777225937802,337,2026-10-07 21:02:07.278244,25.0,0.6764206293949837,1.8568164486049301,2.468113450556838
0897,cdot_cos,S,R-S,338,67,51219,-0.013975376664451939,-0.05967870785654275,-0.045664286308576094,0.24202540711876067,859.0,14.539648519507784,0.6880107134175957,12.648990389786034,-0.1959877499412747,0.025,0.99999999997927,739.2887232557288,1.6789448100526958,338,2026-10-07 21:02:07.303244,25.0,0.3777164874982965,1.4706254080086367,1.743727225314231
0897,cdot_cos,T,S-T,339,67,51488,-0.10538578787854404,-0.001546570263208395,-0.0914104112140921,0.09235107750885292,859.0,14.56958660927536,0.6881091702642165,12.669500795362238,-0.13491448777629464,0.269,0.9999999999789679,620.3048773256056,1.6839128455091823,339,2026-10-07 21:02:07.572243,25.0,0.6359207860188513,0.2584383580730068,0.11129401400585895
