record_id,input,event,transition,event_index,k,peak,value_cos,value_sin,value_return,x_input,rr,knowledge,decision,decision_norm,entropy,delta_t,cosine_similarity,delta_h_over_delta_d,frobenius_norm,matrix_size,timestamp,scale,P,zdot,zdot_back
0229,cdot_cos,Q,P-Q,1,0,1023,-0.03693079245634303,-0.029533277217242675,-0.07697036633334908,0.005385790494285692,839.0,2.6751983636650655e-05,0.5000066879959087,0.5000066879959087,,,1.0,,0.004967141530112327,1,2026-10-08 00:31:17.107244,67.8,,,
0229,cdot_cos,R,Q-R,2,0,1073,0.01372755265542642,0.03324688838119146,0.05065834511176945,0.9687696292042066,839.0,0.006843051107286483,0.5012096896002198,0.7088175406254401,-8.444519433749044e-06,,1.0,,0.009934283060224654,2,2026-10-08 00:31:17.157243,67.8,,,
0229,cdot_cos,S,R-S,3,0,1090,-0.020142857684185007,-0.12004202553241293,-0.033870410339611426,0.0914204026263788,839.0,0.00916751269204841,0.5013232133910508,0.8683172766069941,-6.7113595966822946e-06,0.017,1.0,0.015266930608822454,0.014901424592433932,3,2026-10-08 00:31:17.174243,67.8,0.7724077213501771,0.11008108680500264,0.13673303439776047
0229,cdot_cos,T,S-T,4,0,1333,-0.19385829279057104,0.02601583874631086,-0.17371543510638604,7.672146137606345e-06,839.0,0.010585808058656573,0.5013232229181429,1.0026464458363553,-5.0522904561805756e-06,0.243,1.0,174.14223778233472,0.019868566158907613,4,2026-10-08 00:31:17.417243,67.8,0.7200896187446725,0.02834289266649026,0.00583660644694717
0229,cdot_cos,P,T-P,5,1,1753,0.048693489329291774,0.0020060431435154,0.2425517821198628,0.9999999278855142,859.0,0.022942158527962678,0.5025649887992646,1.1237694780680976,-7.47085926930548e-05,0.42,0.9999999999999998,-0.056094553164847794,0.024835707813474182,5,2026-10-08 00:31:17.837244,67.8,0.39361839931976833,0.01741423323220059,0.02941988206977644
0229,cdot_cos,Q,P-Q,6,1,1882,-0.02496975745481225,-0.024937432155150267,-0.07366324678410402,0.0067303961124967155,859.0,0.025213763973705068,0.5025733462861113,1.2310482567285066,-1.9726755237424615e-05,0.129,1.0,6.578752496322018,0.029802849398656073,6,2026-10-08 00:31:17.966244,67.8,0.061595228870546234,0.06406216365216058,0.017609344540638686
0229,cdot_cos,R,Q-R,7,1,1929,0.013430765741389876,0.0413578880365399,0.03840052319620212,0.9310900535888607,859.0,0.03947019675022011,0.5037295138574025,1.3327430217165463,-0.00016629066257439675,0.047,1.0,-0.1267670110944971,0.03476999094246653,7,2026-10-08 00:31:18.013243,67.8,0.41421428579133235,0.20372889400512062,0.3033283569471285
0229,cdot_cos,S,R-S,8,1,1947,-0.011653016691424581,-0.0997312825310319,-0.025083782432814457,0.15437641543447034,859.0,0.044364280010186406,0.5039212050101366,1.4253044049924257,-7.398639250448587e-05,0.018,0.9999999999999998,0.48152597943813347,0.039737132470332386,8,2026-10-08 00:31:18.031244,67.8,0.28719771065479727,0.21070105257207525,0.2718935144425722
0229,cdot_cos,T,S-T,9,1,2173,-0.22162681817720978,0.027130994497312322,-0.2099738014857852,6.565779613049261e-07,859.0,0.047055434642814815,0.5039212058254153,1.5117636174842326,-4.43645779979823e-05,0.226,0.9999999999999998,36333.35850981045,0.04470427433319106,9,2026-10-08 00:31:18.257244,67.8,0.5128916507621881,0.046336247411403575,0.01190776386118765
0229,cdot_cos,P,T-P,10,2,2612,0.04752551792691073,0.004572970365825655,0.2691523361041205,0.9999999881214122,899.0,0.06530826384014082,0.5051628880817224,1.5974653157548009,-0.0003698234620381341,0.439,1.0,-0.2621112465665047,0.049671416735158264,10,2026-10-08 00:31:18.696243,67.8,0.41476694369553707,0.024589101574193657,0.0415781986271663
0229,cdot_cos,Q,P-Q,11,2,2741,-0.02176654540446241,-0.02243202516907857,-0.06929206333137314,0.009031163375042112,899.0,0.06864466582495685,0.5051741016500528,1.6754729490468219,-8.05876757282365e-05,0.129,1.0000000000000002,25.793376183791235,0.05463855849837969,11,2026-10-08 00:31:18.825243,67.8,0.027623673918606925,0.08597561146823353,0.02586358127764359
0229,cdot_cos,R,Q-R,12,2,2796,0.01382836417297088,0.040841921743516946,0.03559490957743329,0.9178385182981149,899.0,0.08748997159894507,0.5063137091982393,1.753922137883811,-0.0005305395259491279,0.055,0.9999999999999998,-0.39483052822609427,0.05960570008070419,12,2026-10-08 00:31:18.880243,67.8,0.4282267605363509,0.2275856423905724,0.3426419231634223
0229,cdot_cos,S,R-S,13,2,2813,-0.012211196770408021,-0.08980212162843017,-0.0260395609433789,0.14610505765617815,899.0,0.09367908648791981,0.5064951105545046,1.8261940919649677,-0.0002021733146263052,0.017,1.0000000000000002,1.8101640367150789,0.06457284155324051,13,2026-10-08 00:31:18.897243,67.8,0.19707286083509476,0.2860415227382513,0.36406558170439624
0229,cdot_cos,T,S-T,14,2,3052,-0.25914175617876856,0.005022776330579344,-0.24693055940836053,5.359060942691936e-08,899.0,0.09721538337204562,0.5064951106210414,1.895131172110759,-0.00012171758473548116,0.239,1.0,1209191.8878581582,0.06953998405118621,14,2026-10-08 00:31:19.136243,67.8,0.5163330176036219,0.054782535698748726,0.014796221272492924
0229,cdot_cos,P,T-P,15,3,3511,0.06787814584776278,0.002420560316927889,0.3270199020265313,0.9999999997651208,639.0,0.1198651385519217,0.5077366438499971,1.9664555660533714,-0.0008864718085138524,0.459,1.0000000000000002,-0.6159756387846597,0.07450712790476444,15,2026-10-08 00:31:19.595244,67.8,0.42202346866542806,0.029025263164563806,0.049345871851581874
0229,cdot_cos,Q,P-Q,16,3,3640,-0.016615431197472337,-0.02870962565224085,-0.08449357704523511,0.0032408790774844784,639.0,0.1238605749571152,0.5077406673622101,2.030962669757965,-0.00017556826779905447,0.129,1.0,176.6873077719512,0.07947426996594929,16,2026-10-08 00:31:19.724244,67.8,0.017437061916862874,0.08404793115235122,0.0309723752340581
0229,cdot_cos,R,Q-R,17,3,3685,-0.0056613124448103595,0.06530697369067877,0.010954118752661977,0.6775836413509341,639.0,0.14154950478922831,0.5085818564514077,2.096936713774789,-0.0008463998245247374,0.045,0.9999999999999998,-0.7974800973293293,0.08444141150005677,17,2026-10-08 00:31:19.769243,67.8,0.45267967217719335,0.4671722326156412,0.3930873296025138
0229,cdot_cos,S,R-S,18,3,3702,0.04161857255620666,-0.1118663333343131,0.047279885001017014,0.9610435811968027,639.0,0.1659060758925229,0.5097748636132313,2.1627915779984135,-0.0013499480799277503,0.017,0.9999999999999997,-0.42208317897548175,0.08940855288162934,18,2026-10-08 00:31:19.786243,67.8,0.6886562433892276,0.8500830378250664,1.4327394766643875
0229,cdot_cos,T,S-T,19,3,3931,-0.15366096596527118,-0.2962106527474351,-0.19527953852147784,1.7781190072930857e-06,639.0,0.17045232807528057,0.5097748658204296,2.222057124442543,-0.0002756603746104784,0.229,0.9999999999999999,486720.0645205026,0.09437569653701863,19,2026-10-08 00:31:20.015244,67.8,0.020299839561658737,0.06809526806361298,0.01985262961902913
0229,cdot_cos,P,T-P,20,4,4150,0.006627748983753769,-0.0002331409041087603,0.16028871494902494,0.9999809338098351,1199.0,0.19709370866565765,0.5110160901193417,2.2853334309145126,-0.0017649896286199322,0.219,1.0000000000000004,-1.1998872849289808,0.0993428402948245,20,2026-10-08 00:31:20.234244,67.8,0.4300655814642024,0.07194535634805159,0.12165013968208709
0229,cdot_cos,Q,P-Q,21,4,4286,-0.1231248533697044,-0.06274805636484722,-0.12975260235345817,0.0001511288793022638,1199.0,0.20196439415572717,0.5110162776978754,2.3417707749351337,-0.00035034820797306694,0.136,0.9999999999999999,7541.59547310379,0.10430998318814669,21,2026-10-08 00:31:20.370244,67.8,0.017635956309150953,0.12102708913618307,0.03581386389757004
0229,cdot_cos,R,Q-R,22,4,4346,0.01474690838125755,0.3611638290218768,0.13787176175096194,0.9999128424021161,1199.0,0.23001307691069944,0.512257281645495,2.4026996281643016,-0.0021837204754653174,0.06,0.9999999999999998,-1.4773299238965907,0.10927712511359523,22,2026-10-08 00:31:20.430244,67.8,0.43189895436965303,0.37086027213618206,0.4674780459162045
0229,cdot_cos,S,R-S,23,4,4360,0.013195818182123262,0.36266419944891504,-0.001551090199134287,0.4737332246691794,1199.0,0.24646762681206902,0.512845185879159,2.4595191103512835,-0.0014129576646595685,0.014,1.0,1.3110346322940798,0.11424426639061543,23,2026-10-08 00:31:20.444243,67.8,0.5795542299275338,0.9519622047196863,1.1753249929549696
0229,cdot_cos,T,S-T,24,4,4470,-0.007127732260956998,0.356837113969273,-0.02032355044308026,0.20134057598524638,1199.0,0.25666801864285066,0.51309503941963,2.513642073609923,-0.0009248866266893412,0.11,0.9999999999999998,1.9534285447791406,0.11921140951273806,24,2026-10-08 00:31:20.554244,67.8,0.5899549833362453,0.18079647551245592,0.09273083482528764
0229,cdot_cos,P,T-P,25,5,5349,0.04864117488345162,-0.0035794178916050733,0.055768907144408617,0.9777112410699679,899.0,0.2862428514248093,0.5143082346284619,2.571541174843362,-0.0028932075942319203,0.879,1.0,-1.622427250959672,0.12417856888809145,25,2026-10-08 00:31:21.433243,67.8,0.5064524541952969,0.020176360421137084,0.03364599861428744
0229,cdot_cos,Q,P-Q,26,5,5443,-0.020799193878041307,-0.014057675894009938,-0.06944036876149293,0.008941616986452587,899.0,0.29213806026320965,0.514319329097941,2.6225243005175676,-0.0006143860630442935,0.094,0.9999999999999992,205.40157737854457,0.12914571138978354,26,2026-10-08 00:31:21.527244,67.8,0.024499475838949045,0.19260607902928076,0.06271498764255674
0229,cdot_cos,R,Q-R,27,5,5501,0.02566447827063566,0.04264692033976762,0.04646367214867697,0.958918058128364,899.0,0.3224527942823141,0.5155090394957103,2.6786635500608305,-0.003356652341178771,0.058,0.9999999999999997,-2.304986392718996,0.13411285318935548,27,2026-10-08 00:31:21.585243,67.8,0.441770553254985,0.31747003834674364,0.522667827915594
0229,cdot_cos,S,R-S,28,5,5518,-0.02987688622702129,-0.08399098169403996,-0.05554136449765695,0.022627441502578793,899.0,0.3289645847114319,0.5155371108387587,2.72796597953677,-0.000764231170811999,0.017,0.9999999999999997,92.35116274586602,0.1390799940396048,28,2026-10-08 00:31:21.602243,67.8,0.033634766887520276,0.3628307768891431,0.38304649583045963
0229,cdot_cos,T,S-T,29,5,5769,-0.17309675840774089,0.056869743107959926,-0.1432198721807196,6.0651391053481466e-05,899.0,0.33478904069654497,0.5155371860820436,2.7762527169758333,-0.0006965098479490707,0.251,0.9999999999999994,900.0314515831444,0.14404714128566556,29,2026-10-08 00:31:21.853244,67.8,0.9073477216960032,0.07719902126675642,0.0232050039247532
0229,cdot_cos,P,T-P,30,6,6248,0.044463139310563955,-0.004972105202392999,0.21755989771830483,0.9999996074341166,859.0,0.36771849338734364,0.5167776736033978,2.830507897434686,-0.004167069811722486,0.479,0.9999999999999991,-2.797738714843929,0.14901429559912838,30,2026-10-08 00:31:22.332243,67.8,0.43480665903225735,0.04092243481513879,0.06874624778872374
0229,cdot_cos,Q,P-Q,31,6,6343,-0.028446241858387136,-0.020400244995861183,-0.0729093811689511,0.00708084466045308,859.0,0.37399273324944793,0.5167864565871559,2.877345225625754,-0.0008382831471573356,0.095,0.9999999999999992,379.0040783655453,0.15398143853199445,31,2026-10-08 00:31:22.427244,67.8,0.018855372400855556,0.20700069089575715,0.0660446301274136
0229,cdot_cos,R,Q-R,32,6,6403,0.019814365244155627,0.039459173345296014,0.04826060710254276,0.9634580897667864,859.0,0.4070486246575375,0.5179814179631848,2.9301453952286285,-0.0046499192247363924,0.06,0.9999999999999991,-3.189756718536105,0.15894858050219618,32,2026-10-08 00:31:22.487243,67.8,0.4405545861171607,0.3389949649967759,0.5509315234681594
0229,cdot_cos,S,R-S,33,6,6420,-0.02490890997929956,-0.09001023379842728,-0.04472327522345519,0.045990531410316185,859.0,0.41467212904906103,0.5180384542359875,2.9759043637564977,-0.0011282305137309471,0.017,0.9999999999999991,61.74472029730112,0.1639157210912439,33,2026-10-08 00:31:22.504243,67.8,0.04409421971198516,0.40763943354158216,0.44844143479550225
0229,cdot_cos,T,S-T,34,6,6648,-0.199038912144774,0.05612818565706715,-0.17413000216547445,7.459504205460753e-06,859.0,0.4209083653979513,0.5180384634870344,3.0206573703212887,-0.0009384903033813846,0.228,0.9999999999999988,20510.133806037742,0.16888286949206005,34,2026-10-08 00:31:22.732243,67.8,0.816951136439309,0.09159477549871352,0.027351913810922175
0229,cdot_cos,P,T-P,35,7,7107,0.04288280860897817,0.0028650349772139346,0.24192172075375218,0.9999999247381705,859.0,0.4564393466764744,0.519278518879028,3.0720931588271636,-0.005613288701649487,0.459,0.999999999999999,-3.7698303063322802,0.17385002738188587,35,2026-10-08 00:31:23.191243,67.8,0.4348260614088956,0.04608650852891694,0.07740954526911353
0229,cdot_cos,Q,P-Q,36,7,7237,-0.024705370577455834,-0.025195780416255125,-0.067588179186434,0.010125927229042831,859.0,0.46321578022749704,0.5192910744018526,3.1157464609843757,-0.001122183212749906,0.13,0.9999999999999983,357.69959973989336,0.1788171723175644,36,2026-10-08 00:31:23.321243,67.8,0.01827695494583593,0.15850948900477987,0.0521264119309434
0229,cdot_cos,R,Q-R,37,7,7284,0.013057740728233683,0.04281554003035554,0.03776311130568952,0.9282650311443549,859.0,0.49765181381771717,0.5204419600434401,3.1657248691218474,-0.005957097289735135,0.047,0.9999999999999986,-4.201037794090557,0.183784313853793,37,2026-10-08 00:31:23.368243,67.8,0.4441368780412971,0.4953038873450764,0.7326815657493644
0229,cdot_cos,S,R-S,38,7,7302,-0.009534119520634314,-0.09524909077568487,-0.022591860248867997,0.17774098117922302,859.0,0.5097743456379342,0.520662303278864,3.209578008690562,-0.0021986131428192376,0.018,0.9999999999999986,17.057406548859852,0.1887514542105799,38,2026-10-08 00:31:23.386244,67.8,0.18095995358241812,0.521848452453014,0.6734739900120585
0229,cdot_cos,T,S-T,39,7,7547,-0.2254133032546581,0.012699626281866154,-0.2158791837340238,4.399480887468957e-07,859.0,0.5164383581060257,0.5206623038242522,3.2515350607288513,-0.0012311627038455889,0.245,0.9999999999999981,1773874.968533288,0.193718605620222,39,2026-10-08 00:31:23.631244,67.8,0.4557539205081637,0.09113893700164806,0.02720005089016919
0229,cdot_cos,P,T-P,40,8,7966,0.05229303295911074,0.0019489109673845027,0.27770633621376883,0.9999999933489401,879.0,0.5544324247687418,0.5219018388076155,3.3007970689348003,-0.007323240443066077,0.419,0.9999999999999986,-4.914809038055651,0.19868576646302732,40,2026-10-08 00:31:24.050244,67.8,0.43522906664704286,0.05385187811510743,0.09067796339550381
0229,cdot_cos,Q,P-Q,41,8,8076,-0.01929391936445267,-0.017257778080418305,-0.07158695232356341,0.007739908719398515,879.0,0.5615662319664857,0.5219114316632374,3.341863759264853,-0.0014329622571820284,0.11,0.9999999999999982,614.0276074274668,0.20365291140361452,41,2026-10-08 00:31:24.160243,67.8,0.01639857901753527,0.1993982881228873,0.06485279270676295
0229,cdot_cos,R,Q-R,42,8,8135,0.01878268663696286,0.04514349435593187,0.03807660600141553,0.9296675580596542,879.0,0.598300048155777,0.523063543575514,3.389839216961527,-0.0076671416447543555,0.059,0.9999999999999982,-5.411088385722398,0.20862005372497658,42,2026-10-08 00:31:24.219244,67.8,0.4434796078106412,0.3928690772102138,0.6226070540557844
0229,cdot_cos,S,R-S,43,8,8153,-0.01762406046966057,-0.08862976658567118,-0.036406747106623435,0.07810498596601965,879.0,0.6079247830772909,0.5231603259725678,3.4305916985328193,-0.002089145891629265,0.018,0.9999999999999977,57.6344038061444,0.21358719379948937,43,2026-10-08 00:31:24.237243,67.8,0.06925301350508622,0.462583600030258,0.5347074956396636
0229,cdot_cos,T,S-T,44,8,8385,-0.23858744797253822,0.05641327436208109,-0.22096338750287764,3.116709090896695e-07,879.0,0.6149530577568663,0.5231603263587657,3.4702530380265455,-0.0015466196694345106,0.232,0.9999999999999976,1404787.89345426,0.21855434699008747,44,2026-10-08 00:31:24.469243,67.8,0.7041372930792923,0.10193475093935656,0.03029428741196268
0229,cdot_cos,P,T-P,45,9,8845,0.047146866407808775,-0.006753165566299758,0.285734314380347,0.9999999961407251,839.0,0.6552225075131524,0.5243993022782927,3.5177774867638534,-0.009202134581486679,0.46,0.9999999999999981,-6.178905329310373,0.22352151536305437,45,2026-10-08 00:31:24.929244,67.8,0.4352093225594068,0.05186400605861111,0.08754228207888283
0229,cdot_cos,Q,P-Q,46,9,8954,-0.028000321368470034,-0.019685836192545512,-0.07514718777627881,0.006090116497533377,839.0,0.6626679433307885,0.5244068468814779,3.556700311156439,-0.0017652975795326585,0.109,0.9999999999999973,985.7161230888969,0.2284886610776556,46,2026-10-08 00:31:25.038244,67.8,0.014804929119919137,0.21837431246500014,0.06830675062051492
0229,cdot_cos,R,Q-R,47,9,8995,0.022750730162202356,0.042926791005925044,0.050751051530672386,0.9689592377835602,839.0,0.7028281076305224,0.5256070759416254,3.603380599427913,-0.009863473409962742,0.041,0.9999999999999972,-6.747191931375919,0.2334558023123974,47,2026-10-08 00:31:25.079243,67.8,0.4399796594210833,0.5934174107779725,0.9795162024325341
0229,cdot_cos,S,R-S,48,9,9012,-0.02808168051713063,-0.09799454016521228,-0.05083241067933299,0.03087528017435417,839.0,0.7113281710145822,0.5256453157001644,3.641777605657449,-0.002162021984222342,0.017,0.9999999999999969,201.39906003550882,0.23842294197779426,48,2026-10-08 00:31:25.096244,67.8,0.02837768372839486,0.4668101353263715,0.5000037284741083
0229,cdot_cos,T,S-T,49,9,9245,-0.25081681157757896,0.05600103704171969,-0.22273513106044832,2.7639297476455655e-07,839.0,0.718699652231619,0.5256453160424822,3.6795172436539363,-0.0018960063437079417,0.233,0.9999999999999967,777101.3042707972,0.2433900978967467,49,2026-10-08 00:31:25.329243,67.8,0.8690947394439922,0.1068478895245418,0.031637258442217986
0229,cdot_cos,P,T-P,50,10,9684,0.04972105738496582,0.0036457589087019178,0.30053786896254475,0.9999999985854686,899.0,0.7611192875330187,0.5268836743294752,3.725630224438002,-0.01128762911587594,0.439,0.9999999999999967,-7.583930168523851,0.24835727059265048,50,2026-10-08 00:31:25.768243,67.8,0.43516590166377284,0.0572585143992719,0.09662787084601297
0229,cdot_cos,Q,P-Q,51,10,9813,-0.021584237566622463,-0.021671169150901483,-0.07130529495158829,0.007887956090608444,899.0,0.7689726278741797,0.5268934411506907,3.7627718395988685,-0.0021607187667704955,0.129,0.9999999999999963,934.4811528511085,0.25332441892740026,51,2026-10-08 00:31:25.897243,67.8,0.014639735108579067,0.18780328245373068,0.06087860729582194
0229,cdot_cos,R,Q-R,52,10,9865,0.015266123273971997,0.04310229730348406,0.03685036084059446,0.9240334011809037,899.0,0.8095725344060812,0.5280374294948318,3.807732096506503,-0.011521230202411619,0.052,0.9999999999999962,-8.182348608340963,0.2582915610569031,52,2026-10-08 00:31:25.949243,67.8,0.4437661100998939,0.5065848596073117,0.7807674333057979
0229,cdot_cos,S,R-S,53,10,9882,-0.014127410661666902,-0.09303144847016524,-0.0293935339356389,0.1199523365202468,899.0,0.8216574532733402,0.5281859136952948,3.8452515357574906,-0.003543734661577645,0.017,0.9999999999999959,53.72622485058748,0.2632587003146998,53,2026-10-08 00:31:25.966244,67.8,0.10527757243588602,0.582359466888511,0.7108775804269959
0229,cdot_cos,T,S-T,54,10,10124,-0.21572332349237647,0.043540237619113506,-0.20159591283070957,1.1587090637478439e-06,899.0,0.8293727562802906,0.5281859151295903,3.8813579861574703,-0.0022898670482936795,0.242,0.9999999999999957,874204.4795090883,0.26822586004963894,54,2026-10-08 00:31:26.208243,67.8,0.5783522116587161,0.10784457305568712,0.03188141738409276
0229,cdot_cos,P,T-P,55,11,10583,0.04520515114710382,-0.004803381747146587,0.26092847463948027,0.9999999792547929,859.0,0.8738542266322927,0.5294235785398501,3.9263103879145205,-0.013615376275734644,0.459,0.999999999999996,-9.150718308028415,0.27319304099583097,55,2026-10-08 00:31:26.667244,67.8,0.4352574554303166,0.05736073359774658,0.0969095214640569
0229,cdot_cos,Q,P-Q,56,11,10692,-0.027474018060495577,-0.01940124075362121,-0.0726791692075994,0.007191431102574374,859.0,0.882029909723022,0.5294324778192953,3.961909936074707,-0.0025798649737108614,0.109,0.9999999999999953,1240.0454857106402,0.27816018869553866,56,2026-10-08 00:31:26.776243,67.8,0.013876565025187035,0.2392128605156647,0.07500626688742427
0229,cdot_cos,R,Q-R,57,11,10739,0.020804045680760882,0.04146959983823552,0.048278063741256455,0.9634997360437083,859.0,0.9260026302247076,0.5306246216750017,4.006128095638405,-0.014283736263960014,0.047,0.9999999999999954,-9.817499150145588,0.2831273304407255,57,2026-10-08 00:31:26.823244,67.8,0.44070284851726105,0.570531278413489,0.9355897979082055
0229,cdot_cos,S,R-S,58,11,10756,-0.02550563231562246,-0.0946086232677866,-0.046309677996383344,0.041495225623847484,859.0,0.93565984989389,0.5306759562090605,4.041507730331606,-0.003229979861767245,0.017,0.9999999999999946,215.32788024391309,0.28809446925326565,58,2026-10-08 00:31:26.840243,67.8,0.032639340930332654,0.5202611626968255,0.5680717452460186
0229,cdot_cos,T,S-T,59,11,11002,-0.2150669184945406,0.05138755478664149,-0.18956128617891815,2.620205460731228e-06,859.0,0.9436915097563997,0.5306759594505461,4.0761994444012615,-0.0027118149369422316,0.246,0.9999999999999944,159854.1480967967,0.29306163276747993,59,2026-10-08 00:31:27.086244,67.8,0.8260691422394588,0.11071294812688949,0.03264902383134047
0229,cdot_cos,P,T-P,60,12,11442,0.045972749995079186,-0.0005593269891363827,0.2610396684896198,0.9999999794106018,879.0,0.9901306203723196,0.5319128796405085,4.120179508348262,-0.016129175223269836,0.44,0.9999999999999946,-10.847393708349093,0.29802881873155646,60,2026-10-08 00:31:27.526243,67.8,0.43523508690920676,0.06244922233812938,0.10554343321799972
0229,cdot_cos,Q,P-Q,61,12,11571,-0.025668048376688266,-0.02293021607913252,-0.07164079837176746,0.007711921185635944,879.0,0.9986468254139536,0.531922417167588,4.154446954015251,-0.003041886282975688,0.129,0.9999999999999936,1372.188915547576,0.30299596989632976,61,2026-10-08 00:31:27.655244,67.8,0.013536579099178539,0.2075922387328257,0.06601709334599978
0229,cdot_cos,R,Q-R,62,12,11613,0.015776691304214014,0.03910394905254371,0.04144473968090228,0.9432113205146455,879.0,1.0436894179653886,0.5330887323611311,4.197544946037328,-0.01651691843718713,0.042,0.9999999999999939,-11.553508201566727,0.3079631110616389,62,2026-10-08 00:31:27.697243,67.8,0.44227116304992015,0.6797548813003217,1.0724426797960727
0229,cdot_cos,S,R-S,63,12,11630,-0.01778406733118192,-0.09473489746251111,-0.03356075863539593,0.09317927603664479,879.0,1.0557462354431806,0.5332039325166708,4.232175080779287,-0.00454464882661198,0.017,0.9999999999999932,103.9258111630932,0.31293024938729663,63,2026-10-08 00:31:27.714243,67.8,0.07176443375856842,0.6000902881358362,0.7092245575171746
0229,cdot_cos,T,S-T,64,12,11881,-0.19148045101166167,0.03984248305101925,-0.17369638368047974,7.682062473443435e-06,879.0,1.064092487762007,0.5332039420140745,4.265631606172005,-0.0031765771365217716,0.251,0.9999999999999933,144046.91279487376,0.31789741730916793,64,2026-10-08 00:31:27.965244,67.8,0.6500702859850203,0.11289570104727023,0.03325200127022496
0229,cdot_cos,P,T-P,65,13,12321,0.04239963264236446,0.0015106571269654322,0.23388008365402613,0.9999998701738777,879.0,1.1124198773689102,0.5344400445435847,4.308793465489192,-0.01887876707024381,0.44,0.9999999999999931,-12.702983416710241,0.32286461077826306,65,2026-10-08 00:31:28.405244,67.8,0.43529204547294137,0.0650988515928748,0.10983497637932543
0229,cdot_cos,Q,P-Q,66,13,12450,-0.024250800921081523,-0.022645119360709672,-0.06665043356344598,0.01078346407225856,879.0,1.1213794771637369,0.5344533717350968,4.341919802633059,-0.0035921157476163463,0.129,0.9999999999999926,1147.0272119089748,0.3278317635590394,66,2026-10-08 00:31:28.534244,67.8,0.014184405487369656,0.2147010860432855,0.06945426197540026
0229,cdot_cos,R,Q-R,67,13,12497,0.01480577592394389,0.04135569116945107,0.03905657684502541,0.9338898316464234,879.0,1.167812757568078,0.5356073696013016,4.384135355098507,-0.019071639812667587,0.047,0.9999999999999923,-13.413823819240449,0.3327989053699677,67,2026-10-08 00:31:28.581243,67.8,0.44412401265969037,0.6405691215663514,0.987942136262575
0229,cdot_cos,S,R-S,68,13,12515,-0.013969301521098453,-0.0956779363911436,-0.028775077445042343,0.12444977997611802,879.0,1.181592974590974,0.5357611223745488,4.417999483523059,-0.005808598086124049,0.018,0.999999999999992,86.26213008349916,0.33776604330049725,68,2026-10-08 00:31:28.599244,67.8,0.10194249145027631,0.6232439000509862,0.7655676123831113
0229,cdot_cos,T,S-T,69,13,12740,-0.20589965652697223,0.031266665230116265,-0.19193035500587377,2.231402378638463e-06,879.0,1.1902495379699134,0.5357611251312971,4.450366234912482,-0.003683736933215571,0.225,0.9999999999999916,770785.3079281559,0.3427332116373356,69,2026-10-08 00:31:28.824243,67.8,0.5616804552242617,0.1306858675865394,0.03847361501750887
0229,cdot_cos,P,T-P,70,14,13200,0.046179780502763855,0.002213660821857597,0.25207943702973606,0.9999999622011012,859.0,1.2404016150049166,0.5369963362472034,4.492833782952366,-0.02186310545907558,0.46,0.999999999999992,-14.717620568465701,0.3477004163678287,70,2026-10-08 00:31:29.284243,67.8,0.4353917927479359,0.06447042635773442,0.10902625442392008
0229,cdot_cos,Q,P-Q,71,14,13330,-0.025038636906161548,-0.024709041927901722,-0.0712184174089254,0.007934185876355627,859.0,1.249562330219029,0.5370061348470464,4.524894227083831,-0.004090924529216967,0.13,0.9999999999999909,1813.7469857624928,0.3526675710709044,71,2026-10-08 00:31:29.414243,67.8,0.01298066288315709,0.22016875768639319,0.0704670401085572
0229,cdot_cos,R,Q-R,72,14,13377,0.013753480429433794,0.043194053455343405,0.038792117335595344,0.932774168723284,859.0,1.2976454920033789,0.5381578956528965,4.5664212771338715,-0.021958626870127784,0.047,0.9999999999999907,-15.513379384118501,0.35763471293409854,72,2026-10-08 00:31:29.461244,67.8,0.4432157855004305,0.6796870881814134,1.0230459954116977
0229,cdot_cos,S,R-S,73,14,13394,-0.010609240230554793,-0.09630003445951629,-0.02436272065998859,0.16086684052113576,859.0,1.313452916508082,0.5383564882439386,4.599719961248465,-0.007399554726318496,0.017,0.9999999999999906,73.31125530623062,0.3626018501481439,73,2026-10-08 00:31:29.478244,67.8,0.13979746618953126,0.7286200029528374,0.9298485002766512
0229,cdot_cos,T,S-T,74,14,13639,-0.2424203121242346,0.02078067946915518,-0.2318110718936798,1.4937725415923285e-07,859.0,1.3224185721037753,0.5383564884283414,4.631117732265319,-0.00423669807390888,0.245,0.9999999999999897,17151888.152426034,0.36756902589457074,74,2026-10-08 00:31:29.723244,67.8,0.47400465872317454,0.12426054164481456,0.036594512635483266
0229,cdot_cos,P,T-P,75,15,14059,0.05198946176153964,0.0018402223138735204,0.2944097738857742,0.9999999978568361,859.0,1.374340581914041,0.539590728361607,4.672992900465731,-0.02509266206158337,0.42,0.99999999999999,-16.897819804364943,0.3725362330198199,75,2026-10-08 00:31:30.143244,67.8,0.4355446825523681,0.07306961404028048,0.12362383288158509
0229,cdot_cos,Q,P-Q,76,15,14188,-0.02007845814746752,-0.01895301712474656,-0.07206791990900716,0.007493445065903931,859.0,1.383797047897611,0.5395999752573691,4.704123653562382,-0.00467408494417709,0.129,0.9999999999999891,2208.1547843449007,0.37750338954999424,76,2026-10-08 00:31:30.272243,67.8,0.012670673421943257,0.22723468210705638,0.07330593785713072
0229,cdot_cos,R,Q-R,77,15,14231,0.015927466493137137,0.04391262324301407,0.03600592464060466,0.9199156620663111,859.0,1.4329671298976616,0.5407349402723728,4.744929976819015,-0.02481097334355862,0.043,0.999999999999989,-17.742298778536995,0.382470530792876,77,2026-10-08 00:31:30.315244,67.8,0.44414144852958015,0.7405438154677985,1.1434902790709462
0229,cdot_cos,S,R-S,78,15,14249,-0.013531212369779524,-0.08979874324916146,-0.02945867886291666,0.1194868617981865,859.0,1.4474838160278416,0.5408823289140221,4.776943519322865,-0.00749030176505908,0.018,0.9999999999999883,117.51700392022713,0.38743766763776893,78,2026-10-08 00:31:30.333244,67.8,0.09902201757669504,0.6601631863636381,0.8064825627877766
0229,cdot_cos,T,S-T,79,15,14499,-0.27710119329797456,-0.028282121571669767,-0.26356998092819506,1.734355751535282e-08,859.0,1.4567330046067526,0.540882328935415,4.80746742981974,-0.004811760643266774,0.25,0.9999999999999875,125207087.0102276,0.39240484902995776,79,2026-10-08 00:31:30.583244,67.8,0.5731169422988028,0.12573503933250674,0.036996754315643976
0229,cdot_cos,P,T-P,80,16,14918,0.04714713253197838,0.004604212447705998,0.32424832582995294,0.9999999997165645,919.0,1.510351335694095,0.5421155594463759,4.848829112151203,-0.028486263231973723,0.419,0.9999999999999879,-19.19714309554354,0.3973720647886503,80,2026-10-08 00:31:31.002244,67.8,0.4355764827732742,0.07576153273695926,0.12796737729675986
0229,cdot_cos,Q,P-Q,81,16,15047,-0.020221302783418233,-0.020169946714646697,-0.06736843531539662,0.010276357218692704,919.0,1.5202211690403244,0.5421282299113191,4.879154225936089,-0.005355807168486977,0.129,0.9999999999999869,1825.5412226069866,0.4023392233498832,81,2026-10-08 00:31:31.131244,67.8,0.013316360026555736,0.23473321695077076,0.07651033601728283
0229,cdot_cos,R,Q-R,82,16,15101,0.015602157324455407,0.042315711979085326,0.03582346010787364,0.9189995256459266,919.0,1.5709125056673938,0.5432611087087298,4.919438730699045,-0.028046112981389967,0.054,0.9999999999999868,-20.028890879381777,0.4073063668862598,82,2026-10-08 00:31:31.185244,67.8,0.445287263015416,0.6058486763154475,0.9387284560568402
0229,cdot_cos,S,R-S,83,16,15119,-0.014539166399737501,-0.08607757828388742,-0.030141323724192908,0.11470251810805093,919.0,1.5856528260823928,0.5434024748422467,4.950632315720475,-0.008327629864239816,0.018,0.9999999999999863,139.48519795084746,0.41227350311171,83,2026-10-08 00:31:31.203244,67.8,0.09368299765322745,0.6739960040873516,0.8189066897221641
0229,cdot_cos,T,S-T,84,16,15357,-0.235230371269263,0.056251165154815506,-0.22069120486952548,3.174758744040439e-07,919.0,1.5951763618145385,0.543402475233513,4.980366112890731,-0.005421734817109175,0.238,0.9999999999999855,7426897.374243067,0.4172406869704813,84,2026-10-08 00:31:31.441243,67.8,0.5851006205994622,0.13610368934724823,0.04001485601741893
0229,cdot_cos,P,T-P,85,17,15837,0.049633987198845986,-0.006700032579000134,0.284864358468109,0.9999999959062462,839.0,1.650438182211683,0.5446346354645152,5.021283405511902,-0.03208720728720456,0.48,0.9999999999999857,-21.6412377214997,0.42220792559982107,85,2026-10-08 00:31:31.921243,67.8,0.4355998356382888,0.06792873896290288,0.11512879249405093
0229,cdot_cos,Q,P-Q,86,17,15926,-0.026101760966755115,-0.01816259247675323,-0.07573574816560111,0.005853273528613889,839.0,1.6603879512189252,0.5446418460418931,5.050800887374154,-0.005893293085108746,0.089,0.9999999999999843,3632.706901137507,0.4271750770229535,86,2026-10-08 00:31:32.010243,67.8,0.011740638794090728,0.36072468342412395,0.11179515738474512
0229,cdot_cos,R,Q-R,87,17,15986,0.022125328947968786,0.041751397686187915,0.0482270899147239,0.9633779996751458,839.0,1.714647175861177,0.5458283625620597,5.091148228824697,-0.032747076147449664,0.06,0.9999999999999841,-22.632456106529002,0.43214222220549775,87,2026-10-08 00:31:32.070244,67.8,0.4404157760295486,0.5479461938571444,0.9043204107041958
0229,cdot_cos,S,R-S,88,17,16004,-0.026448763380878784,-0.09038967544721146,-0.04857409232884757,0.03580094542395642,839.0,1.7261414944817826,0.5458724458113614,5.120737640243679,-0.007072204336477952,0.018,0.9999999999999833,582.4178620601554,0.43710935773863513,88,2026-10-08 00:31:32.088243,67.8,0.026505800476438086,0.5909512839117399,0.6385732567003095
0229,cdot_cos,T,S-T,89,17,16256,-0.24577290596780577,0.05175887381407057,-0.21932414258692698,3.4830851390475436e-07,839.0,1.7359214220819996,0.5458724462402452,5.14975055295519,-0.006054582000235882,0.252,0.9999999999999831,2372722.6234163023,0.4420765498565757,89,2026-10-08 00:31:32.340243,67.8,0.8452906496117929,0.13219748976706522,0.038809236508797876
0229,cdot_cos,P,T-P,90,18,16676,0.049110270929614286,0.0003976351887263311,0.29488317689742005,0.9999999979245324,879.0,1.7927690293243834,0.5471034963251394,5.190279698009235,-0.03585409380424734,0.42,0.9999999999999825,-24.20657954511426,0.44704378476111417,90,2026-10-08 00:31:32.760243,67.8,0.4355556284456244,0.07982564411840046,0.13535144581519953
0229,cdot_cos,Q,P-Q,91,18,16785,-0.026830170283674185,-0.02388738234484142,-0.07594044121328847,0.00577306750161321,879.0,1.802974963141456,0.5471106016025988,5.219102727901432,-0.006559237242722906,0.109,0.9999999999999813,4122.971513629607,0.4520109424913172,91,2026-10-08 00:31:32.869244,67.8,0.011490913842460135,0.29949454170848394,0.09363242034011539
0229,cdot_cos,R,Q-R,92,18,16845,0.01623387742580065,0.039180597627743424,0.043064047709474834,0.948813791566098,879.0,1.858058839416833,0.5482781034867931,5.258899052616367,-0.03602838687476874,0.06,0.9999999999999811,-25.241200918818524,0.45697808810001855,92,2026-10-08 00:31:32.929244,67.8,0.4413387657071273,0.5755480830777667,0.9180646045896154
0229,cdot_cos,S,R-S,93,18,16862,-0.01946180357818083,-0.09906703505874587,-0.035695681003981475,0.08164771979414813,879.0,1.872040733110788,0.5483785452043938,5.28837140462563,-0.009317212134344052,0.017,0.999999999999981,265.93705661835946,0.46194522270205834,93,2026-10-08 00:31:32.946244,67.8,0.05687704591002774,0.7064637282487851,0.8224643349385342
0229,cdot_cos,T,S-T,94,18,17115,-0.22112746225226407,0.0459177834036913,-0.20166565867408323,1.1532427381947122e-06,879.0,1.8820786061772916,0.5483785466230667,5.316727498921403,-0.0067320810708282166,0.253,0.9999999999999799,1822217.7641189,0.4669124207915809,94,2026-10-08 00:31:33.199244,67.8,0.6811302199051005,0.13524939781787593,0.03967538761463878
0229,cdot_cos,P,T-P,95,19,17555,0.04821096882789741,0.004033199963799878,0.2693384310801615,0.9999999882703455,899.0,1.9404769284066332,0.5496084084087872,5.356920368416071,-0.03986046454605399,0.44,0.9999999999999798,-26.936671957669,0.47187967158033933,95,2026-10-08 00:31:33.639244,67.8,0.43556605605845666,0.07836692958302133,0.13272345961214002
0229,cdot_cos,Q,P-Q,96,19,17684,-0.023316638831250833,-0.02367497696808011,-0.07152760765914824,0.007770871017186183,899.0,1.9510415042103504,0.5496179631525746,5.385134516215706,-0.007341041473389886,0.129,0.9999999999999787,3403.4845723011144,0.4768468367183165,96,2026-10-08 00:31:33.768243,67.8,0.011916746914851565,0.2569753880101188,0.08189593646292379
0229,cdot_cos,R,Q-R,97,19,17737,0.015321217813376604,0.043581745678832114,0.03863785664462743,0.9321153530780715,899.0,2.006776578513244,0.5507637864307329,5.424394483935091,-0.0393703329183214,0.053,0.9999999999999784,-27.953081470306394,0.4818139806630098,97,2026-10-08 00:31:33.821243,67.8,0.4432866067076263,0.6803047315034286,1.051605175526292
0229,cdot_cos,S,R-S,98,19,17754,-0.013619525424991471,-0.09608556494405765,-0.028940743238368073,0.12323105676084085,899.0,2.023153805749714,0.55091523087099,5.45378280902935,-0.01177865131982372,0.017,0.9999999999999775,182.19012564373324,0.4867811144499016,98,2026-10-08 00:31:33.838243,67.8,0.09608556275741857,0.7845081684611934,0.963366308027644
0229,cdot_cos,T,S-T,99,19,17995,-0.2194562383330767,0.03893423523799908,-0.20583671290808522,8.691674788194736e-07,899.0,2.0334498562409244,0.5509152319391175,5.481537617045773,-0.007454025779934619,0.241,0.999999999999977,4048791.5905781356,0.4917483150014417,99,2026-10-08 00:31:34.079243,67.8,0.5598014343413856,0.14566733651743918,0.04272220120834286
0229,cdot_cos,P,T-P,100,20,18454,0.04523926881272902,0.0018678317377823202,0.2646955071458057,0.999999983930703,879.0,2.0933654619511195,0.5521438274369671,5.521438557233164,-0.04410525249737218,0.459,0.9999999999999769,-29.831809396655018,0.496715583176825,100,2026-10-08 00:31:34.538244,67.8,0.43561580670881683,0.07708011568563174,0.1305350886932354
0229,cdot_cos,Q,P-Q,101,20,18584,-0.025719265714800897,-0.024446252049041255,-0.07095853452752993,0.00807408685065494,879.0,2.1042094024403344,0.5521537446542534,5.549076766174934,-0.00811930934468414,0.13,0.9999999999999754,3628.633124990355,0.5016827510604309,101,2026-10-08 00:31:34.668243,67.8,0.011888979756366921,0.2630173533648404,0.08341492684011452
0229,cdot_cos,R,Q-R,102,20,18631,0.014830524395253663,0.041570996325628176,0.04054979011005456,0.9398724349713015,879.0,2.161749973825978,0.5533078830761133,5.588136012501614,-0.04376335111839489,0.047,0.9999999999999755,-30.883680066961343,0.5066498932890815,102,2026-10-08 00:31:34.715244,67.8,0.4428729239068356,0.7886413216487527,1.2242674762902896
0229,cdot_cos,S,R-S,103,20,18648,-0.014635675204328838,-0.10023391213652107,-0.0294661995995825,0.11943322512831187,879.0,2.178341686675317,0.5534545030351237,5.6169500537964385,-0.012837554644286412,0.017,0.9999999999999744,210.92487464090485,0.5116170262230479,103,2026-10-08 00:31:34.732243,67.8,0.0899042630224055,0.7982552718026222,0.975983108784655
0229,cdot_cos,T,S-T,104,20,18893,-0.22102377035824539,0.03792068990842252,-0.20638809515391654,8.372746461239127e-07,879.0,2.188890653067267,0.5534545040629556,5.644150948073198,-0.008213124168137978,0.245,0.9999999999999731,4499208.808485749,0.5165842340561312,104,2026-10-08 00:31:34.977243,67.8,0.5694673869257579,0.14682736789550424,0.04305700568142866
0229,cdot_cos,P,T-P,105,21,19333,0.04780433535058403,0.0008497841814382037,0.2688281057088294,0.9999999878573961,859.0,2.250287096944114,0.5546817680181972,5.683797097972619,-0.048562904967067125,0.44,0.9999999999999729,-32.87783416647683,0.5215515085971157,105,2026-10-08 00:31:35.417243,67.8,0.4356672180841125,0.082388841967753,0.13953737244737968
0229,cdot_cos,Q,P-Q,106,21,19462,-0.023065723379981255,-0.02177179157380591,-0.07087005873056529,0.008122271530313056,859.0,2.26139283399889,0.5546917334804352,5.710901288028654,-0.008927763207237965,0.129,0.9999999999999717,3977.250709837603,0.5265186787957913,106,2026-10-08 00:31:35.546243,67.8,0.011801392481545915,0.2696462521173556,0.08609098492074091
0229,cdot_cos,R,Q-R,107,21,19506,0.015250820293404082,0.04236027652791922,0.038316543673385335,0.930723832941694,859.0,2.319855829990392,0.5558333736813339,5.7495854893639855,-0.04769798287158848,0.044,0.9999999999999715,-33.96010374707465,0.5314858200594608,107,2026-10-08 00:31:35.590244,67.8,0.44360212296091717,0.8588897982092503,1.3287044543523223
0229,cdot_cos,S,R-S,108,21,19523,-0.013841571587176032,-0.0948392914385507,-0.029092391880580114,0.12212445693843559,859.0,2.336975136241304,0.5559831299466349,5.7779465413882605,-0.014196531855565707,0.017,0.9999999999999702,223.70650702784394,0.5364529521581355,108,2026-10-08 00:31:35.607244,67.8,0.09443594840292094,0.8209912933934529,1.0070180147595205
0229,cdot_cos,T,S-T,109,21,19753,-0.2481954134209918,0.03402711670194858,-0.23435384183381577,1.257222658672091e-07,859.0,2.3477695339657694,0.5559831301007978,5.804634657662905,-0.009005129652797643,0.23,0.9999999999999691,33674781.97220264,0.541420161016177,109,2026-10-08 00:31:35.837244,67.8,0.5618648785075069,0.1600766715949693,0.046932164019415454
0229,cdot_cos,P,T-P,110,22,20192,0.05099892136166807,-0.00039243533601313453,0.2991943347826599,0.9999999984505656,819.0,2.4106104051749897,0.5572090045023768,5.84405772259311,-0.05321851563178443,0.439,0.9999999999999685,-36.06681559060129,0.5463874479754419,110,2026-10-08 00:31:36.276243,67.8,0.43570514500743673,0.08438271551057906,0.14314549250391875
0229,cdot_cos,Q,P-Q,111,22,20301,-0.024345202218014676,-0.02286527583691727,-0.07534412357968275,0.0060098256786887995,819.0,2.421857558184058,0.5572163697028863,5.870639147707857,-0.009673230871074317,0.109,0.9999999999999675,5912.301328933162,0.5513546134647945,111,2026-10-08 00:31:36.385243,67.8,0.011090928303776995,0.32759463913415576,0.10318488999145037
0229,cdot_cos,R,Q-R,112,22,20359,0.015605270233993673,0.045482571935710224,0.03995047245200835,0.9375346686284656,819.0,2.4820260365062357,0.5583650331667213,5.90918049147674,-0.05248502187734262,0.058,0.9999999999999671,-37.270960863800404,0.5563217602034369,112,2026-10-08 00:31:36.443244,67.8,0.44233162219879135,0.6752053467244026,1.0373875572789286
0229,cdot_cos,S,R-S,113,22,20376,-0.011859599023713738,-0.09627250344706789,-0.02746486925770741,0.13445635697040706,819.0,2.5001813784040885,0.558529717617308,5.937252758801812,-0.016088610421225346,0.017,0.9999999999999659,221.00697015687487,0.5612888914973984,113,2026-10-08 00:31:36.460243,67.8,0.10411626729689313,0.8586387080277473,1.0679612881089904
0229,cdot_cos,T,S-T,114,22,20612,-0.2675420264249632,0.007431910346618891,-0.25568242740124947,2.960659763404469e-08,819.0,2.511219752579179,0.5585297176535691,5.963465920779847,-0.009839127339842227,0.236,0.9999999999999647,172346734.65728486,0.5662561090387248,114,2026-10-08 00:31:36.696243,67.8,0.529847314938193,0.15952366283568317,0.04677277192834988
0229,cdot_cos,P,T-P,115,23,21011,0.046397195421089485,0.00035239094729392094,0.3139392218460527,0.9999999994298259,819.0,2.575476547262531,0.5597541284755779,6.002694723075199,-0.05810212286334178,0.399,0.9999999999999646,-39.41732191186918,0.571223393387299,115,2026-10-08 00:31:37.095244,67.8,0.43576244264178354,0.09486165956254322,0.16104459820388942
0229,cdot_cos,Q,P-Q,116,23,21140,-0.03158024961098115,-0.03093745878603561,-0.07797744503207063,0.005032111566384281,819.0,2.5869193569100886,0.5597602880221694,6.028803273937351,-0.010500738034152761,0.129,0.9999999999999628,7728.066363733269,0.5761905694604247,116,2026-10-08 00:31:37.224244,67.8,0.01074680700158799,0.2848053815863374,0.0887039507562606
0229,cdot_cos,R,Q-R,117,23,21181,0.011107387240836115,0.03803056786993038,0.04268763685181727,0.9475600585327958,819.0,2.648956335711806,0.560919817093822,6.067275961337389,-0.05770708306461582,0.041,0.999999999999963,-40.71165284642854,0.5811577097098956,117,2026-10-08 00:31:37.265243,67.8,0.4412984786575442,1.0313896473319,1.5130970439443276
0229,cdot_cos,S,R-S,118,23,21199,-0.008583392206590277,-0.11341935870838243,-0.019690779447426393,0.2083277620665212,819.0,2.6714933079913044,0.5611746590251883,6.09591761505002,-0.021299930995374902,0.018,0.999999999999962,142.86170205214506,0.5861248407023566,118,2026-10-08 00:31:37.283243,67.8,0.18099941077515067,0.9398048898225684,1.2520540155276867
0229,cdot_cos,T,S-T,119,23,21450,-0.2400140799977332,-0.010078120641382943,-0.23143068779114292,1.5327980643883604e-07,819.0,2.6827893117454185,0.5611746592126796,6.121693279836464,-0.010743861787711155,0.251,0.9999999999999606,56301631.42227798,0.5910920719062813,119,2026-10-08 00:31:37.534244,67.8,0.37436615280219643,0.15330085934274557,0.04500399902037491
0229,cdot_cos,P,T-P,120,24,21830,0.04146234253873617,-0.00010765658411194805,0.2814764225364694,0.9999999948491365,819.0,2.7484503393813626,0.562397481776853,6.160756238135152,-0.06331029783468674,0.38,0.9999999999999608,-42.987787097721615,0.5960593611471556,120,2026-10-08 00:31:37.914243,67.8,0.4359192089290523,0.10198242714819213,0.17279217798932675
0229,cdot_cos,Q,P-Q,121,24,21940,-0.030319982025988856,-0.029507375225118093,-0.07178232456472503,0.007638838096758287,819.0,2.7602959563780445,0.5624068198224806,6.186475547864448,-0.011584468800648284,0.11,0.9999999999999586,5539.256402961181,0.6010265321185775,121,2026-10-08 00:31:38.024243,67.8,0.01150352807717913,0.3429625017126201,0.10768742724256229
0229,cdot_cos,R,Q-R,122,24,22000,0.013700254443923202,0.04347843823391257,0.04402023646991206,0.9518722560417118,819.0,2.823902089758139,0.5635700814220471,6.224835545450185,-0.06301831500697931,0.06,0.9999999999999584,-44.215201658422544,0.6059936812064065,122,2026-10-08 00:31:38.084243,67.8,0.44212042290235803,0.7046115430777822,1.0601022230015764
0229,cdot_cos,S,R-S,123,24,22018,-0.009625010003031164,-0.11058814613267615,-0.023325264446954368,0.1705898101857677,819.0,2.8448493415473783,0.5637784818690689,6.252606375776717,-0.0210656365098947,0.018,0.9999999999999573,201.3080062765224,0.6109608114697963,123,2026-10-08 00:31:38.102243,67.8,0.13648753361934032,0.9024520883977132,1.1637362105132938
0229,cdot_cos,T,S-T,124,24,22269,-0.23215887232477517,-0.0004169086694496731,-0.222533862321744,2.801904894557404e-07,819.0,2.8563903649404567,0.5637784822113442,6.277972024277555,-0.011672765110026332,0.251,0.9999999999999554,27442444.351133548,0.61592805062548,124,2026-10-08 00:31:38.353244,67.8,0.44722983862375454,0.15651397242653659,0.045980172880790385
0229,cdot_cos,P,T-P,125,25,22649,0.03739401284873822,-0.00039104884839320694,0.2695528851735134,0.9999999884396608,799.0,2.9234193557054997,0.5649996733838057,6.3168889483667945,-0.06868446740266278,0.38,0.9999999999999556,-46.68532133074459,0.6208953527324497,125,2026-10-08 00:31:38.733243,67.8,0.436026467886505,0.10426867358447567,0.17639208096063944
0229,cdot_cos,Q,P-Q,126,25,22758,-0.03072880438593026,-0.030939826126690093,-0.06812281723466848,0.009768972276203035,799.0,2.9356345568646582,0.5650115993018818,6.342240072426787,-0.012688424512256203,0.109,0.9999999999999536,4695.323457126796,0.6258625259214229,126,2026-10-08 00:31:38.842243,67.8,0.012116833012415291,0.3529816472946149,0.11206606568035347
0229,cdot_cos,R,Q-R,127,25,22818,0.012318163187876508,0.04247993599829981,0.043046967573806764,0.9487575210769575,799.0,3.0003693548157258,0.5661694777395097,6.3804065867366155,-0.06808368671341315,0.06,0.9999999999999533,-47.84203626301798,0.6308296758307164,127,2026-10-08 00:31:38.902244,67.8,0.44324399623034105,0.7443712944664616,1.0789132991844586
0229,cdot_cos,S,R-S,128,25,22836,-0.005689156923638475,-0.11974307902130811,-0.01800732011151498,0.22777875625985963,799.0,3.0249591122006336,0.566447355474268,6.408620872299332,-0.02624707431089294,0.018,0.9999999999999521,150.55762722009567,0.6357968053241311,128,2026-10-08 00:31:38.920243,67.8,0.20312101097609617,1.0106393518426955,1.366097632494882
0229,cdot_cos,T,S-T,129,25,23069,-0.23134723354355785,-0.018504155630071076,-0.22565807661991938,2.2670463785285593e-07,799.0,3.036752371482063,0.5664473557508146,6.433605844152462,-0.012664120811556339,0.233,0.9999999999999507,49116334.44661035,0.6407640438838077,129,2026-10-08 00:31:39.153243,67.8,0.34213358962694357,0.1720495913831478,0.05061484670141269
0229,cdot_cos,P,T-P,130,26,23448,0.040906681325148436,0.0012996965263367601,0.2722539148687063,0.9999999903741673,799.0,3.1051342217851805,0.5676668049539508,6.472398042313161,-0.07435312988159103,0.379,0.9999999999999505,-50.58760046042194,0.645731359295236,130,2026-10-08 00:31:39.532243,67.8,0.4361905793104024,0.10648972630396712,0.18042704565466416
0229,cdot_cos,Q,P-Q,131,26,23578,-0.03146971325634323,-0.03550444911902183,-0.07237639458149167,0.007339488629274434,799.0,3.11747158402047,0.567675752075692,6.497346634231864,-0.013590927240752566,0.13,0.9999999999999483,6791.256942593113,0.650698546434353,131,2026-10-08 00:31:39.662244,67.8,0.011438258332880062,0.29866993329529673,0.09490278642530278
0229,cdot_cos,R,Q-R,132,26,23626,0.00820639162271339,0.039798428890128294,0.039676104879056616,0.9364363573290884,799.0,3.1827884044419577,0.5688169402651388,6.5352097842438095,-0.0728051750120777,0.048,0.9999999999999477,-51.88824097454643,0.6556656908110415,132,2026-10-08 00:31:39.710243,67.8,0.4433814986007148,1.0484122186035458,1.360767092114329
0229,cdot_cos,S,R-S,133,26,23643,0.0026368508210723807,-0.11870952432962181,-0.005569540801641009,0.40670229085784176,799.0,3.2181191570064103,0.5693123412275594,6.565630902680371,-0.03999926424151146,0.017,0.9999999999999472,66.22092660110657,0.6606328190087514,133,2026-10-08 00:31:39.727243,67.8,0.44035993371314675,1.394303729176476,2.07827956261486
0229,cdot_cos,T,S-T,134,26,23888,-0.2032258095508287,-0.0333958068977885,-0.20586266037190107,8.676397518601632e-07,799.0,3.230194731233958,0.5693123422842771,6.590267512208884,-0.013772460334205237,0.245,0.9999999999999453,24819120.164643385,0.6656000730207883,134,2026-10-08 00:31:39.972243,67.8,0.14892785309740383,0.1669779795824835,0.04928805807162273
0229,cdot_cos,P,T-P,135,27,24247,0.034015520224360954,0.0008070113124129695,0.23724132977518964,0.9999998966311587,819.0,3.299938367001827,0.5705298427262635,6.628958458504443,-0.08049752071920359,0.359,0.9999999999999453,-54.80495783322439,0.6705673926338996,135,2026-10-08 00:31:40.331244,67.8,0.43652559573695354,0.11489444289943303,0.1942719659272127
0229,cdot_cos,Q,P-Q,136,27,24377,-0.03450528536545019,-0.03591579679522122,-0.06852080558981113,0.009511368520591722,819.0,3.3126889412357508,0.5705414187511978,6.653599898520508,-0.014902419883460393,0.13,0.9999999999999426,5666.461605610424,0.675534584086629,136,2026-10-08 00:31:40.461244,67.8,0.012257210562219024,0.3082250498340766,0.09808134026095047
0229,cdot_cos,R,Q-R,137,27,24423,0.008918941088521393,0.036887805198148035,0.04342422645397158,0.9499868681512026,819.0,3.380076879958687,0.5716972309035838,6.691545306743878,-0.07966165080725102,0.046,0.9999999999999428,-56.0292005842848,0.6805017279223744,137,2026-10-08 00:31:40.507244,67.8,0.44355717933660643,1.0641780398675804,1.4649551896290514
0229,cdot_cos,S,R-S,138,27,24441,-0.002747623310527975,-0.11713388306695866,-0.011666564399049367,0.3119554786190735,819.0,3.410593320903568,0.5720766051011267,6.720379239838378,-0.03659411694467756,0.018,0.9999999999999413,113.5225699099054,0.6854688559161688,138,2026-10-08 00:31:40.525243,67.8,0.3082334744932778,1.1903158066119721,1.695357830271169
0229,cdot_cos,T,S-T,139,27,24687,-0.21984313311911774,-0.01624668301802354,-0.21709550980858977,4.0512265244499855e-07,819.0,3.422928248996718,0.5720766055937481,6.744684491016211,-0.01488490108613578,0.246,0.9999999999999389,44068764.33261813,0.690436119889986,139,2026-10-08 00:31:40.771244,67.8,0.23259133422640596,0.1695074993295913,0.050141984118495755
0229,cdot_cos,P,T-P,140,28,25066,0.04046891532619522,-0.009560984504599796,0.26031204844531297,0.9999999783694009,759.0,3.493991010573727,0.5732921487840452,6.78328499780389,-0.08673730881200382,0.379,0.9999999999999393,-59.11135721002472,0.6954034661612917,140,2026-10-08 00:31:41.150244,67.8,0.4367514455954692,0.11051028448140096,0.18750069017680468
0229,cdot_cos,Q,P-Q,141,28,25156,-0.040200642108778314,-0.027959309695615834,-0.08066955743497353,0.004196095128244068,759.0,3.50669504463362,0.5732972474648502,6.807528502709249,-0.015693943890709612,0.09,0.999999999999937,13933.675716973921,0.7003706371561983,141,2026-10-08 00:31:41.240243,67.8,0.010815215904633057,0.4620362555322746,0.1411559339988106
0229,cdot_cos,R,Q-R,142,28,25209,0.01775519659263112,0.040325232216070775,0.05795583870140943,0.9807235385055297,759.0,3.5771575365695365,0.5744884964255602,6.8458214006474245,-0.08801661910076283,0.053,0.999999999999936,-60.71163761347468,0.7053377859066114,142,2026-10-08 00:31:41.293243,67.8,0.4396864576553537,0.818086022133205,1.3294809799229523
0229,cdot_cos,S,R-S,143,28,25227,-0.022319746753484745,-0.11658060748663206,-0.04007494334611586,0.061972928383893566,759.0,3.5934121629797398,0.5745637437796788,6.870783945310391,-0.020551707422589112,0.018,0.9999999999999339,896.575201459819,0.7103049130889794,143,2026-10-08 00:31:41.311244,67.8,0.03752712307702269,0.7999195933455279,0.9030348005668476
0229,cdot_cos,T,S-T,144,28,25466,-0.2674424555237014,-0.004950460272054405,-0.24512270877021664,6.057886814280532e-08,759.0,3.6059546419299755,0.5745637438532318,6.894765809652914,-0.015921901807337664,0.239,0.9999999999999319,62945118.59842764,0.7152721812470026,144,2026-10-08 00:31:41.550244,67.8,0.7476785056252028,0.17751867439775956,0.052478991423580534
0229,cdot_cos,P,T-P,145,29,25825,0.03449216020135332,0.0010467063310426205,0.3019346157250547,0.9999999987132768,819.0,3.678266089341869,0.5757774611413433,6.933279672058005,-0.09280750077306621,0.359,0.9999999999999322,-63.34720590934391,0.7202395288870052,145,2026-10-08 00:31:41.909244,67.8,0.4367293339689095,0.11924517293121975,0.2014246446013742
0229,cdot_cos,Q,P-Q,146,29,25955,-0.03222076395845358,-0.034913196407165656,-0.0667129241598069,0.010738362245888082,819.0,3.6915726760945913,0.5757904895456851,6.957303927374065,-0.017278820248262796,0.13,0.9999999999999293,5797.231843843763,0.7252067284457959,146,2026-10-08 00:31:42.039244,67.8,0.012636432777287387,0.31920520438356836,0.10235835963632653
0229,cdot_cos,R,Q-R,147,29,26004,0.010469978221836788,0.04281266003828487,0.04269074218029037,0.9475705193415046,819.0,3.7612594424815966,0.576939720370153,6.99502334812649,-0.09144266362742307,0.049,0.9999999999999288,-64.53346168599606,0.7301738750430942,147,2026-10-08 00:31:42.088243,67.8,0.4443947529747051,1.0260985728055356,1.4221789058572516
0229,cdot_cos,S,R-S,148,29,26021,-0.0020609861026522325,-0.11650134318411125,-0.012530964324489021,0.29951690321394653,819.0,3.7921303362295338,0.5773028074321548,7.023192763782272,-0.04104579409633002,0.017,0.9999999999999271,138.80106124750523,0.7351410006469392,148,2026-10-08 00:31:42.105243,67.8,0.29293030909260254,1.2841346619015226,1.815934926349245
0229,cdot_cos,T,S-T,149,29,26265,-0.22486633086157362,-0.015357719059891152,-0.2228053447589214,2.7508033635689797e-07,819.0,3.8049200209862484,0.5773028077655805,7.046879822153178,-0.01710339875803898,0.244,0.9999999999999246,71807281.43805382,0.7401082818601386,149,2026-10-08 00:31:42.349244,67.8,0.24663103494057728,0.17699073611457805,0.05241674080620739
0229,cdot_cos,P,T-P,150,30,26644,0.031197770121682126,-0.00017100650410675183,0.25606410098325577,0.9999999711497182,839.0,3.878501815453448,0.5785144431182322,7.085327003188723,-0.09944122814598369,0.379,0.9999999999999244,-67.95594830387515,0.7450756588045685,150,2026-10-08 00:31:42.728243,67.8,0.4369200937206148,0.11496138916224924,0.19414721495303291
0229,cdot_cos,Q,P-Q,151,30,26774,-0.035597524995291126,-0.03539058989870007,-0.06679529511697326,0.010679196976096065,839.0,3.8920607539712333,0.5785273773377066,7.1090645259155245,-0.018531730707602532,0.13,0.9999999999999214,6255.4603776559015,0.7500428627289766,151,2026-10-08 00:31:42.858243,67.8,0.012701973490712438,0.32786850560655445,0.10429952705988804
0229,cdot_cos,R,Q-R,152,30,26820,0.011471938875174533,0.03909741956060179,0.04706946387046566,0.9605059310778996,839.0,3.963747626911152,0.5796902612670685,7.146902641055634,-0.09897841556831613,0.046,0.9999999999999211,-69.1786022916857,0.755010007661664,152,2026-10-08 00:31:42.904243,67.8,0.44362752326868254,1.0628376427992319,1.5584102813025806
0229,cdot_cos,S,R-S,153,30,26838,-0.007818491390555338,-0.11340720642989018,-0.019290430265729873,0.21283994131008127,839.0,3.9898418171087626,0.5799478272440192,7.173559564883642,-0.03647066519199889,0.018,0.9999999999999188,242.68636376721898,0.7599771329348771,153,2026-10-08 00:31:42.922244,67.8,0.18015844393563826,1.0864384446413529,1.4496772332005896
0229,cdot_cos,T,S-T,154,30,27064,-0.19881140015908666,0.002633401544738027,-0.1909929087685313,2.377831565935263e-06,839.0,4.002859410918241,0.5799478301212838,7.1969644209660535,-0.018283569997544654,0.226,0.9999999999999161,6320967.104049609,0.7649444106639409,154,2026-10-08 00:31:43.148243,67.8,0.3698257184821144,0.19432171793429584,0.05759997260831013
0229,cdot_cos,P,T-P,155,31,27483,0.03872536780663835,-0.0005225397826521183,0.237536767965725,0.99999989868111,819.0,4.077675233615064,0.5811573843079759,7.235352241595916,-0.10615065958760375,0.419,0.999999999999916,-72.64419449479834,0.7699118335822489,155,2026-10-08 00:31:43.567244,67.8,0.4370278741758807,0.10569413708241568,0.17855804939576045
0229,cdot_cos,Q,P-Q,156,31,27593,-0.028988770053922235,-0.028092795012708994,-0.06771413786056059,0.010040684605891288,819.0,4.091431097793305,0.5811695241413442,7.25880626327399,-0.019730953706185113,0.11,0.9999999999999125,7118.6896277819,0.7748790266223876,156,2026-10-08 00:31:43.677243,67.8,0.012526546625603638,0.39016934186035196,0.12505331071127915
0229,cdot_cos,R,Q-R,157,31,27653,0.01376758759050954,0.04354224477960665,0.042756357644431774,0.9477910954183326,819.0,4.163512488824342,0.5823150200408406,7.296387537922645,-0.10439714898921208,0.06,0.9999999999999116,-73.9122639550677,0.7798461825122426,157,2026-10-08 00:31:43.737243,67.8,0.44441297309078087,0.7991468125840544,1.2013565171839455
0229,cdot_cos,S,R-S,158,31,27670,-0.009680364477665158,-0.10280468884874085,-0.023447952068174696,0.1694160969302167,819.0,4.187328715303392,0.5825196823874931,7.322160126371116,-0.034889465515963225,0.017,0.9999999999999092,339.621257207927,0.7848133058441625,158,2026-10-08 00:31:43.754244,67.8,0.13639154573092577,1.0895989615271213,1.400954498767635
0229,cdot_cos,T,S-T,159,31,27903,-0.23273721547958146,-0.0015824226523889703,-0.2230568510019163,2.704294006809493e-07,819.0,4.200558853516264,0.5825196827141614,7.345294970835926,-0.01946740814509924,0.233,0.9999999999999062,47210135.12502652,0.7897805977539742,159,2026-10-08 00:31:43.987243,67.8,0.45284797766787255,0.19152108749177768,0.0567817090681216
0229,cdot_cos,P,T-P,160,32,28302,0.03680092886856002,-0.0010421051661022255,0.2695381443481415,0.9999999884281011,820.0,4.27657754207456,0.583727146935813,7.383630566081273,-0.11295411120045601,0.399,0.9999999999999062,-77.42399433375289,0.7947480228556587,160,2026-10-08 00:31:44.386244,67.8,0.4370743058465313,0.11248866983571165,0.1905230289681606
0229,cdot_cos,Q,P-Q,161,32,28431,-0.037605674244218436,-0.03520500031999326,-0.07440660311277845,0.0064017109982493015,820.0,4.290324812045162,0.5837348735534912,7.406766585538528,-0.02064288954643683,0.129,0.9999999999999021,11947.170870656386,0.7997152344061665,161,2026-10-08 00:31:44.515244,67.8,0.011426536484345558,0.34138612380236366,0.10656798426823122
0229,cdot_cos,R,Q-R,162,32,28470,0.011441062842863486,0.036614729580765025,0.04904673708708192,0.9652889288240117,820.0,4.36465516201557,0.5848994670705827,7.444556231898609,-0.11267077389583935,0.039,0.9999999999999016,-79.02146371141944,0.8046823740217375,162,2026-10-08 00:31:44.554244,67.8,0.4418495825106357,1.2761101706707778,1.9059064094976408
0229,cdot_cos,S,R-S,163,32,28487,-0.010392918177231154,-0.11677126160625276,-0.02183398102009464,0.18537547886154274,820.0,4.3898614053574825,0.5851230091863774,7.470351902072371,-0.038641266034708716,0.017,0.9999999999998989,331.16581901339805,0.8096494961875936,163,2026-10-08 00:31:44.571244,67.8,0.14722183306850128,1.1368083668255164,1.4827201965830987
0229,cdot_cos,T,S-T,164,32,28722,-0.2324357588980651,0.0026315125618720965,-0.22204284072083394,2.896753886037092e-07,820.0,4.403306646487637,0.5851230095356662,7.493232053018706,-0.020702606992459755,0.235,0.9999999999998955,51357667.38153722,0.8146167993113463,164,2026-10-08 00:31:44.806243,67.8,0.42042349320573197,0.19288047539690484,0.05721379204321227
0229,cdot_cos,P,T-P,165,33,29122,0.048878559519455855,0.004211191385418394,0.28131431841752097,0.9999999947922127,858.0,4.480515228794028,0.5863282912752558,7.531524720499635,-0.1200070071224924,0.4,0.9999999999998953,-82.39102681821872,0.81958424314901,165,2026-10-08 00:31:45.206244,67.8,0.43714586671097144,0.11419067642794323,0.19302145576597596
0229,cdot_cos,Q,P-Q,166,33,29251,-0.020187381227351038,-0.022331623046239577,-0.06906594074680689,0.009169408588028186,858.0,4.494659187629992,0.5863393382363015,7.554455458113323,-0.022210159502600132,0.129,0.999999999999891,8852.828141178388,0.8245514591011851,166,2026-10-08 00:31:45.335244,67.8,0.012237523820094921,0.3324932478454694,0.10964309175166045
0229,cdot_cos,R,Q-R,167,33,29305,0.01313816237210478,0.04724658350922525,0.03332554359945582,0.905464432349711,858.0,4.566298486738159,0.5874297784064929,7.59126728775999,-0.11348116331153574,0.054,0.9999999999998903,-83.7010652247997,0.829518611520918,167,2026-10-08 00:31:45.389244,67.8,0.44740847211692086,0.912158287057296,1.3266536871882761
0229,cdot_cos,S,R-S,168,33,29323,-0.006817675120600989,-0.09676415261765883,-0.01995583749270577,0.2053793976631237,858.0,4.59317228263218,0.5876769954884397,7.617166012341222,-0.04302493040081809,0.018,0.9999999999998873,284.9974296108473,0.8344857332500542,168,2026-10-08 00:31:45.407244,67.8,0.19445244961871122,1.1256569373486613,1.4929886607789478
0229,cdot_cos,T,S-T,169,33,29561,-0.2718426705063957,-0.026882586794447015,-0.2650249953857947,1.5714300129605766e-08,858.0,4.606822136482711,0.5876769955073533,7.639802509246675,-0.02195009302201733,0.238,0.9999999999998831,1114266105.882999,0.8394530486252212,169,2026-10-08 00:31:45.645243,67.8,0.38284495207696256,0.19332605681632684,0.057352327103070366
0229,cdot_cos,P,T-P,170,34,29980,0.050615140163448535,-6.79718418843369e-05,0.32245781066984425,0.9999999996799807,859.0,4.6851954856767515,0.588880070785523,7.6780583666856455,-0.12717985583370178,0.419,0.9999999999998833,-87.46731374264466,0.8444205273709373,170,2026-10-08 00:31:46.064243,67.8,0.43718053612367364,0.11050039427312952,0.18704856609556283
0229,cdot_cos,Q,P-Q,171,34,30090,-0.022105113445784256,-0.02019540823578317,-0.07272025360923279,0.007171570543917783,859.0,4.699421466883593,0.5888886949061247,7.700720645771878,-0.023315029008439663,0.11,0.9999999999998783,12043.526710888551,0.8493877303766019,171,2026-10-08 00:31:46.174243,67.8,0.011622127932118113,0.4047391439290307,0.12932710188037919
0229,cdot_cos,R,Q-R,172,34,30150,0.017928099415551835,0.045785126416438254,0.04003321286133609,0.9378623924009002,859.0,4.774238097341138,0.590016042153627,7.737989585652811,-0.12367761766825372,0.06,0.9999999999998779,-89.02544347553352,0.854354888819541,172,2026-10-08 00:31:46.234244,67.8,0.4441977372280733,0.7888660897086213,1.2469438409590843
0229,cdot_cos,S,R-S,173,34,30167,-0.01589869269913296,-0.09203845702525738,-0.0338267921146848,0.09166634227566312,859.0,4.794085397648628,0.5901261781571621,7.761899758677554,-0.03313423003874336,0.017,0.9999999999998735,822.1052582564472,0.8593220082690658,173,2026-10-08 00:31:46.251244,67.8,0.0650483876079751,0.990678114325823,1.1674882533817346
0229,cdot_cos,T,S-T,174,34,30400,-0.2542557899529561,0.037827598479746864,-0.23835709725382315,9.58375477668246e-08,859.0,4.807921153228216,0.590126178272305,7.784300666130737,-0.02317952244676651,0.233,0.9999999999998703,86455248.2642893,0.8642893285062079,174,2026-10-08 00:31:46.484244,67.8,0.6508596254365319,0.20030287036554342,0.05938092523428538
0229,cdot_cos,P,T-P,175,35,30839,0.055163859089662724,-0.0021149538059922093,0.3094196490426188,0.9999999992253827,819.0,4.887426535238971,0.5913270768395299,7.82252374187089,-0.13437177471020287,0.439,0.9999999999998698,-92.59087761290418,0.8692568446471521,175,2026-10-08 00:31:46.923244,67.8,0.43714204634406767,0.10683884272545562,0.18110565378304042
0229,cdot_cos,Q,P-Q,176,35,30949,-0.02182275672805311,-0.020072526996751713,-0.07698661581771583,0.00537989205985098,819.0,4.901725657141166,0.5913335346109256,7.84492774580363,-0.0244005997674179,0.11,0.9999999999998642,17029.276541954405,0.8742240507570206,176,2026-10-08 00:31:47.033243,67.8,0.011032557731849921,0.4080875924548815,0.12999201729268445
0229,cdot_cos,R,Q-R,177,35,31005,0.016734090803260885,0.04813203150244783,0.038556847531314,0.9317669871562521,819.0,4.977205805579045,0.5924515069196841,7.882056574993067,-0.12987313440199916,0.056,0.9999999999998632,-94.34270760401418,0.8791912059610257,177,2026-10-08 00:31:47.089243,67.8,0.4439160866774135,0.8739347205627809,1.3478597935335472
0229,cdot_cos,S,R-S,178,35,31023,-0.01181122556634296,-0.09663060776308328,-0.028545316369603845,0.1261571226710503,819.0,4.999606345844198,0.5926028021497844,7.906309444970181,-0.03892033337572354,0.018,0.9999999999998592,601.1610608340509,0.8841583248904628,178,2026-10-08 00:31:47.107244,67.8,0.09662703015804616,1.0117968880212214,1.2444744591751564
0229,cdot_cos,T,S-T,179,35,31259,-0.2578408550097301,0.007530561107660547,-0.24602962944338713,5.6966131311556215e-08,819.0,5.013630493547809,0.5926028022180976,7.928487069549036,-0.02445553945274611,0.236,0.9999999999998547,211742505.4737032,0.8891256576492426,179,2026-10-08 00:31:47.343244,67.8,0.5535113020518447,0.20053096018909122,0.05942435467631846
0229,cdot_cos,P,T-P,180,36,31658,0.041905064870804455,0.001506198168732366,0.29974591988053456,0.9999999985074404,859.0,5.094256959053449,0.593801439171536,7.9666842899376995,-0.1417954016813598,0.399,0.9999999999998547,-97.89441406091032,0.8940931543565404,180,2026-10-08 00:31:47.742244,67.8,0.4371279260402286,0.11947442774266523,0.20207134211939823
0229,cdot_cos,Q,P-Q,181,36,31788,-0.02791162202357338,-0.027666273654034356,-0.06981668689437784,0.00871832692973127,859.0,5.108971086886456,0.5938118843904694,7.988923940939309,-0.02612117790728166,0.13,0.9999999999998489,11074.370438023283,0.8990603840479644,181,2026-10-08 00:31:47.872243,67.8,0.011933933818823088,0.3529457170966071,0.11318559871543817
0229,cdot_cos,R,Q-R,182,36,31835,0.012547615584393573,0.040173036185784244,0.04045923760796695,0.9395245419288143,859.0,5.186022845498567,0.5949370070789888,8.026141150963607,-0.13789442279516417,0.047,0.9999999999998482,-99.34316144221688,0.9040275307007009,182,2026-10-08 00:31:47.919244,67.8,0.4446040451086653,1.0942485177745664,1.6393991194066146
0229,cdot_cos,S,R-S,183,36,31853,-0.010596646875885372,-0.09981756581097885,-0.023144262460278946,0.1723331787450335,859.0,5.211830447557265,0.5951432759380848,8.050951138383647,-0.046640021924386835,0.018,0.9999999999998439,442.4051273212063,0.9089946483163185,183,2026-10-08 00:31:47.937243,67.8,0.1413425973611115,1.111894062869058,1.433755669927687
0229,cdot_cos,T,S-T,184,36,32098,-0.22298512656398733,0.018498842987893123,-0.21238847968810196,5.574241034006722e-07,859.0,5.226051031761853,0.595143276605222,8.07291830635231,-0.02579866483515415,0.245,0.9999999999998391,31239984.84315252,0.9139620008370232,184,2026-10-08 00:31:48.182244,67.8,0.4458171695039581,0.19584334714548116,0.058043200835051906
0229,cdot_cos,P,T-P,185,37,32517,0.04039482221522459,0.0006824173357329899,0.26337994877921195,0.9999999824315392,879.0,5.307793687658551,0.5963395303969049,8.111096726685348,-0.14951679304705062,0.419,0.9999999999998388,-103.42130497062185,0.9189295377920086,185,2026-10-08 00:31:48.601243,67.8,0.43716129236754103,0.11540097987340933,0.19508987087517435
0229,cdot_cos,Q,P-Q,186,37,32647,-0.028299617741365125,-0.027453522206430728,-0.06869443995658972,0.009401099785365302,879.0,5.32275705289577,0.596350771089298,8.133142477161565,-0.027620751748901124,0.13,0.9999999999998326,10844.175521861767,0.923896772081966,186,2026-10-08 00:31:48.731244,67.8,0.0121162826544746,0.35980409885397147,0.11510280951706901
0229,cdot_cos,R,Q-R,187,37,32696,0.014100431783741998,0.041955522126934826,0.04240004952510712,0.946582683817969,879.0,5.401342753360583,0.5974820599267044,8.170446621826487,-0.14620390783228465,0.049,0.9999999999998319,-104.82129069287458,0.9288639209650869,187,2026-10-08 00:31:48.780244,67.8,0.4443776037330519,1.0472206519231793,1.6037898054043593
0229,cdot_cos,S,R-S,188,37,32713,-0.01252279724688815,-0.10115427286044057,-0.02662322903063015,0.141236845118103,879.0,5.425384676784241,0.5976507676390189,8.194576812843533,-0.04515039880269452,0.017,0.9999999999998276,598.9857111050376,0.9338310359824893,188,2026-10-08 00:31:48.797244,67.8,0.10665529486093213,1.1309443279844726,1.4142307896269388
0229,cdot_cos,T,S-T,189,37,32957,-0.2061016057685684,0.031151700270798242,-0.19357880852168025,1.995441531198356e-06,879.0,5.439794860512055,0.5976507700224148,8.216342020945492,-0.027158240273123503,0.244,0.9999999999998221,7548959.172227676,0.9387983983072796,189,2026-10-08 00:31:49.041243,67.8,0.5155641544746934,0.19928231027461665,0.059058130032025036
0229,cdot_cos,P,T-P,190,38,33396,0.046971147128600545,-0.0012297784489219469,0.25307275289716896,0.9999999646629089,840.0,5.522634444198254,0.5988446088056002,8.254505691415348,-0.15736783940545548,0.439,0.9999999999998216,-109.06799223334995,0.9437659778060334,190,2026-10-08 00:31:49.480243,67.8,0.4371749085418763,0.11133026598463949,0.18870064621002008
0229,cdot_cos,Q,P-Q,191,38,33506,-0.02906688660128209,-0.027294822669006017,-0.07603803372988263,0.005735212882248885,840.0,5.537542834046569,0.5988514523585501,8.276294269310862,-0.028573385586955078,0.11,0.9999999999998151,18819.8227969629,0.9487331943213332,191,2026-10-08 00:31:49.590244,67.8,0.01102602225747264,0.43184481200885555,0.13553081680286058
0229,cdot_cos,R,Q-R,192,38,33565,0.015456235094029588,0.0436640590393491,0.04452312169531168,0.9534103795744157,840.0,5.617640302840202,0.5999885733330473,8.313688105838006,-0.15468755028681475,0.059,0.9999999999998143,-110.90655042715899,0.9537003546532886,192,2026-10-08 00:31:49.649244,67.8,0.4425139790625926,0.8754989376410336,1.3575842168412466
0229,cdot_cos,S,R-S,193,38,33583,-0.01329264597528839,-0.10159941420400889,-0.02874888106931798,0.12464343811988221,840.0,5.640851708688211,0.6001371547286817,8.337374381535273,-0.045236370714553165,0.018,0.9999999999998092,736.6412134236651,0.9586674691613856,193,2026-10-08 00:31:49.667244,67.8,0.08896258750327558,1.0501731992503693,1.289522547111578
0229,cdot_cos,T,S-T,194,38,33816,-0.20711105167383692,0.017625506232127854,-0.19381840569854852,1.963288136579737e-06,840.0,5.655446538013216,0.6001371570688772,8.358945915845439,-0.028539166166859566,0.233,0.9999999999998033,7134961.449693696,0.9636348298546051,194,2026-10-08 00:31:49.900243,67.8,0.5570708750923401,0.21140472145121414,0.06263875246783213
0229,cdot_cos,P,T-P,195,39,34236,0.04828433272451985,0.004792041934383836,0.2553953843983568,0.9999999698115698,859.0,5.739366308884477,0.601328539613216,8.397098710912978,-0.1653647486996112,0.42,0.9999999999998026,-114.84605275015689,0.9686024093164509,195,2026-10-08 00:31:50.320243,67.8,0.4371771149972927,0.11811607014089771,0.19980897826490693
0229,cdot_cos,Q,P-Q,196,39,34365,-0.02169420172816118,-0.02519199095952058,-0.06997853445268104,0.00862400194114675,859.0,5.75466403693157,0.6013388089041657,8.418746092264414,-0.03040654034206033,0.129,0.9999999999997962,13141.920802359165,0.9735696517567402,196,2026-10-08 00:31:50.449243,67.8,0.011814120081764436,0.3555000475465158,0.11858703912475328
0229,cdot_cos,R,Q-R,197,39,34422,0.008528876655689282,0.03709698646554938,0.030223078383850462,0.8858591461016223,859.0,5.831085321151478,0.60239319601343,8.454994215699335,-0.15297371340656363,0.057,0.9999999999997942,-116.24494645996153,0.9785368104013841,197,2026-10-08 00:31:50.506243,67.8,0.44877649819409565,0.9878718888083142,1.3407242845597878
0229,cdot_cos,S,R-S,198,39,34440,-0.0035216940248729597,-0.1002331870591786,-0.012050570680562242,0.30639474983951365,859.0,5.867281432255718,0.6027576594480223,8.481554886886133,-0.07313578284191284,0.018,0.9999999999997898,219.05607802319744,0.9835039233667289,198,2026-10-08 00:31:50.524243,67.8,0.33566562131164207,1.4164942834957235,2.0108950613466625
0229,cdot_cos,T,S-T,199,39,34675,-0.2368922614821767,0.0021920739142504463,-0.23337056745730375,1.3438935605746184e-07,859.0,5.882079115357324,0.6027576596078563,8.50294597416582,-0.030029684308820526,0.235,0.9999999999997841,269692863.357078,0.988471297850112,199,2026-10-08 00:31:50.759244,67.8,0.23800832979393516,0.21235005957972525,0.0629688642621537
0229,cdot_cos,P,T-P,200,40,35095,0.05123336801941214,-0.001053881894890583,0.2881256295015888,0.9999999967183442,858.0,5.9670859602581885,0.6039463870758711,8.541094597673158,-0.1737954865849794,0.42,0.9999999999997834,-120.94092728945812,0.9934389000036353,200,2026-10-08 00:31:51.179244,67.8,0.43726646099096733,0.11946895346390712,0.20239724976396367
0229,cdot_cos,Q,P-Q,201,40,35224,-0.02328586820759536,-0.02127914771092056,-0.0745192362270075,0.006353319770467388,858.0,5.982433036267006,0.6039539355329757,8.562527859679637,-0.031642451754902136,0.129,0.9999999999997761,18832.064998215923,0.9984061475904661,201,2026-10-08 00:31:51.308243,67.8,0.011192867655220979,0.37368492144653864,0.11896958146369953
0229,cdot_cos,R,Q-R,202,40,35264,0.016713813704926403,0.04299723055145949,0.03999968191252176,0.9377297746903033,858.0,6.0634966699913955,0.6050675189081698,8.59962827474343,-0.16832071274758792,0.04,0.9999999999997751,-122.73733968852217,1.003373285927415,202,2026-10-08 00:31:51.348243,67.8,0.4439643800723702,1.289714893513716,2.0265908431097435
0229,cdot_cos,S,R-S,203,40,35282,-0.015586612777604637,-0.09292388348050147,-0.032300426482531036,0.10065490740540779,858.0,6.085610227748103,0.605186985193419,8.622590335357886,-0.04630506843852678,0.018,0.9999999999997686,1021.3395691895319,1.008340397416097,203,2026-10-08 00:31:51.366244,67.8,0.07171619863500812,1.0301195504430392,1.2285309864837521
0229,cdot_cos,T,S-T,204,40,35514,-0.25124449859698583,0.04238522646532874,-0.23565788581938119,1.1508385807853275e-07,858.0,6.100580973807345,0.6051869853300037,8.6438021451992,-0.03144394407433656,0.232,0.9999999999997623,108805156.28398497,1.0133077789339744,204,2026-10-08 00:31:51.598243,67.8,0.6233651706283698,0.21772372072975857,0.06452907784155977
0229,cdot_cos,P,T-P,205,41,35953,0.0517648709437216,0.002062195364006887,0.30300936954070745,0.9999999988037034,860.0,6.186634034166711,0.606373190551948,8.681945975751887,-0.18204925781767456,0.439,0.9999999999997623,-126.96396117399983,1.0182754267621095,205,2026-10-08 00:31:52.037244,67.8,0.4372379066059159,0.11581197380044875,0.19602063863181346
0229,cdot_cos,Q,P-Q,206,41,36083,-0.019649138673617544,-0.019978861621165068,-0.07141400961733914,0.0078304824622095,860.0,6.202263886804139,0.6063824741840301,8.703229083138082,-0.03333904581922077,0.13,0.9999999999997539,16018.537861437546,1.0232426803431158,206,2026-10-08 00:31:52.167244,67.8,0.011556098918748026,0.3681468799304225,0.1202296356725222
0229,cdot_cos,R,Q-R,207,41,36132,0.014524453770268436,0.04647338310064927,0.03417359244388598,0.9102727337595518,860.0,6.282352222948621,0.6074611465433195,8.739847273027571,-0.171984809138081,0.049,0.9999999999997529,-128.53371287848614,1.0282098299811393,207,2026-10-08 00:31:52.216243,67.8,0.4465735271581513,1.0900297853993797,1.6344558396833053
0229,cdot_cos,S,R-S,208,41,36149,-0.009755979029761408,-0.09359936283265671,-0.024280432800029846,0.16162138394702338,860.0,6.309086805773278,0.607652558482468,8.763693164417983,-0.05789211793634497,0.017,0.9999999999997464,596.0583843895681,1.0331769384443337,208,2026-10-08 00:31:52.233243,67.8,0.13934797059962375,1.2318367011085494,1.5726225190974845
0229,cdot_cos,T,S-T,209,41,36393,-0.23615981887131704,0.01927517839182958,-0.22640383984155563,2.1552680353499773e-07,860.0,6.3242346707863115,0.6076525587376993,8.78473446902531,-0.03291089348401651,0.244,0.9999999999997397,97876813.52389115,1.0381443467226825,209,2026-10-08 00:31:52.477243,67.8,0.46810792355901776,0.20950943585574427,0.06208141398784199
0229,cdot_cos,P,T-P,210,42,36813,0.04519398302566962,0.002363635943809883,0.28135380189698667,0.9999999948061353,859.0,6.411327410470881,0.608836144219453,8.822877358774392,-0.19054768674050657,0.42,0.9999999999997384,-133.1858118290914,1.043111992393297,210,2026-10-08 00:31:52.897243,67.8,0.43723580074788804,0.12264189306618244,0.20736366591564231
0229,cdot_cos,Q,P-Q,211,42,36942,-0.023487387845847838,-0.026724991735711322,-0.06868137087151746,0.009409355224661513,859.0,6.427253860961905,0.6088472749414322,8.844021089616039,-0.0351265337709128,0.129,0.99999999999973,13963.258920642129,1.0480792496094162,211,2026-10-08 00:31:53.026243,67.8,0.011978902485148296,0.3756768638963774,0.12346085651956186
0229,cdot_cos,R,Q-R,212,42,37000,0.010567312750478787,0.04382510759798751,0.03405470059632663,0.9096121710703422,859.0,6.508252041356147,0.6099227572141864,8.880613001445477,-0.1798161089168921,0.058,0.9999999999997292,-134.53459793013678,1.0530464116811507,212,2026-10-08 00:31:53.084243,67.8,0.44724308389223044,1.0049047475071786,1.39652035162486
0229,cdot_cos,S,R-S,213,42,37018,-0.0034222938357879725,-0.09305260216124002,-0.013989606586266759,0.2791875246168954,859.0,6.5438228116727375,0.6102526415756226,8.906347710809708,-0.07965447157061425,0.018,0.9999999999997238,303.6265099388293,1.0580135197724367,213,2026-10-08 00:31:53.102243,67.8,0.2843778314749209,1.4142732240558509,1.9761539064772689
0229,cdot_cos,T,S-T,214,42,37253,-0.24195881164313057,0.005331864465033143,-0.2385365178073426,9.467877392882967e-08,859.0,6.559165877422157,0.6102526416874768,8.927230141166481,-0.03449212123110476,0.235,0.9999999999997163,403760907.8379517,1.0629809283120804,214,2026-10-08 00:31:53.337244,67.8,0.26999478093477675,0.2201772040298832,0.06528964148689274
0229,cdot_cos,P,T-P,215,43,37672,0.05155611331023098,0.006568729640764439,0.29351492495336157,0.9999999977227834,861.0,6.647306097566783,0.6114333991999255,8.965377225017216,-0.1994894942910554,0.419,0.9999999999997154,-139.7385757197382,1.0679485966436038,215,2026-10-08 00:31:53.756243,67.8,0.4373165144497688,0.12439997436095844,0.210358520631564
0229,cdot_cos,Q,P-Q,216,43,37821,-0.017598990672023147,-0.022863814936391755,-0.06915510398225413,0.009114647988404076,861.0,6.6634130559366405,0.6114441553999655,8.986360990702137,-0.0367425961469569,0.149,0.9999999999997066,15130.519843199394,1.0729158875566696,216,2026-10-08 00:31:53.905244,67.8,0.011921886207598181,0.31610288285821425,0.10810039174401256
0229,cdot_cos,R,Q-R,217,43,37865,0.00877410341071916,0.04492443550048659,0.026373094082742306,0.8566936547282941,861.0,6.74150475665853,0.6124546541183233,9.02202434805154,-0.17922969143887169,0.044,0.999999999999704,-141.0067056032269,1.0778830304235265,217,2026-10-08 00:31:53.949243,67.8,0.45158251839690927,1.3622023661998626,1.7748113800429541
0229,cdot_cos,S,R-S,218,43,37883,0.0001695081953616016,-0.08911545902934269,-0.008604595215357558,0.3581525707061495,861.0,6.783286864162228,0.6128768209247747,9.049021745267952,-0.09671364933493158,0.018,0.9999999999996986,195.45838479712123,1.0828501368300771,218,2026-10-08 00:31:53.967244,67.8,0.4260495818656737,1.5922850520830127,2.321228194649885
0229,cdot_cos,T,S-T,219,43,38112,-0.2871959271051268,-0.05121862899907797,-0.2873654353004884,3.4552310190373056e-09,861.0,6.798827018533519,0.6128768209288467,9.069752625557259,-0.03612348247303003,0.229,0.9999999999996908,14879834932.059656,1.0878175492513127,219,2026-10-08 00:31:54.196243,67.8,0.18687657389821696,0.2286460221978692,0.0678609361191726
0229,cdot_cos,P,T-P,220,44,38533,0.039860503525901765,0.0036840184777786433,0.32705643063102857,0.9999999997657016,878.0,6.8880067423288525,0.6140546562784723,9.107906439265868,-0.20866345769524164,0.421,0.9999999999996902,-146.4890447353662,1.0927852452965108,220,2026-10-08 00:31:54.617243,67.8,0.4374111817204837,0.12574934613453753,0.2118283225542365
0229,cdot_cos,Q,P-Q,221,44,38680,-0.022464860788399914,-0.025185840334680264,-0.062325364314301676,0.014405148374074011,878.0,6.9047079679787995,0.6140716134557601,9.128835012392983,-0.039379335054471463,0.147,0.9999999999996809,9983.036667474491,1.097752540237542,221,2026-10-08 00:31:54.764243,67.8,0.013584769260202169,0.3388106188301882,0.11361377993161244
0229,cdot_cos,R,Q-R,222,44,38721,0.01155536851731117,0.04363692064353133,0.03402022930571108,0.9094198312445473,878.0,6.987617064264928,0.615141585015769,9.165407434267426,-0.19669695502078327,0.041,0.9999999999996789,-147.02972101894636,1.1027196787175035,222,2026-10-08 00:31:54.805243,67.8,0.4494202204422656,1.4200857482805396,2.0221730801494706
0229,cdot_cos,S,R-S,223,44,38739,-0.005428708735347273,-0.09385599930376362,-0.016984077252658443,0.2402114784779843,878.0,7.021154999337804,0.6154240188052775,9.190244683744087,-0.0802116530079027,0.018,0.9999999999996723,412.4340158292504,1.1076867834743545,223,2026-10-08 00:31:54.823244,67.8,0.23404914133602728,1.368410948810375,1.863218615159775
0229,cdot_cos,T,S-T,224,44,38970,-0.23497881122935196,0.01976432051928799,-0.2295501024940047,1.7412417841554067e-07,878.0,7.036879858422101,0.6154240190099796,9.21082755682709,-0.03774092324679575,0.231,0.9999999999996639,207475857.06660435,1.1126542109640438,224,2026-10-08 00:31:55.054244,67.8,0.32454761474923677,0.22926880972333877,0.06807298304890713
0229,cdot_cos,P,T-P,225,45,39411,0.04691820188038451,0.004435507272050247,0.28189701310973647,0.9999999949939442,898.0,7.127077189429986,0.6165989525921056,9.248988632918289,-0.21786065556448656,0.441,0.999999999999663,-153.30205473552098,1.1176219622096988,225,2026-10-08 00:31:55.495244,67.8,0.43746185372460705,0.12104652795868565,0.20452909525597496
0229,cdot_cos,Q,P-Q,226,45,39559,-0.020900491972968924,-0.02282974161288503,-0.06781869385335343,0.009970466085359087,898.0,7.143642896081662,0.6166106603993844,9.269695349731059,-0.04031358803201947,0.148,0.9999999999996529,15164.84370684825,1.1225892652632807,226,2026-10-08 00:31:55.643244,67.8,0.012226500948873778,0.33941893437536363,0.1119304503491607
0229,cdot_cos,R,Q-R,227,45,39599,0.013254875099877673,0.04351798411793563,0.034155367072846596,0.9101717568172254,898.0,7.227545194005094,0.6176788573063012,9.306274944095026,-0.20540074593845237,0.04,0.9999999999996512,-154.5474966623218,1.1275564018123614,227,2026-10-08 00:31:55.683244,67.8,0.4476551814781719,1.414797457201078,2.097557448085796
0229,cdot_cos,S,R-S,228,45,39616,-0.009272045254957674,-0.09157347847843865,-0.022526920354835347,0.17838537806979451,898.0,7.256826692657748,0.6178880813198482,9.329910032574743,-0.07223336589586966,0.017,0.9999999999996434,636.4822937148197,1.1325235031132217,228,2026-10-08 00:31:55.700243,67.8,0.15825120969903794,1.3287698591749673,1.7224410972149642
0229,cdot_cos,T,S-T,229,45,39849,-0.2208158503485743,0.037121518030745995,-0.21154380509361662,5.902789733415333e-07,898.0,7.272723369217043,0.6178880820121001,9.350347974772934,-0.03933720045721104,0.233,0.9999999999996341,47520511.495515145,1.1374909455399094,229,2026-10-08 00:31:55.933243,67.8,0.43332772322332286,0.2298058373372312,0.06822607965362446
0229,cdot_cos,P,T-P,230,46,40309,0.04738845257444402,-0.0013425909927509399,0.26820430292301833,0.9999999873328239,879.0,7.363916212856898,0.6190601473019256,9.3885166821806,-0.22705748558142505,0.46,0.9999999999996331,-160.16196943445257,1.1424587524186047,230,2026-10-08 00:31:56.393243,67.8,0.43746777135608356,0.11693736082264669,0.1982453122605549
0229,cdot_cos,Q,P-Q,231,46,40438,-0.029917385702946865,-0.0264499952883064,-0.07730583827739088,0.005265311047176754,879.0,7.380305741173878,0.6190663149341755,9.40899831152421,-0.04110734295240147,0.129,0.9999999999996222,30149.356364660347,1.147426031241207,231,2026-10-08 00:31:56.522244,67.8,0.010850694471651585,0.40544287560714753,0.12705060710836982
0229,cdot_cos,R,Q-R,232,46,40480,0.015162502908959116,0.038113242190822724,0.04507988861190598,0.9550587359306918,879.0,7.468520474763542,0.6201844058420835,9.446372406405619,-0.22257240047521482,0.042,0.9999999999996203,-162.29901901479013,1.1523931705483816,232,2026-10-08 00:31:56.564243,67.8,0.44250301775548934,1.3284356629596192,2.1003507997539135
0229,cdot_cos,S,R-S,233,46,40498,-0.017875515772210946,-0.09908406251433188,-0.03303801868117006,0.09621748379993757,879.0,7.491894336862486,0.6202969775384461,9.468427408155556,-0.05941038000247069,0.018,0.9999999999996113,1449.4053633788317,1.1573602714786373,233,2026-10-08 00:31:56.582243,67.8,0.06416127504654308,1.0953838360225159,1.2985478943857587
0229,cdot_cos,T,S-T,234,46,40728,-0.20781708745776412,0.0434052618781353,-0.18994157168555317,2.553511432207278e-06,879.0,7.507954292860353,0.6202969805258096,9.488724201179023,-0.04092790253760003,0.23,0.9999999999996019,6186886.083546185,1.1623277207620306,234,2026-10-08 00:31:56.812243,67.8,0.6366175244874445,0.23528421231969116,0.06982589564289962
0229,cdot_cos,P,T-P,235,47,41188,0.04965548842477137,0.0017700511439815514,0.25747257588253547,0.9999999737773073,879.0,7.600125074529544,0.6214661835266369,9.52690127110519,-0.23630294490222126,0.46,0.999999999999601,-167.10104423816003,1.1672955540742165,235,2026-10-08 00:31:57.272243,67.8,0.437447309364427,0.11839752905644071,0.20037126449824133
0229,cdot_cos,Q,P-Q,236,47,41317,-0.02167910952837887,-0.02119207859376581,-0.07133459795315024,0.007872423551235257,879.0,7.616880019592278,0.6214753824099323,9.547291286589047,-0.04326480907387447,0.129,0.9999999999995898,20984.95324148272,1.1722628380614561,236,2026-10-08 00:31:57.401243,67.8,0.011541780312806635,0.40029955505881903,0.12988329505995697
0229,cdot_cos,R,Q-R,237,47,41364,0.01447796071109692,0.04067154068921177,0.03615707023947579,0.920667375289065,879.0,7.703402359734719,0.6225505728655066,9.584049602067255,-0.224684363705357,0.047,0.9999999999995869,-168.73248240896018,1.1772299853530963,237,2026-10-08 00:31:57.448243,67.8,0.4459975440065868,1.1955984695354234,1.8409008540944864
0229,cdot_cos,S,R-S,238,47,41381,-0.01413420618407724,-0.09263875203366075,-0.02861216689517416,0.12565830291608193,879.0,7.729266275728608,0.6226972282117835,9.60651032190056,-0.0676467170866965,0.017,0.999999999999578,1070.793875609326,1.1821970825598402,238,2026-10-08 00:31:57.465244,67.8,0.09813238860776488,1.2377892798848722,1.521406823169937
0229,cdot_cos,T,S-T,239,47,41627,-0.22636770783960453,0.03298622838510577,-0.2122335016555273,5.633121198051739e-07,879.0,7.745487195250805,0.6226972288691727,9.626670908116187,-0.042541292423829834,0.246,0.9999999999995679,38189594.2845249,1.187164570890588,239,2026-10-08 00:31:57.711244,67.8,0.5542482987420814,0.22227447923338034,0.06593869724470215
0229,cdot_cos,P,T-P,240,48,42067,0.052279818508907366,-0.004900649771293629,0.27864752634851186,0.9999999937601038,859.0,7.838625319511431,0.6238635226650601,9.664857612960521,-0.24569086968338477,0.44,0.9999999999995663,-174.18387886131623,1.1921323964351849,240,2026-10-08 00:31:58.151244,67.8,0.43742486180654955,0.12493635334798495,0.21167755513778727
0229,cdot_cos,Q,P-Q,241,48,42176,-0.022192359293167808,-0.016666442899562456,-0.07447217780207517,0.0063734933966758675,859.0,7.855431186197031,0.6238709514437046,9.685087341127948,-0.04464494624525134,0.109,0.9999999999995541,27063.11939784426,1.1970996509067107,241,2026-10-08 00:31:58.260243,67.8,0.011073305766960143,0.48897164819970657,0.15418226317064548
0229,cdot_cos,R,Q-R,242,48,42223,0.021651208289095124,0.04318567764859765,0.04384356758226293,0.9513205398054191,859.0,7.945221138818967,0.6249791309339929,9.72239933836785,-0.23986568042165407,0.047,0.9999999999995524,-176.16346078162425,1.2020667982583961,242,2026-10-08 00:31:58.307244,67.8,0.443137477936431,1.1648276324759093,1.9104245238709718
0229,cdot_cos,S,R-S,243,48,42240,-0.024223612563477697,-0.08925887814724245,-0.04587482085257282,0.0426838585736262,859.0,7.964924983649767,0.6250288221528295,9.743240842389907,-0.05299898997819308,0.017,0.9999999999995418,3760.557595860499,1.2070338935356946,243,2026-10-08 00:31:58.324243,67.8,0.029426672018533464,1.061049895755323,1.1590496959293992
0229,cdot_cos,T,S-T,244,48,42486,-0.27091069619275226,0.062227317965003436,-0.24668708362927458,5.448260696075694e-08,859.0,7.981296835274648,0.6250288222162547,9.763268066770538,-0.04413651880169573,0.246,0.9999999999995309,139731173.12454674,1.2120013946099066,244,2026-10-08 00:31:58.570244,67.8,0.8180786586641967,0.22450973021885975,0.06655224237756584
0229,cdot_cos,P,T-P,245,49,42926,0.04622558435840931,-0.0004100556562448126,0.31713628055116155,0.9999999995409399,879.0,8.075383770917446,0.6261922353034416,9.801464707139825,-0.2550853323875537,0.44,0.9999999999995294,-181.3189278246143,1.2169692454503758,245,2026-10-08 00:31:59.010243,67.8,0.4373709826065104,0.12651134077945603,0.21383394464272226
0229,cdot_cos,Q,P-Q,246,49,43055,-0.0215595885944735,-0.01936285578113452,-0.0677851729528828,0.009992925205424403,879.0,8.09262681516057,0.6262038538672509,9.821629776012571,-0.04707232157924885,0.129,0.9999999999995164,17903.50461753061,1.221936539930788,246,2026-10-08 00:31:59.139244,67.8,0.012046164606720443,0.413963377003539,0.13366700963661632
0229,cdot_cos,R,Q-R,247,49,43097,0.018195679227410395,0.044924941888600294,0.03975526782188389,0.9367550862702619,879.0,8.182186322184359,0.627292351309349,9.858679312289517,-0.24581613994151255,0.042,0.9999999999995145,-182.58547119703894,1.226903677999244,247,2026-10-08 00:31:59.181243,67.8,0.44552319118047895,1.3417264915476763,2.1323692148521323
0229,cdot_cos,S,R-S,248,49,43115,-0.016973734846304222,-0.09066834046603706,-0.035169414073714614,0.08436337131149672,879.0,8.205331840450574,0.6273903173570174,9.880158763432211,-0.0639611898779247,0.018,0.9999999999995036,1856.3058773084717,1.231870773035951,248,2026-10-08 00:31:59.199244,67.8,0.05823855193770428,1.1019959795826535,1.2858621259008471
0229,cdot_cos,T,S-T,249,49,43365,-0.23293102812401603,0.04295352684048924,-0.21595729327771182,4.3762435923793797e-07,879.0,8.221858177449334,0.6273903178651766,9.900058391910342,-0.04578006199464978,0.25,0.999999999999492,35778410.680623256,1.2368382945194825,249,2026-10-08 00:31:59.449243,67.8,0.6722394052767707,0.22311491842464903,0.06610534799504109
0229,cdot_cos,P,T-P,250,50,43805,0.04600452870034012,0.0021269033538857214,0.27893555682435617,0.9999999938807773,879.0,8.316889299662899,0.6285507583391687,9.938266393130197,-0.2646992378098112,0.44,0.9999999999994906,-188.6517927645552,1.2418061713251665,250,2026-10-08 00:31:59.889244,67.8,0.43733807421376864,0.12765080043646496,0.215979823212646
0229,cdot_cos,Q,P-Q,251,50,43934,-0.023869763315460396,-0.025537514368817148,-0.06987429201580052,0.008684637942359292,879.0,8.334190881833424,0.6285608298743622,9.958282879139123,-0.04851854641186538,0.129,0.9999999999994772,21464.522264435265,1.2467734711154732,251,2026-10-08 00:32:00.018244,67.8,0.011613001271246098,0.41389460176362075,0.13412079201957294
0229,cdot_cos,R,Q-R,252,50,43988,0.013078547530412283,0.042270724162051056,0.036948310845872676,0.9244982606261325,879.0,8.423674106917913,0.6296323259065735,9.995109890302084,-0.2522462895581541,0.054,0.9999999999994751,-190.13392212555115,1.2517406313319104,252,2026-10-08 00:32:00.072243,67.8,0.4459028958651089,1.1086741161335996,1.657096760823875
0229,cdot_cos,S,R-S,253,50,44006,-0.010143199343914378,-0.09987403427069166,-0.02322174687432666,0.1715851460990658,879.0,8.453927686375852,0.6298310535618307,10.018082783004802,-0.08587287583131568,0.018,0.9999999999994648,837.193059574519,1.2567077242420488,253,2026-10-08 00:32:00.090244,67.8,0.14407252266870024,1.304013762510782,1.680754414329972
0229,cdot_cos,T,S-T,254,50,44245,-0.21180776301439186,0.025293286546459376,-0.20166456367047747,1.1533283594503004e-06,879.0,8.470618602368301,0.6298310548974527,10.037861846330921,-0.04750789646582457,0.239,0.9999999999994524,28724427.80726969,1.2616752387862002,254,2026-10-08 00:32:00.329243,67.8,0.4459495152111103,0.23570789277142853,0.06983646858765126
0229,cdot_cos,P,T-P,255,51,44684,0.051141536758573705,0.0033241183475396546,0.26294929977296555,0.9999999819110131,879.0,8.566596059120595,0.6309883648944913,10.07608287372335,-0.2746462144281984,0.439,0.9999999999994514,-196.26402480199633,1.2666431410784929,255,2026-10-08 00:32:00.768243,67.8,0.4373500052138477,0.12924197653268174,0.21862746412823278
0229,cdot_cos,Q,P-Q,256,51,44813,-0.01820399982070392,-0.020338487907176368,-0.06934553657927763,0.008998774406236839,879.0,8.584093057763996,0.6309987724507529,10.095987324645714,-0.05040179373998711,0.129,0.9999999999994374,21546.30876375549,1.2716104465759026,256,2026-10-08 00:32:00.897243,67.8,0.01168866492996918,0.4074124505382378,0.13563564839845252
0229,cdot_cos,R,Q-R,257,51,44870,0.012624603792775765,0.04367579418131211,0.030828603613479687,0.8899449904764412,879.0,8.67170847135946,0.6320274372968405,10.132177625600875,-0.2536362890143321,0.057,0.9999999999994342,-197.57114870534474,1.2765776130988487,257,2026-10-08 00:32:00.954243,67.8,0.44875275854489577,1.0570738819882115,1.5371125192186839
0229,cdot_cos,S,R-S,258,51,44888,-0.00773052321344945,-0.09505098266391751,-0.020355127006225215,0.20099653536955353,879.0,8.704599480310652,0.6322595982603358,10.155599957845174,-0.09585525249277067,0.018,0.9999999999994232,679.6191493439501,1.2815447039326793,258,2026-10-08 00:32:00.972243,67.8,0.19281302690256563,1.3817788458076032,1.8272782750661738
0229,cdot_cos,T,S-T,259,51,45123,-0.22402089781643694,0.0254205088274535,-0.2162903746029875,4.278522864995825e-07,879.0,8.721452509808534,0.6322595987544612,10.175262310807872,-0.04925590541362577,0.235,0.999999999999411,94306721.31952037,1.2865122240463156,259,2026-10-08 00:32:01.207244,67.8,0.3882653830299948,0.24205714008687476,0.07171501913992591
0229,cdot_cos,P,T-P,260,52,45563,0.046254923598559004,0.002881307821153301,0.27027582141499595,0.9999999889926291,879.0,8.818366336151483,0.6334137353116512,10.21349675343701,-0.2847205864495035,0.44,0.9999999999994102,-204.0180423789458,1.2914801560023355,260,2026-10-08 00:32:01.647244,67.8,0.43735823701091603,0.13027030464272518,0.22025869623397396
0229,cdot_cos,Q,P-Q,261,52,45692,-0.021926452375187252,-0.024087744217006813,-0.06818137597374625,0.009730640249802597,879.0,8.836090377894132,0.6334249583078557,10.23330080479667,-0.05241067088283827,0.129,0.9999999999993948,20699.45595043721,1.2964474672670043,261,2026-10-08 00:32:01.776243,67.8,0.011884827528040827,0.41366344473896394,0.13739567242364056
0229,cdot_cos,R,Q-R,262,52,45748,0.00993771909875355,0.0366473859511804,0.0318641714739408,0.8966357759285247,879.0,8.925091504894135,0.6344584855952762,10.269615232394733,-0.2644549127423446,0.056,0.9999999999993927,-205.16559595512982,1.3014146324572113,262,2026-10-08 00:32:01.832243,67.8,0.44851361880285573,1.1135246553552072,1.589305839285769
0229,cdot_cos,S,R-S,263,52,45766,-0.0077088823143157,-0.0955801278041727,-0.01764660141306925,0.23210920163086754,879.0,8.960805139293916,0.6347258302112382,10.29353067526798,-0.10683026872564268,0.018,0.9999999999993814,589.5934857319243,1.3063817212388722,263,2026-10-08 00:32:01.850244,67.8,0.22867168133800092,1.4648104168503275,1.9840907999877861
0229,cdot_cos,T,S-T,264,52,46003,-0.22914145017572246,0.023876615190015334,-0.22143256786140675,3.0191255849139277e-07,879.0,8.977824679900747,0.6347258305589288,10.313081547317859,-0.051060701729736986,0.237,0.9999999999993683,160399959.98451635,1.3113492591578582,264,2026-10-08 00:32:02.087244,67.8,0.3354706098738957,0.2423347667724919,0.0718124076237622
0229,cdot_cos,P,T-P,265,53,46442,0.05236401488181211,0.0034414799780832298,0.2815054650575346,0.9999999948592688,899.0,9.075671818744077,0.6358766845838264,10.35133010034233,-0.29503612287502334,0.439,0.9999999999993668,-211.99510612738442,1.3163172177279516,265,2026-10-08 00:32:02.526243,67.8,0.4373882355198819,0.1316657340472779,0.2228864210554203
0229,cdot_cos,Q,P-Q,266,53,46571,-0.018768881618561096,-0.018895583858178983,-0.0711328965003732,0.007979956256000861,899.0,9.093427194394257,0.6358858621198068,10.370992461917544,-0.053879617305908706,0.129,0.9999999999993513,26276.82485627858,1.3212845349978788,266,2026-10-08 00:32:02.655244,67.8,0.011380666963358472,0.4212591160090347,0.13763857093163165
0229,cdot_cos,R,Q-R,267,53,46625,0.015340751735685007,0.045120339084692394,0.034109633354246105,0.9099179198760816,899.0,9.184356670674408,0.6369316848578216,10.407557451745241,-0.2772386467798438,0.054,0.9999999999993486,-213.57255044762312,1.3262516966908524,267,2026-10-08 00:32:02.709243,67.8,0.44679465205282226,1.1042392044912457,1.683879190373157
0229,cdot_cos,S,R-S,268,53,46643,-0.011796624729821228,-0.08621194225966565,-0.027137376465506236,0.13706144925230407,899.0,9.212685028479312,0.6370891058178441,10.429606141732094,-0.08691885976981308,0.018,0.9999999999993362,1208.9863191208162,1.3312187833793845,268,2026-10-08 00:32:02.727243,67.8,0.1119586239134064,1.263892408296336,1.5737976558280034
0229,cdot_cos,T,S-T,269,53,46881,-0.2641164104247466,0.05023955115047766,-0.25231978569492536,3.7187933100667646e-08,899.0,9.229856797373076,0.6370891058605519,10.449046227794303,-0.05281782817406538,0.238,0.9999999999993221,798472453.2599152,1.3361863367771352,269,2026-10-08 00:32:02.965244,67.8,0.5243295556200409,0.24355201476628094,0.07215028946959681
0229,cdot_cos,P,T-P,270,54,47341,0.05032809090941507,0.006040957019659487,0.3144445013341617,0.9999999994490281,919.0,9.328615787508062,0.6382367578079682,10.48730819728477,-0.3052596843745734,0.46,0.9999999999993208,-219.9637762727907,1.3411543679661486,270,2026-10-08 00:32:03.425244,67.8,0.4373707211800566,0.12690549975505072,0.21469345681518626
0229,cdot_cos,Q,P-Q,271,54,47490,-0.019062655420690515,-0.021634912232990154,-0.06939074633010558,0.00897148048775396,919.0,9.346609857147723,0.6382470468330567,10.506880851429154,-0.05596811580719154,0.149,0.9999999999993047,24228.881397753965,1.346121733869207,271,2026-10-08 00:32:03.574244,67.8,0.011629954991389172,0.36431369185571233,0.12076556805141606
0229,cdot_cos,R,Q-R,272,54,47534,0.012588529213101857,0.042819647263587744,0.03165118463379237,0.8952897426049437,919.0,9.437181267681064,0.6392731792550544,10.543171860734292,-0.28299816796983546,0.044,0.9999999999993013,-221.24829826606378,1.351088873926175,272,2026-10-08 00:32:03.618243,67.8,0.448327392756176,1.4081348617948983,2.0584411484850293
0229,cdot_cos,S,R-S,273,54,47552,-0.008313486409522059,-0.08995783707297819,-0.020902015622623914,0.19510771674744215,919.0,9.470525724985674,0.6394966328011608,10.566226966152147,-0.10484664014023146,0.018,0.9999999999992891,797.2642678261445,1.356055958232213,273,2026-10-08 00:32:03.636243,67.8,0.1828365007474642,1.4076082532244154,1.8524698502560988
0229,cdot_cos,T,S-T,274,54,47800,-0.21088491449476954,0.03464005564255295,-0.20257142808524747,1.0845516212025795e-06,919.0,9.487855164797143,0.6394966340431114,10.585561343104034,-0.05463587447842929,0.248,0.9999999999992741,40428953.85829532,1.3610235472702286,274,2026-10-08 00:32:03.884243,67.8,0.39891486069301296,0.23588432961554257,0.06987677343334343
0229,cdot_cos,P,T-P,275,55,48260,0.05045887080885014,0.00536109942332259,0.2613437853036197,0.9999999798307904,899.0,9.587524352474983,0.6406409669906443,10.623837216456574,-0.3157342483020984,0.46,0.9999999999992727,-228.1664391351975,1.365991608443303,275,2026-10-08 00:32:04.344243,67.8,0.4373785833342442,0.12797030792060443,0.21667214712573898
0229,cdot_cos,Q,P-Q,276,55,48409,-0.020955276707266445,-0.02418550318602703,-0.07141414751611659,0.007830409824437843,899.0,9.605587848084099,0.640649921296495,10.643284811376788,-0.05757451052417368,0.149,0.9999999999992554,28830.79292608893,1.370958981490231,276,2026-10-08 00:32:04.493243,67.8,0.0112890263644113,0.36917723179627066,0.12123151415514183
0229,cdot_cos,R,Q-R,277,55,48452,0.011777276126284734,0.043777401149290726,0.03273255283355118,0.9019664079891638,899.0,9.697539167550271,0.6416806897385755,10.679704160024492,-0.2943873368759778,0.043,0.9999999999992522,-229.7439625468375,1.3759261187436174,277,2026-10-08 00:32:04.536243,67.8,0.4473446309780598,1.492838611792404,2.138402778283082
0229,cdot_cos,S,R-S,278,55,48469,-0.006149537945850023,-0.09220107790585556,-0.017926814072134756,0.2287402751515415,899.0,9.733971968698246,0.6419418868715274,10.703319259185209,-0.11737963753066716,0.017,0.9999999999992396,677.6785692279966,1.3808931983409813,278,2026-10-08 00:32:04.553244,67.8,0.22135373744083908,1.5860071852640527,2.143105949880835
0229,cdot_cos,T,S-T,279,55,48719,-0.20692237262503593,0.021793949182235078,-0.2007728346791859,1.2252086322132803e-06,899.0,9.75146341184925,0.6419418882703603,10.722552556216867,-0.05651054980370952,0.25,0.9999999999992241,43514197.36291051,1.3858608068308145,279,2026-10-08 00:32:04.803244,67.8,0.340572292672844,0.23613678490025336,0.06996577260401438
0229,cdot_cos,P,T-P,280,56,49159,0.05314643149303783,0.0042484565260518985,0.26006880411807376,0.9999999780097122,879.0,9.852040361148372,0.6430827914112721,10.760842513467717,-0.32644560945374035,0.44,0.9999999999992227,-236.59770051494982,1.390828853270268,280,2026-10-08 00:32:05.243244,67.8,0.43740690805769045,0.13490779061750102,0.2285839756798252
0229,cdot_cos,Q,P-Q,281,56,49288,-0.02043821076367057,-0.021601289214872595,-0.0735846422567084,0.00676611740641961,879.0,9.87018226759265,0.6430905053884847,10.780170780824243,-0.05923979031863664,0.129,0.9999999999992047,34639.17662347566,1.3957961878647274,281,2026-10-08 00:32:05.372243,67.8,0.01099208185719052,0.4314943773327249,0.14063493367657226
0229,cdot_cos,R,Q-R,282,56,49340,0.013114575228065063,0.042347751781285935,0.03355278599173563,0.906775039521908,879.0,9.963365910500215,0.6441236372329935,10.816684828377177,-0.3055995920019063,0.052,0.9999999999992013,-238.45920827307074,1.4007633457487163,282,2026-10-08 00:32:05.424243,67.8,0.446573061804885,1.2034539217361102,1.7919931328377925
0229,cdot_cos,S,R-S,283,56,49358,-0.010122158454602237,-0.09156711894379467,-0.0232367336826673,0.17144076129946773,879.0,9.995341475453206,0.6443188173960578,10.839129816713132,-0.10550104107422775,0.018,0.999999999999187,1025.1992199727638,1.4057304253695597,283,2026-10-08 00:32:05.442244,67.8,0.150070512347111,1.378320609970057,1.7764202751661253
0229,cdot_cos,T,S-T,284,56,49598,-0.23265072862520128,0.028495869684474213,-0.22252857017059904,2.8029104201245313e-07,879.0,10.012985452459137,0.6443188177151217,10.858263320576079,-0.05835976113943305,0.24,0.9999999999991712,147748717.23452517,1.4106980254398733,284,2026-10-08 00:32:05.682244,67.8,0.4458510868662631,0.24815133527773536,0.07351657085804912
0229,cdot_cos,P,T-P,285,57,50038,0.04860332457239756,0.004734631555619737,0.28125405319759883,0.9999999947708904,899.0,10.114454116386518,0.6454563300928013,10.896566739064673,-0.33713306806368326,0.44,0.9999999999991693,-245.07276790508365,1.4156661011922136,285,2026-10-08 00:32:06.122243,67.8,0.4374057664453869,0.13629408500951098,0.23061059983495724
0229,cdot_cos,Q,P-Q,286,57,50167,-0.0210652989103401,-0.022134550068313708,-0.06966862348273767,0.008805513817137694,899.0,10.132924247267507,0.6454663391938701,10.915836357042247,-0.06173257256662313,0.129,0.9999999999991509,27515.007951825453,1.420633441868826,286,2026-10-08 00:32:06.251244,67.8,0.011548657140125908,0.4393021315221116,0.14317930915494945
0229,cdot_cos,R,Q-R,287,57,50224,0.01437954115460144,0.045451039368503775,0.035444840064941543,0.9170679640217827,899.0,10.227794066319223,0.6465080584682474,10.95255122998422,-0.3184336096634357,0.057,0.9999999999991477,-246.42055053675202,1.4256006120771578,287,2026-10-08 00:32:06.308243,67.8,0.44657998543166344,1.1068997847701274,1.664382790380988
0229,cdot_cos,S,R-S,288,57,50242,-0.010043596152352697,-0.08816821976734084,-0.024423137306954137,0.16031466108376569,899.0,10.259110822731301,0.6466900212423172,10.974703754818814,-0.1057425033615959,0.018,0.9999999999991328,1168.8715309443805,1.4305676894489956,288,2026-10-08 00:32:06.326244,67.8,0.13380041822637978,1.3642276092155687,1.7398198006710115
0229,cdot_cos,T,S-T,289,57,50477,-0.2507259047432454,0.03764256346089398,-0.2406823085908927,8.185957118242936e-08,899.0,10.276906260250984,0.6466900213352198,10.99374052993133,-0.06023119690758438,0.235,0.9999999999991155,489882080.10456765,1.4355352918969813,289,2026-10-08 00:32:06.561243,67.8,0.46972390398110847,0.2556345480560394,0.07572526604120114
0229,cdot_cos,P,T-P,290,58,50937,0.042729972830182074,0.0047938507343630995,0.2934558775734275,0.9999999977136484,919.0,10.37925906031764,0.6478240952985528,11.032057138213249,-0.3479448607491208,0.46,0.9999999999991142,-253.69920582248577,1.4405034460413828,290,2026-10-08 00:32:07.021244,67.8,0.4374055771833413,0.1318451272221415,0.22250608710142664
0229,cdot_cos,Q,P-Q,291,58,51086,-0.021656698949615926,-0.02260868235687042,-0.064386671779798,0.012549861828541665,919.0,10.398203777295354,0.6478383172179526,11.051304496804434,-0.06477894802895313,0.149,0.9999999999990945,19910.52717707368,1.445470841774497,291,2026-10-08 00:32:07.170244,67.8,0.012635253798121023,0.3852609231849039,0.12714575152828148
0229,cdot_cos,R,Q-R,292,58,51125,0.014186185504856324,0.04253961848710576,0.03584288445447225,0.9190975060705759,919.0,10.494066815426741,0.6488791550830891,11.088062621534615,-0.3291558050823326,0.039,0.9999999999990914,-254.00388082412735,1.4504379678761263,292,2026-10-08 00:32:07.209243,67.8,0.4478948867440449,1.6198240878962904,2.4580266187535234
0229,cdot_cos,S,R-S,293,58,51142,-0.011705223892645401,-0.08781977834017271,-0.025891409397501723,0.14736267486342006,919.0,10.524550056151265,0.6490459055744491,11.109887103433152,-0.10527745892810722,0.017,0.9999999999990756,1342.5948213307734,1.455405040337326,293,2026-10-08 00:32:07.226244,67.8,0.11924734959954567,1.4243527945041858,1.7931318073248965
0229,cdot_cos,T,S-T,294,58,51377,-0.2053720585662552,0.04779877656448228,-0.19366683467360982,1.983567881592299e-06,919.0,10.542494810439884,0.649045907818741,11.1288298220008,-0.06211713350766538,0.235,0.9999999999990575,19231154.3734639,1.460372656829658,294,2026-10-08 00:32:07.461244,67.8,0.4991634961992248,0.2578150932995438,0.07636065654731523
0229,cdot_cos,P,T-P,295,59,51856,0.04772039039529914,0.003786916636867825,0.25309244896155436,0.9999999647100662,879.0,10.64572315000205,0.6501765103427368,11.167159214136941,-0.35885405499284406,0.479,0.9999999999990563,-262.45910051257624,1.4653408899294722,295,2026-10-08 00:32:07.940243,67.8,0.43740252289043674,0.12736002207671246,0.21550801578740394
0229,cdot_cos,Q,P-Q,296,59,51984,-0.0219452982908005,-0.022276633107860794,-0.06966568868609964,0.008807250672823176,879.0,10.664505711589374,0.6501864603702537,11.18624213531896,-0.06566924147413275,0.128,0.9999999999990354,29465.72891585761,1.4703082399004899,296,2026-10-08 00:32:08.068243,67.8,0.011509663453463069,0.45206602102123433,0.14673876240096917
0229,cdot_cos,R,Q-R,297,59,52037,0.014534941336331661,0.04527476544583246,0.03648023962713216,0.9222530446304261,879.0,10.761452051383486,0.6512276545182981,11.22306555032001,-0.34032258412275007,0.053,0.9999999999990322,-263.78686738153954,1.4752754008484528,297,2026-10-08 00:32:08.121243,67.8,0.44617757776885236,1.2113761322074241,1.829176222530414
0229,cdot_cos,S,R-S,298,59,52054,-0.010390494124034186,-0.09009887401605095,-0.024925435460365845,0.1557831358687371,879.0,10.792911581603361,0.6514033865837435,11.244977331874479,-0.11107210306858623,0.017,0.9999999999990158,1304.5455334124997,1.4802424706938164,298,2026-10-08 00:32:08.138243,67.8,0.12694784635483336,1.457447510724375,1.8505606011691187
0229,cdot_cos,T,S-T,299,59,52295,-0.22403340918173395,0.028349333674212426,-0.21364291505769978,5.119749428312963e-07,879.0,10.811005266748115,0.6514033871612123,11.263828927948675,-0.06402907745767411,0.241,0.9999999999989967,81464194.32538025,1.485210116762862,299,2026-10-08 00:32:08.379244,67.8,0.4796428718757383,0.2535090310959675,0.07507753172096986
0229,cdot_cos,P,T-P,300,60,52735,0.045893533218089255,-0.0003150992016926138,0.2699269423998232,0.999999988729157,899.0,10.915102934591618,0.6525304608929001,11.302170679855458,-0.36990030267975343,0.44,0.9999999999989952,-271.3852844072767,1.4901782818458293,300,2026-10-08 00:32:08.819244,67.8,0.43740235021348917,0.13966614595150534,0.23658560873523318
0229,cdot_cos,Q,P-Q,301,60,52864,-0.026533369475649226,-0.022418364926845732,-0.07242690269373848,0.0073145814310124424,899.0,10.93391147518544,0.6525386986908367,11.321135217937526,-0.06721159379866878,0.129,0.9999999999989738,36743.886073883885,1.4951456406303818,301,2026-10-08 00:32:08.948243,67.8,0.011069969521760701,0.46121473426339044,0.14580264026218673
0229,cdot_cos,R,Q-R,302,60,52904,0.017014907481363764,0.0384176642266254,0.043548276957012994,0.9503849631918986,899.0,11.034096336031572,0.6536082592542299,11.358512532157235,-0.3594363896533297,0.04,0.9999999999989712,-273.219493927076,1.500112767880475,302,2026-10-08 00:32:08.988243,67.8,0.4435217764039815,1.5596153372287924,2.5046215211533163
0229,cdot_cos,S,R-S,303,60,52922,-0.02042154349401397,-0.08916285197182262,-0.03743645097537773,0.07322381571724758,899.0,11.058680702163743,0.653690600926523,11.378735781173503,-0.08869319148256664,0.018,0.9999999999989525,3288.0459022890977,1.5050798381043309,303,2026-10-08 00:32:09.006243,67.8,0.047236823570692525,1.1893858121877365,1.3657981184539303
0229,cdot_cos,T,S-T,304,60,53155,-0.25331094237942153,0.026910639810119052,-0.23288939888540755,1.3884586787397505e-07,899.0,11.07691422527033,0.6536906010826493,11.397497084932144,-0.06590871630185141,0.233,0.9999999999989332,145936144.04964858,1.5100474776555382,304,2026-10-08 00:32:09.239244,67.8,0.7077265771539085,0.2643461396431227,0.07825546397677154
0229,cdot_cos,P,T-P,305,61,53634,0.04273808946271897,0.0008678110055249762,0.2960490318421405,0.9999999980822714,939.0,11.181866003237438,0.6548141985343001,11.435850509961066,-0.3808959662999335,0.479,0.9999999999989317,-280.3381669612179,1.515015776557027,305,2026-10-08 00:32:09.718244,67.8,0.43737514574325986,0.12974835735242735,0.21910600828206142
0229,cdot_cos,Q,P-Q,306,61,53763,-0.022506876324405387,-0.01905217768210933,-0.06524496578712435,0.011848805215845151,939.0,11.201213151613956,0.6548275014901243,11.454815551620847,-0.07060645551186524,0.129,0.9999999999989095,23324.85463306777,1.5199831412550364,306,2026-10-08 00:32:09.847244,67.8,0.01234340054287367,0.46444627262952354,0.14997789439161213
0229,cdot_cos,R,Q-R,307,61,53808,0.01926699403694295,0.0409127965019453,0.04177387036134834,0.9443948437702008,939.0,11.301693141575855,0.6558870165520632,11.492081562188192,-0.3681225964170526,0.045,0.9999999999989063,-280.80406932652164,1.524950281171345,307,2026-10-08 00:32:09.892244,67.8,0.4456601874234563,1.376471483855705,2.2328886658199805
0229,cdot_cos,S,R-S,308,61,53825,-0.021988325593640418,-0.08463835640489609,-0.04125531963058337,0.057480509641193285,939.0,11.32509558516097,0.6559514539367775,11.51191395971322,-0.08620252856488073,0.017,0.9999999999988867,4375.101024074573,1.5299173461098077,308,2026-10-08 00:32:09.909244,67.8,0.03798976507066051,1.2286113251682846,1.3766143285361376
0229,cdot_cos,T,S-T,309,61,54074,-0.20128341522815169,0.07629565101354956,-0.17929508963451127,5.255621286924787e-06,939.0,11.343465926631577,0.655951459828225,11.5305870651144,-0.0677917986191142,0.249,0.9999999999988664,3124992.5902199377,1.5348850429070635,309,2026-10-08 00:32:10.158243,67.8,0.762176181533982,0.2493313134244008,0.0737764717695074
0229,cdot_cos,P,T-P,310,62,54573,0.039955875820425014,0.0009864563373922599,0.2412392910485767,0.999999921174084,959.0,11.449262579246321,0.6570715700022555,11.568951639901695,-0.39194812405250795,0.499,0.9999999999988649,-289.3968226955659,1.5398534289414323,310,2026-10-08 00:32:10.657243,67.8,0.43734240766574484,0.12591300759719806,0.2120173399093071
0229,cdot_cos,Q,P-Q,311,62,54703,-0.02069571723633766,-0.017279544082908254,-0.060651593056762675,0.016108349982019148,959.0,11.46912710821358,0.657089598863698,11.587914565386132,-0.07399666265022356,0.13,0.9999999999988414,17635.69277049346,1.544820801937297,311,2026-10-08 00:32:10.787244,67.8,0.013611569427848656,0.464564871308005,0.1528040689789187
0229,cdot_cos,R,Q-R,312,62,54749,0.019961214350509012,0.04093139234928666,0.040656931586846676,0.9402816414030198,959.0,11.570049445786402,0.6581411985149559,11.625104710312032,-0.37736729893677634,0.046,0.9999999999988383,-288.4849152656803,1.549787943782575,312,2026-10-08 00:32:10.833244,67.8,0.4475739869058199,1.3504224642564482,2.1939638602787364
0229,cdot_cos,S,R-S,313,62,54766,-0.022125070763734617,-0.07904614731867855,-0.04208628511424363,0.054503249334888766,959.0,11.593365974925174,0.6582021067727144,11.644797356901503,-0.08764751280119103,0.017,0.9999999999988183,4756.65856810883,1.5547550057342936,313,2026-10-08 00:32:10.850244,67.8,0.03668047653404219,1.23007803407571,1.3715605375747857
0229,cdot_cos,T,S-T,314,62,55013,-0.18665777630738262,0.07855322647721669,-0.164532705543648,1.4298845834820854e-05,959.0,11.611872098944977,0.6582021227512203,11.663384691698841,-0.0696906764084215,0.247,0.9999999999987965,1123811.9858855614,1.5597227116499301,314,2026-10-08 00:32:11.097243,67.8,0.7728542251052041,0.2533208392588064,0.07492357902754164
0229,cdot_cos,P,T-P,315,63,55532,0.04386233906720298,9.269090096479823e-05,0.2305201153745856,0.9999998369589757,899.0,11.718506469519024,0.6593187110477589,11.701759837342909,-0.4030944629406259,0.519,0.9999999999987954,-298.5915109138693,1.5646911879543697,315,2026-10-08 00:32:11.616243,67.8,0.43731093857653475,0.12136141733931904,0.20546121497889705
0229,cdot_cos,Q,P-Q,316,63,55661,-0.026326829400672262,-0.022176763531474828,-0.07018916846787523,0.00850275768583684,899.0,11.73784525014319,0.6593281975714922,11.720488413081208,-0.07349738955658384,0.129,0.99999999999877,34743.71462601991,1.5696585635696438,316,2026-10-08 00:32:11.745243,67.8,0.011282829804233162,0.47141506608831096,0.14991302809430704
0229,cdot_cos,R,Q-R,317,63,55701,0.016121940462536642,0.03763994323005659,0.042448769863208904,0.9467494623039283,899.0,11.840131556569808,0.6603836857196306,11.757811327909272,-0.39016926341438496,0.04,0.9999999999987673,-300.02409256449806,1.5746256873399904,317,2026-10-08 00:32:11.785243,67.8,0.44413491035482855,1.5998989860227741,2.5571576606654656
0229,cdot_cos,S,R-S,318,63,55719,-0.019994071104755592,-0.08940615345806793,-0.03611601156729223,0.07953618720656758,899.0,11.865837169025012,0.6604722846870049,11.777922105952115,-0.09857343723242112,0.018,0.9999999999987457,3291.1876382253095,1.5795927490773847,318,2026-10-08 00:32:11.803244,67.8,0.05191444281300659,1.2319006357339983,1.4280895808446283
0229,cdot_cos,T,S-T,319,63,55972,-0.19557690538557088,0.04884409198834093,-0.17558283428081528,6.759761672867962e-06,899.0,11.884479979456232,0.6604722922165329,11.79642642271415,-0.07162343813608284,0.253,0.9999999999987236,3579241.4999220013,1.5845604870635104,319,2026-10-08 00:32:12.056243,67.8,0.6864145984085438,0.24923268720277666,0.07368699775186018
0229,cdot_cos,P,T-P,320,64,56431,0.047068899085465896,0.0013267831612940736,0.24264580447103679,0.9999999283437613,919.0,11.991948908749617,0.6615852774504669,11.834811509160813,-0.4144112181229474,0.459,0.9999999999987219,-307.9895128304943,1.589528825653041,320,2026-10-08 00:32:12.515244,67.8,0.43728584214474625,0.13825692657040187,0.23413710085704653
0229,cdot_cos,Q,P-Q,321,64,56561,-0.023728233229193818,-0.020185271116666223,-0.07079713231465971,0.008162202221718784,919.0,12.011399838047861,0.6615943545295767,11.853451996653323,-0.07540256237692688,0.13,0.9999999999986967,37347.76921576865,1.5944962103003963,321,2026-10-08 00:32:12.645243,67.8,0.01115370859064219,0.471157251159452,0.14962253306341958
0229,cdot_cos,R,Q-R,322,64,56603,0.01861902300382637,0.041926632184188906,0.042347256233020186,0.9464014065425308,919.0,12.114449794051074,0.6626460275201445,11.890772613215312,-0.4009054606583051,0.042,0.999999999998693,-309.5096110680341,1.599463339101315,322,2026-10-08 00:32:12.687244,67.8,0.44400504982000666,1.5264289396037838,2.4535703810288805
0229,cdot_cos,S,R-S,323,64,56621,-0.019219653706287726,-0.07969076246567376,-0.037838676710114094,0.07139455847101697,919.0,12.13961986897458,0.6627252984624395,11.91064689857889,-0.09843076408476051,0.018,0.9999999999986714,3815.707090342724,1.6044303982647643,323,2026-10-08 00:32:12.705244,67.8,0.046283530194001804,1.2207624440355602,1.3983374957502708
0229,cdot_cos,T,S-T,324,64,56871,-0.23452931657037587,0.07258199209030923,-0.21530966286408815,4.57268267603853e-07,919.0,12.158397242036354,0.6627252989701253,11.929070164820592,-0.07356437123086278,0.25,0.9999999999986486,48979888.19207995,1.6093981431886353,324,2026-10-08 00:32:12.955244,67.8,0.7131794333371084,0.25414634663768254,0.07510949224710117
0229,cdot_cos,P,T-P,325,65,57350,0.04314219294291596,-8.041744060843956e-05,0.27767150951329184,0.9999999933332167,939.0,12.26669304229342,0.6638346578542083,11.967464465163138,-0.4257991171832534,0.479,0.9999999999986465,-317.5119891373779,1.6143665732936463,325,2026-10-08 00:32:13.434243,67.8,0.4372578496688013,0.13379195421452278,0.22608726567237156
0229,cdot_cos,Q,P-Q,326,65,57479,-0.022748045707405462,-0.01901373094360804,-0.06589023865032143,0.011347357175453448,939.0,12.286569934173867,0.66384723581129,11.986089326796957,-0.07856100745042953,0.129,0.9999999999986207,27606.876655379227,1.6193339609803785,326,2026-10-08 00:32:13.563244,67.8,0.012034468679178165,0.4797295743606936,0.1540844331817584
0229,cdot_cos,R,Q-R,327,65,57521,0.019780729577046584,0.04003908777776338,0.04252877528445205,0.9470222695774428,939.0,12.39046327247848,0.6648961408377253,12.023426375783345,-0.41205764888659,0.042,0.9999999999986172,-317.94741471451584,1.6243010889237208,327,2026-10-08 00:32:13.605243,67.8,0.44514971266722875,1.5159967599775157,2.473650912014574
0229,cdot_cos,S,R-S,328,65,57539,-0.0235742877226707,-0.08404179596012791,-0.04335501729971729,0.05023654671965885,939.0,12.413913662011979,0.6649517365991591,12.042803660390486,-0.09348034712957021,0.018,0.9999999999985937,5730.244420458941,1.6292681453389952,328,2026-10-08 00:32:13.623244,67.8,0.03310866686488674,1.1766648571097784,1.3027994185277336
0229,cdot_cos,T,S-T,329,65,57789,-0.20428773932365699,0.08032368835490482,-0.18071345160098629,4.773757667081892e-06,939.0,12.432823207334431,0.6649517418819617,12.061147688157144,-0.07550791580715549,0.25,0.9999999999985701,3402063.7430346822,1.6342359056380242,329,2026-10-08 00:32:13.873244,67.8,0.788186538865861,0.2560471603036021,0.07563818128981126
0229,cdot_cos,P,T-P,330,66,58289,0.0434591548103566,0.0001416118407208583,0.24774689413401357,0.9999999492949067,959.0,12.54193724216378,0.6660574676340576,12.099550472945804,-0.4372295078823431,0.5,0.9999999999985684,-327.1349983389186,1.6392044332226252,330,2026-10-08 00:32:14.373244,67.8,0.4372265900293635,0.12923008527259583,0.21822806965869646
0229,cdot_cos,Q,P-Q,331,66,58419,-0.021041801809856535,-0.016917970642278655,-0.06450095662021313,0.012454201244389833,959.0,12.562053292607027,0.6660712270940671,12.118120036688698,-0.08102228824230596,0.13,0.9999999999985411,25888.168532391108,1.6441718297069434,331,2026-10-08 00:32:14.503244,67.8,0.012321491511181724,0.47830703400446595,0.15473884956344308
0229,cdot_cos,R,Q-R,332,66,58461,0.0201489608447356,0.03914835709048445,0.041190762654592136,0.9422819020179728,959.0,12.66629707100494,0.6671114434225823,12.155365248243216,-0.42128919466768083,0.042,0.9999999999985382,-327.1116758098317,1.6491389565520214,332,2026-10-08 00:32:14.545243,67.8,0.4458912824878467,1.5175184201987495,2.481994723759846
0229,cdot_cos,S,R-S,333,66,58478,-0.02458274175113512,-0.08109211909422895,-0.044731702595870726,0.04596546856720322,959.0,12.689524839903722,0.667162144701105,12.174582960451545,-0.0943395366475057,0.017,0.9999999999985139,6448.5485878595655,1.6541060068819373,333,2026-10-08 00:32:14.562243,67.8,0.031252074090757934,1.2431658556084373,1.3663393469871423
0229,cdot_cos,T,S-T,334,66,58709,-0.19364385722378277,0.09471255593598277,-0.16906111547264766,1.0518718771851865e-05,959.0,12.708564710095628,0.6671621563031219,12.192849592187496,-0.07745931998126483,0.231,0.9999999999984887,1454938.120477178,1.6590737233335495,334,2026-10-08 00:32:14.793243,67.8,0.8041868501028115,0.2791447878373875,0.08242368048443917
0229,cdot_cos,P,T-P,335,67,59248,0.045753242952829364,-0.008099576312392328,0.23939710017661214,0.9999999106874196,879.0,12.818489731884595,0.6682642264903614,12.231260073339456,-0.44872662419237747,0.539,0.999999999998488,-336.881723605164,1.664042408168347,335,2026-10-08 00:32:15.332243,67.8,0.4371933601369157,0.12021674876270565,0.2039425265101439
0229,cdot_cos,Q,P-Q,336,67,59355,-0.02955333553086995,-0.01826655270352507,-0.07530657848369932,0.006025051232721123,879.0,12.838158365261824,0.6682708609508524,12.249624190038816,-0.08069651419571179,0.107,0.9999999999984586,55472.500061881976,1.6690097378374298,336,2026-10-08 00:32:15.439244,67.8,0.010455059666652862,0.5939286577034146,0.18381900352550587
0229,cdot_cos,R,Q-R,337,67,59394,0.021130463599807928,0.03474991978204733,0.05068379913067787,0.9688218005938342,879.0,12.945590464633126,0.6693368045151565,12.287407408314218,-0.442236643235769,0.039,0.9999999999984562,-339.1737997649833,1.6739768541144204,337,2026-10-08 00:32:15.478244,67.8,0.4415224566417632,1.651378118277026,2.754669214648759
0229,cdot_cos,S,R-S,338,67,59411,-0.03358454519318257,-0.09107685973665439,-0.054715008792990495,0.023900209611910778,879.0,12.966965858487432,0.66936307875003,12.306107513546904,-0.08842640456528639,0.017,0.9999999999984305,13466.052974507324,1.678943901444113,338,2026-10-08 00:32:15.495244,67.8,0.018293981822179835,1.192462360203356,1.2573761090768483
