record_id,input,event,transition,event_index,k,peak,value_cos,value_sin,value_return,x_input,rr,knowledge,decision,decision_norm,entropy,delta_t,cosine_similarity,delta_h_over_delta_d,frobenius_norm,matrix_size,timestamp,scale,P,zdot,zdot_back
0155,cdot_cos,Q,P-Q,1,0,1625,-0.01826090517763352,-0.019287451573609164,-0.04961143699670217,0.2243862202819271,839.0,0.001114558113547293,0.500278639499542,0.500278639499542,,,1.0,,0.004967141530112327,1,2026-10-07 20:01:17.709243,25.0,,,
0155,cdot_cos,R,Q-R,2,0,1654,0.2184158244297969,0.3753220121874242,0.23667672960743041,0.997313747306557,839.0,0.00858195227057892,0.5015170845060422,0.7092522626702584,-1.3057652187486244e-05,,1.0,,0.009934283060224654,2,2026-10-07 20:01:17.738244,25.0,,,
0155,cdot_cos,S,R-S,3,0,1708,-0.000704734032722799,-0.01201434555723897,-0.2191205584625197,0.0041602384862871105,839.0,0.010546493982331831,0.5015222505816599,0.8686620191337249,-6.776750177115963e-06,0.054,1.0,1.2157975366848837,0.014901424598227832,3,2026-10-07 20:01:17.792243,25.0,0.3958060421092297,0.03365685294782219,0.03638040206949834
0155,cdot_cos,T,S-T,4,0,1916,-0.22230944543383485,0.05395913090061803,-0.22160471140111204,0.003910710677579058,839.0,0.012216892388943718,0.5015271067998582,1.00305421360039,-6.8570519174214835e-06,0.208,1.0000000000000002,-0.01653585918624371,0.01986856616081155,4,2026-10-07 20:01:18.000243,25.0,0.9883574790541151,0.03416912975799553,0.008030761570249454
0155,cdot_cos,P,T-P,5,1,2355,0.08659315977806877,0.013554999099668105,0.3089026052119036,0.9995574724147127,799.0,0.02476085196165797,0.5027683191189825,1.1242241384874467,-8.36462161804091e-05,0.439,1.0,-0.061866260171482126,0.024835707837982078,5,2026-10-07 20:01:18.439244,25.0,0.399307625976961,0.018064722680398337,0.028573939801171417
0155,cdot_cos,Q,P-Q,6,1,2452,-0.011993138224065766,-0.011532712122661921,-0.09858629800213453,0.07837326407920982,799.0,0.028077718902333456,0.5028656388032208,1.2317642242594924,-3.160453454097657e-05,0.097,1.0,0.5347497995574299,0.029802849404113093,6,2026-10-07 20:01:18.536243,25.0,0.19269389837158554,0.09633158457069851,0.034194504543046254
0155,cdot_cos,R,Q-R,7,1,2482,0.24736988182841715,0.4089464858796952,0.2593630200524829,0.9984747575654968,799.0,0.04344917936837348,0.5041054692723616,1.333737706259794,-0.00019826214293566406,0.03,0.9999999999999999,-0.13441967474003416,0.03476999093506706,7,2026-10-07 20:01:18.566243,25.0,0.4314549456100497,0.42326677614752783,0.5123820155346676
0155,cdot_cos,S,R-S,8,1,2541,0.24736988182841715,0.4089464858796952,0.0,0.5,799.0,0.053473725471185125,0.5047263134539571,1.42758159556535,-0.0001752011224941218,0.059,1.0,0.03714461877096924,0.039737132546660406,8,2026-10-07 20:01:18.625243,25.0,0.8766688204575492,0.11244421851835523,0.16990756106460414
0155,cdot_cos,T,S-T,9,1,2753,-0.21389677186402592,0.04623505221851441,-0.4612666536924431,9.814240089661403e-06,799.0,0.0567175971535394,0.504726325640048,1.5141789769561784,-6.445502887890443e-05,0.212,1.0,9087.90968289614,0.04470427450300901,9,2026-10-07 20:01:18.837244,25.0,0.17939025181556487,0.05184272404225917,0.015301281520539022
0155,cdot_cos,P,T-P,10,2,3154,0.026939202383757133,0.001614167299255769,0.24083597424778305,0.9975783929768496,741.0,0.07545504046510301,0.5059649616757177,1.600001695250396,-0.00044655466040904456,0.401,1.0000000000000002,-0.3084841878700582,0.04967141708677056,10,2026-10-07 20:01:19.238244,25.0,0.42500195835344023,0.03225597328963285,0.04672679130065739
0155,cdot_cos,Q,P-Q,11,2,3261,-0.02621308773701388,-0.031355380901775115,-0.05315229012077101,0.2093567279904295,741.0,0.08258688773182495,0.5062248991638552,1.678958050336588,-0.000203231763541131,0.107,0.9999999999999998,0.9360823581523459,0.054638558855374574,11,2026-10-07 20:01:19.345243,25.0,0.3020181849953208,0.13047922744444146,0.06665277819366293
0155,cdot_cos,R,Q-R,12,2,3290,0.18448318578736853,0.4127988576585299,0.21069627352438242,0.9948694917600721,741.0,0.10337759513821349,0.5074600815606963,1.7578932884880665,-0.000697087243950527,0.029,0.9999999999999997,-0.3998239301923107,0.05960570035486936,12,2026-10-07 20:01:19.374244,25.0,0.492403995511627,0.43690447472956256,0.7169209450478806
0155,cdot_cos,S,R-S,13,2,3345,0.025286508352919596,-0.05551132961121666,-0.15919667743444893,0.01834438644610717,741.0,0.10792734726613958,0.5074828562651014,1.8297554600312058,-0.0001733343607291732,0.055,0.9999999999999997,22.997131989362114,0.06457284204861122,13,2026-10-07 20:01:19.429244,25.0,0.04872157447579794,0.08001476150007686,0.08272276596229255
0155,cdot_cos,T,S-T,14,2,3554,-0.160326519051202,-0.024397014537647903,-0.18561302740412158,0.009562233681741842,741.0,0.11217921890322194,0.5074947278433858,1.8988713975825928,-0.000168733030014221,0.209,0.9999999999999999,0.3875921637978052,0.0695399846420259,14,2026-10-07 20:01:19.638243,25.0,0.9730985791177154,0.06537561440183523,0.020343883431016094
0155,cdot_cos,P,T-P,15,3,3895,0.049913069755639194,0.0004084285234887043,0.21023958880684118,0.9948108861811608,778.0,0.1352543540861067,0.5087297436482228,1.97030182550537,-0.0010293309340173146,0.341,1.0,-0.6968314904412827,0.07450712829934507,15,2026-10-07 20:01:19.979244,25.0,0.4334082987231512,0.04492533849085321,0.06766901813162686
0155,cdot_cos,Q,P-Q,16,3,4000,-0.017181507493882045,-0.018354588126934693,-0.06709457724952124,0.1574447771149884,778.0,0.14281829975398383,0.5089251953278342,2.0357007823563644,-0.0003791864678705869,0.105,1.0,3.326369297205507,0.07947427035839122,16,2026-10-07 20:01:20.084243,25.0,0.18003982841147026,0.15425598211381103,0.07203757778930601
0155,cdot_cos,R,Q-R,17,3,4027,0.22695705982567357,0.42065975780505604,0.24413856731955563,0.9977698731245337,778.0,0.167648110330007,0.5101637592541063,2.103459066959615,-0.0013896105007554322,0.027,1.0000000000000002,-0.8158028919234627,0.08444141180327602,17,2026-10-07 20:01:20.111244,25.0,0.48329525557457104,0.551150327223091,0.9196226139267845
0155,cdot_cos,S,R-S,18,3,4085,-0.00010699910167759615,-0.0022574624417301087,-0.22706405892735118,0.0034134874425738684,778.0,0.17258041742403074,0.5101679963206718,2.164459499669289,-0.0003025002554783793,0.058,0.9999999999999997,256.57143414513814,0.08940855365122857,18,2026-10-07 20:01:20.169244,25.0,0.027495034841649352,0.08356196030974881,0.08503977748316775
0155,cdot_cos,T,S-T,19,3,4292,-0.2610153362192359,0.03295141127698303,-0.2609083371175583,0.0014675263771911974,778.0,0.17734129772593787,0.5101698179197017,2.223778681673974,-0.00030030530470033544,0.207,0.9999999999999997,1.204958249294008,0.09437569715089576,19,2026-10-07 20:01:20.376243,25.0,0.9927175819632662,0.0762556388354208,0.02299942174834364
0155,cdot_cos,P,T-P,20,4,4673,0.040529014690187506,-0.0007423211722674465,0.3015443509094234,0.9994681455884803,779.0,0.20415025190189495,0.5114103642181604,2.28709667936714,-0.0018434149848016224,0.381,0.9999999999999998,-1.2438952758300827,0.09934284303710089,20,2026-10-07 20:01:20.757244,25.0,0.4329673552401113,0.04710599474687462,0.07036470912324692
0155,cdot_cos,Q,P-Q,21,4,4769,-0.02075802455334564,-0.020423638448553952,-0.061287039243533147,0.17767553683175355,779.0,0.21323606572305634,0.5116308819642018,2.3445872471785907,-0.000683520475976298,0.096,0.9999999999999998,5.259869237951119,0.10430998535076748,21,2026-10-07 20:01:20.853244,25.0,0.18324305070360622,0.19459534069647794,0.09464389397043112
0155,cdot_cos,R,Q-R,22,4,4800,0.2343935061886481,0.3997005065182721,0.25515153074199376,0.9983056972982763,779.0,0.24151255731561871,0.5128698185892594,2.4055726827948525,-0.0023173607132153805,0.031,0.9999999999999998,-1.318743997226769,0.10927712678343567,22,2026-10-07 20:01:20.884243,25.0,0.4940870534471116,0.5447265716891242,0.9121448900826573
0155,cdot_cos,S,R-S,23,4,4859,0.0005240585226422642,-0.01357135467772125,-0.23386944766600584,0.0028809898684676915,779.0,0.24700911316778204,0.5128733937894624,2.4596543923992624,-0.00048391718232770377,0.059,0.9999999999999998,512.8226188144263,0.11424426880560645,23,2026-10-07 20:01:20.943244,25.0,0.022623756188794978,0.09203891164166755,0.09316196359598858
0155,cdot_cos,T,S-T,24,4,5071,-0.2457881561565169,0.014397332620639407,-0.24631221467915915,0.0021124222091140747,779.0,0.2523731488893355,0.5128760152252343,2.5125690804065846,-0.0004827488192581828,0.212,0.9999999999999997,0.4456958595154109,0.11921141359552165,24,2026-10-07 20:01:21.155244,25.0,0.9975826966129244,0.08343968315731329,0.025302055290346438
0155,cdot_cos,P,T-P,25,5,5452,0.029521928480617226,0.00207786442755665,0.27531008463713413,0.9989757318373002,760.0,0.2823875388264829,0.5141156242749241,2.570578125397747,-0.002892193017795359,0.381,1.0,-1.9437129788138845,0.1241785620203208,25,2026-10-07 20:01:21.536243,25.0,0.4347059099059808,0.05337560035994433,0.07877792634421887
0155,cdot_cos,Q,P-Q,26,5,5560,-0.02593057831301479,-0.030394346526422776,-0.05545250679363202,0.19999707062074443,760.0,0.29304535636361306,0.5143637762750778,2.6227509379297076,-0.0011050678872661802,0.108,0.9999999999999991,7.201735748340479,0.12914570503441714,26,2026-10-07 20:01:21.644243,25.0,0.19845191402963236,0.19408185658850874,0.0986834957141684
0155,cdot_cos,R,Q-R,27,5,5589,0.18597947888838937,0.402135050498295,0.21191005720140416,0.9950220732403117,760.0,0.32430921984960076,0.5155982702794538,2.6791272073519687,-0.003477274675617941,0.029,0.9999999999999997,-1.9216025188804244,0.13411284634305706,27,2026-10-07 20:01:21.673243,25.0,0.5055022056885264,0.6489210756972508,1.0780642581375068
0155,cdot_cos,S,R-S,28,5,5643,0.021400910663362905,-0.05538550551291938,-0.16457856822502645,0.01607215640613895,760.0,0.3306827787540536,0.5156182089997335,2.7283951111034597,-0.0007521052089926653,0.054,0.9999999999999991,136.6772505152617,0.13907998842627553,28,2026-10-07 20:01:21.727243,25.0,0.026692073373516617,0.11678737772523112,0.11802886860097865
0155,cdot_cos,T,S-T,29,5,5851,-0.14752986742073573,-0.012653917772194004,-0.16893077808409865,0.014439123679347686,760.0,0.3369222566439257,0.5156361217775481,2.776785502709309,-0.0007504598776736092,0.208,0.9999999999999993,0.09185238247722094,0.14404713466875016,29,2026-10-07 20:01:21.935244,25.0,0.9978099708620675,0.09356269540043932,0.029997489855154394
0155,cdot_cos,P,T-P,30,6,6212,0.03463508545211181,0.0012304210052571215,0.18216495287284754,0.989585878421792,778.0,0.36960486004063636,0.5168636764761075,2.830978955377401,-0.004159448241277811,0.361,0.9999999999999996,-2.777056181370034,0.14901428569995892,30,2026-10-07 20:01:22.296243,25.0,0.44061796977119144,0.061336941644005015,0.09053352741471092
0155,cdot_cos,Q,P-Q,31,6,6318,-0.021162001050179482,-0.02323804581986897,-0.05579708650229129,0.19862232827588416,778.0,0.38120752851089734,0.5171100380925514,2.8791468519773726,-0.0015691519548149914,0.106,0.9999999999999988,10.514203973219162,0.15398142932780695,31,2026-10-07 20:01:22.402244,25.0,0.1919036385701828,0.21564792979223,0.10945913651189604
0155,cdot_cos,R,Q-R,32,6,6347,0.21150557629301794,0.4038405568918644,0.23266757734319743,0.9970313929877792,778.0,0.4153222211565891,0.5183465799649589,2.9322110645456214,-0.004893762546412339,0.029,0.9999999999999991,-2.68863567484732,0.15894857055740863,32,2026-10-07 20:01:22.431243,25.0,0.5069429813981667,0.701668044705698,1.176368711920406
0155,cdot_cos,S,R-S,33,6,6402,-0.00025601372920961677,-0.006360478712469149,-0.21176159002222755,0.004996345073773656,778.0,0.42190427510382783,0.5183527759969022,2.977710005787968,-0.0009924381153504898,0.055,0.9999999999999988,629.6488570049277,0.16391571288085294,33,2026-10-07 20:01:22.486243,25.0,0.01962304609879344,0.11954283970094591,0.11967370813161288
0155,cdot_cos,T,S-T,34,6,6610,-0.19463355073650657,0.008867453547785056,-0.19437753700729696,0.007695162851917695,778.0,0.42847193352369317,0.5183623188565264,3.022545756821756,-0.0010058195729134164,0.208,0.9999999999999988,-1.4022481824024846,0.16888286094506424,34,2026-10-07 20:01:22.694243,25.0,0.9867840737277143,0.10124520765457418,0.03157528086473722
0155,cdot_cos,P,T-P,35,7,6990,0.03631224364314089,-1.9191548790660423e-05,0.23094579437964746,0.99690122511973,839.0,0.4640222814881307,0.5195984716969986,3.0739860272137904,-0.005713024075315874,0.38,0.9999999999999984,-3.807947001605734,0.17385001628600288,35,2026-10-07 20:01:23.074244,25.0,0.4386985817730971,0.06336563892219543,0.09355354727483556
0155,cdot_cos,Q,P-Q,36,7,7091,-0.01859859029807096,-0.016910122039016037,-0.05491083394121185,0.2021725430278003,839.0,0.4766298191045617,0.5198491359303934,3.1190948329224244,-0.0021352999341496363,0.101,0.9999999999999986,14.27297422018343,0.17881716044702206,36,2026-10-07 20:01:23.175244,25.0,0.18721199731635124,0.24429873686316295,0.1248271051131784
0155,cdot_cos,R,Q-R,37,7,7119,0.23942260752469222,0.3567242278158647,0.25802119782276317,0.9984228066684168,839.0,0.5133706263344896,0.5210868844904288,3.1696477943580694,-0.006547801425718276,0.028,0.9999999999999981,-3.5649417289100134,0.18378430151724587,37,2026-10-07 20:01:23.203244,25.0,0.509721618642392,0.7804843706287419,1.3121716867831392
0155,cdot_cos,S,R-S,38,7,7178,-0.0008867204650615374,-0.01258918241124757,-0.24030932798975374,0.002453622347511841,839.0,0.5203369438597713,0.5210899259427637,3.212214054773963,-0.0012963198035165439,0.059,0.9999999999999981,1726.636173774098,0.18875144426660345,38,2026-10-07 20:01:23.262244,25.0,0.017403751317624404,0.11883992418824812,0.11807317839460427
0155,cdot_cos,T,S-T,39,7,7387,-0.19264661208568043,0.06011693943563457,-0.1917598916206189,0.008211312506033736,839.0,0.5273937373887029,0.5211001044805139,3.254269128556224,-0.001330967707027409,0.209,0.9999999999999976,-3.4040158184968314,0.19371859448434012,39,2026-10-07 20:01:23.471244,25.0,0.9743037999984401,0.10773272880956714,0.033764562339385774
0155,cdot_cos,P,T-P,40,8,7829,0.018812052096726276,0.0009062256488864082,0.21145866418240672,0.9949658644416013,779.0,0.5653692245021703,0.5223333071288955,3.303525918555018,-0.007468726264137829,0.442,0.9999999999999981,-4.977088368376067,0.19868575743138384,40,2026-10-07 20:01:23.913243,25.0,0.43964198559376827,0.0557500564283799,0.08591739165942858
0155,cdot_cos,Q,P-Q,41,8,7935,-0.05559023559873927,-0.04510230242414873,-0.07440228769546554,0.13469638585310512,779.0,0.5766767872713907,0.5225002349219385,3.3456339466482667,-0.0023241106681715345,0.106,0.9999999999999974,30.819407015338903,0.2036529025732807,41,2026-10-07 20:01:24.019244,25.0,0.10930811894679279,0.2378694936117768,0.10667512046434342
0155,cdot_cos,R,Q-R,42,8,7963,0.19556034601242178,0.36384977316555905,0.25115058161116105,0.9981277951899906,779.0,0.615797557147867,0.5237370449651565,3.3942040123620405,-0.008393847522062613,0.028,0.999999999999997,-4.907574034650214,0.20862004340141838,42,2026-10-07 20:01:24.047244,25.0,0.4852372369806731,0.846335593800554,1.3971703527312958
0155,cdot_cos,S,R-S,43,8,8021,0.056897608324236786,-0.1390385946729333,-0.138662737688185,0.030278575899302346,779.0,0.6240715805242217,0.5237745595827823,3.4346195050010238,-0.0018458403232430745,0.058,0.9999999999999971,174.54548688552396,0.21358718629407017,43,2026-10-07 20:01:24.105243,25.0,0.028798278258516784,0.1423512758031948,0.14265557545439214
0155,cdot_cos,T,S-T,44,8,8228,-0.08069717136620326,-0.0007654196585445562,-0.13759477969044004,0.031072413105044452,779.0,0.6323103051410376,0.5238130574716797,3.474582774561263,-0.0018624301718719867,0.207,0.9999999999999961,-0.430928788669792,0.21855433868047933,44,2026-10-07 20:01:24.312243,25.0,0.9911319202082699,0.1139877344198162,0.03980060201360315
0155,cdot_cos,P,T-P,45,9,8608,0.04111645048264011,-0.00019946669598488274,0.12181362184884337,0.9545809377914898,759.0,0.6712625025740256,0.5249956176426476,3.521777701217579,-0.0091340859289075,0.38,0.9999999999999962,-6.149078867660599,0.22352150312653246,45,2026-10-07 20:01:24.692243,25.0,0.45108427734023526,0.06897590705873739,0.10250578271838962
0155,cdot_cos,Q,P-Q,46,9,8705,-0.019634124047588217,-0.02028962400852792,-0.06075057453022832,0.17964354526966153,759.0,0.684731994505678,0.5252181338921541,3.5622027387755546,-0.00328539445627632,0.097,0.9999999999999952,26.284334225485306,0.22848864860450385,46,2026-10-07 20:01:24.789243,25.0,0.1686027673759758,0.2827532485046571,0.13886074156342645
0155,cdot_cos,R,Q-R,47,9,8734,0.22714762345782277,0.4163994754972607,0.246781747505411,0.9979121776469285,759.0,0.7261166327839291,0.5264540173511757,3.60918694924562,-0.01049993781709958,0.029,0.9999999999999952,-5.83755960819702,0.23345578936880865,47,2026-10-07 20:01:24.818244,25.0,0.5030310219897024,0.84802478078399,1.4270564923534867
0155,cdot_cos,S,R-S,48,9,8779,-0.00014174060550565664,-0.0009024957778330136,-0.22728936406332842,0.0033943796637109945,759.0,0.7339174317911494,0.5264582206412136,3.6474095883778612,-0.002048183359123579,0.045,0.9999999999999952,2010.7473863881437,0.2384229315773219,48,2026-10-07 20:01:24.863244,25.0,0.016139852003361616,0.171660990747576,0.1733510890493401
0155,cdot_cos,T,S-T,49,9,8989,-0.2677892199945314,0.017854042344384764,-0.2676474793890258,0.0012402677165673994,759.0,0.741566121951211,0.5264597564746438,3.6852183395344444,-0.002029495331067313,0.21,0.9999999999999947,12.168004478000077,0.2433900868285856,49,2026-10-07 20:01:25.073244,25.0,0.9908340514130596,0.11972785577174702,0.03642233409553111
0155,cdot_cos,P,T-P,50,10,9367,0.043110445524449696,0.0010215659072940416,0.3108996655189811,0.9995790147295228,759.0,0.7842031312152832,0.5276973778253402,3.7313839918430247,-0.011695678683635687,0.378,0.9999999999999946,-7.810291368300507,0.24835725651893056,50,2026-10-07 20:01:25.451244,25.0,0.4375891728856046,0.07491831775710674,0.11279632080442384
0155,cdot_cos,Q,P-Q,51,10,9474,-0.018989177486584408,-0.021508956668493107,-0.062099623011034104,0.17472684276061656,759.0,0.7982043701755837,0.5279136800519723,3.7700578208700755,-0.003983030900232718,0.107,0.9999999999999936,35.65681178364828,0.2533244038385436,51,2026-10-07 20:01:25.558244,25.0,0.14422559292640472,0.2686807917839275,0.13085270056355586
0155,cdot_cos,R,Q-R,52,10,9500,0.21243863585624886,0.43020471965533635,0.23142781334283327,0.9969382290888775,759.0,0.8417008206570437,0.5291476318701761,3.8157378987847226,-0.012819725230314397,0.026,0.9999999999999934,-7.161296089295002,0.2582915441806511,52,2026-10-07 20:01:25.584243,25.0,0.501925034992924,0.9947872170608278,1.672940403133077
0155,cdot_cos,S,R-S,53,10,9559,2.091318153441129e-05,-0.004330824562202781,-0.21241772267471445,0.004915456533234746,759.0,0.8499333054627467,0.5291537150646612,3.852297254987037,-0.0025028966472559343,0.059,0.9999999999999928,1695.9557364572015,0.2632586878813438,53,2026-10-07 20:01:25.643244,25.0,0.01621277944986348,0.1376797591514317,0.13953364077462788
0155,cdot_cos,T,S-T,54,10,9766,-0.28034174780825183,-0.11607168238271555,-0.28036266098978624,0.0009028358821310034,759.0,0.8579470322369126,0.5291548323813529,3.8884780650914657,-0.0024597864070705247,0.207,0.9999999999999922,38.58372519540631,0.26822584580090814,54,2026-10-07 20:01:25.850244,25.0,0.982626677605407,0.12740562721827348,0.038713655913844916
0155,cdot_cos,P,T-P,55,11,10126,0.03874117787134264,0.002531023437062144,0.31908292567959445,0.9996568751990025,761.0,0.9026792351311119,0.53039178942239,3.933490854649113,-0.014150261945228105,0.36,0.9999999999999922,-9.45099558862282,0.2731930196519241,55,2026-10-07 20:01:26.210243,25.0,0.4377239918601675,0.08386665167997838,0.12425611915055368
0155,cdot_cos,Q,P-Q,56,11,10236,-0.016385873712723268,-0.020728814183964602,-0.0551270515840659,0.2013020553456631,761.0,0.918331021446497,0.5306408322187561,3.9709524586188283,-0.005120670313158224,0.11,0.9999999999999912,36.257188578919994,0.27816016854488484,56,2026-10-07 20:01:26.320243,25.0,0.17146754788649085,0.2776012498913874,0.14228896650350098
0155,cdot_cos,R,Q-R,57,11,10265,0.1847974361350741,0.41916758699980683,0.20118330984779736,0.9935009741507713,761.0,0.9637515101072172,0.5318697257476984,4.01552845316153,-0.015353486354286464,0.029,0.9999999999999913,-8.326853222130364,0.28312730901476385,57,2026-10-07 20:01:26.349244,25.0,0.5135121478943457,0.9370487911046566,1.5662237469213836
0155,cdot_cos,S,R-S,58,11,10316,0.013174409919508332,-0.03938606220731043,-0.17162302621556577,0.013511964360855383,761.0,0.9726798513305671,0.5318864365036042,4.050726501516603,-0.0031051856548594626,0.051,0.9999999999999905,732.9591054086372,0.28809445223373914,58,2026-10-07 20:01:26.400243,25.0,0.019361543574420385,0.17531605049728663,0.1750655141833325
0155,cdot_cos,T,S-T,59,11,10525,-0.15198159748208862,-0.014565016018561089,-0.16515600740159694,0.015845455767135377,761.0,0.9816337472579404,0.5319060330852136,4.085647848647482,-0.0031428148703766573,0.209,0.9999999999999896,-1.9201928309417688,0.2930616136770314,59,2026-10-07 20:01:26.609244,25.0,0.9880982990160597,0.13238051799467826,0.04284160730800612
0155,cdot_cos,P,T-P,60,12,10887,0.03252188728040421,0.0005734831433083408,0.18450348476249284,0.9901714541337303,735.0,1.0280149078523426,0.5331304120937109,4.1296105068357996,-0.016735370545820975,0.362,0.9999999999999891,-11.101591566916795,0.2980287941113911,60,2026-10-07 20:01:26.971244,25.0,0.44387812765981316,0.08561884619424483,0.12812475302321058
0155,cdot_cos,Q,P-Q,61,12,10992,-0.027489780613751638,-0.03161684484115148,-0.06001166789415585,0.18238202221105074,735.0,1.0436217919025736,0.5333558902833625,4.1656427752940095,-0.0058046658790368464,0.105,0.9999999999999883,48.477880205066,0.30299594381592604,61,2026-10-07 20:01:27.076244,25.0,0.15211942448452165,0.30035211998408884,0.14863699095458124
0155,cdot_cos,R,Q-R,62,12,11020,0.19137173848943204,0.4080928882753767,0.2188615191031837,0.9958128456253414,735.0,1.0910888530490013,0.5345867671493647,4.2093405237083,-0.018185817687033142,0.028,0.9999999999999875,-10.058806164916664,0.3079630839959696,62,2026-10-07 20:01:27.104243,25.0,0.5062049819911533,1.0152041077581195,1.6952521838009866
0155,cdot_cos,S,R-S,63,12,11077,0.025938267982702316,-0.06149264134051511,-0.1654334705067297,0.01573764665420929,735.0,1.1004732219370283,0.5346062163645736,4.243305403814027,-0.0036911183719512083,0.057,0.9999999999999872,745.2588271243438,0.31293022834464873,63,2026-10-07 20:01:27.161243,25.0,0.019704413760958363,0.1611472751407434,0.16463805066714163
0155,cdot_cos,T,S-T,64,12,11284,-0.17100990588301127,-0.024349926465495355,-0.1969481738657136,0.007219640103589234,735.0,1.109459642415046,0.534615138650296,4.276921221395062,-0.003564214753486725,0.207,0.9999999999999861,14.22321840091886,0.31789739308595427,64,2026-10-07 20:01:27.368243,25.0,0.9650214687645708,0.13883991970970624,0.043412659314095055
0155,cdot_cos,P,T-P,65,13,11622,0.04343577891131484,-0.0013561004171304047,0.2144456847943261,0.9953264048794275,801.0,1.1579529486968467,0.5358449836043562,4.320120492469256,-0.019726912077992438,0.338,0.9999999999999856,-13.14206093308455,0.3228645769908546,65,2026-10-07 20:01:27.706244,25.0,0.4407302730901431,0.09522792591464985,0.14347132036035712
0155,cdot_cos,Q,P-Q,66,13,11714,-0.01896302928152811,-0.01683745517910579,-0.06239880819284295,0.17365092247475766,801.0,1.1738337203333493,0.5360595058788465,4.354968150384523,-0.006643244559524192,0.092,0.9999999999999842,60.98978555746946,0.32783172627902196,66,2026-10-07 20:01:27.798244,25.0,0.13953085817817698,0.3552171127317968,0.1726170830054629
0155,cdot_cos,R,Q-R,67,13,11744,0.260131837744442,0.38167631196652807,0.2790948670259701,0.9990681176568142,801.0,1.2233128974394973,0.5372934580250858,4.397936637281353,-0.021270553929661127,0.03,0.9999999999999838,-11.85403292560192,0.33279886663380137,67,2026-10-07 20:01:27.828243,25.0,0.5027416710133628,0.9772462399502099,1.6493059035382673
0155,cdot_cos,S,R-S,68,13,11796,-0.0007095937908345618,-0.0032655964832220366,-0.26084143153527656,0.0014699794625782857,801.0,1.232468494730362,0.5372952732685263,4.43065046963688,-0.004032161193786891,0.052,0.9999999999999829,9496.46331212795,0.33776601071725965,68,2026-10-07 20:01:27.880243,25.0,0.01390893129150788,0.17667633377951852,0.1760691786704725
0155,cdot_cos,T,S-T,69,13,12004,-0.2158467875441687,0.05558207854456079,-0.21513719375333412,0.0045938616538567815,801.0,1.2416872361525673,0.5373009461150375,4.463157004563706,-0.004090340153664858,0.208,0.9999999999999817,-10.255690818187242,0.3427331794656363,69,2026-10-07 20:01:28.088243,25.0,0.9858771744733497,0.14344308538185976,0.044320872222141136
0155,cdot_cos,P,T-P,70,14,12423,0.039589143750986135,0.0008265999936489268,0.25543593129515485,0.9983176808955784,859.0,1.2921408182492156,0.5385335124497652,4.505694783374501,-0.02291746563297379,0.419,0.9999999999999813,-15.274736092373107,0.34770038343529275,70,2026-10-07 20:01:28.507244,25.0,0.4397632996198583,0.08116679335163504,0.1204142770803062
0155,cdot_cos,Q,P-Q,71,14,12529,-0.015883686909643153,-0.014625146669176666,-0.05547283066062929,0.19991578843743624,859.0,1.3097050089812374,0.5387802810382806,4.539843521972997,-0.0081916955776327,0.106,0.9999999999999797,59.67441052338287,0.3526675362347947,71,2026-10-07 20:01:28.613244,25.0,0.16568843452404902,0.32468310559968167,0.16569991256624403
0155,cdot_cos,R,Q-R,72,14,12555,0.24006256417082267,0.3583217863696662,0.2559462510804658,0.9983389721573199,859.0,1.360973636636348,0.5400123066019616,4.582156551680335,-0.024533964758042773,0.026,0.9999999999999795,-13.264553644148666,0.3576346755740146,72,2026-10-07 20:01:28.639244,25.0,0.5137040494858298,1.1690520124176007,1.9718702944273325
0155,cdot_cos,S,R-S,73,14,12613,-0.0005035980496097263,-0.002830247234223051,-0.2405661622204324,0.0024379567478473485,859.0,1.3704957136269527,0.5400153146321507,4.613893055843074,-0.004660387326943401,0.058,0.9999999999999778,6606.841082739342,0.3626018209992745,73,2026-10-07 20:01:28.697243,25.0,0.01406083867871324,0.16292781684609312,0.16417374121732048
0155,cdot_cos,T,S-T,74,14,12823,-0.30241987852461366,0.009670977472904522,-0.30191628047500396,0.0005269346160322759,859.0,1.3798732633904949,0.5400159647808048,4.645393166351762,-0.004621407231151126,0.21,0.9999999999999764,59.95566636080761,0.3675689941063496,74,2026-10-07 20:01:28.907244,25.0,0.9916007911140506,0.14683670720549621,0.044654998874010546
0155,cdot_cos,P,T-P,75,15,13282,0.015829885185907708,3.3389319354624236e-05,0.3182497637105214,0.9996496558140752,840.0,1.432167130653261,0.5412491165708129,4.6873550486745605,-0.026338495864314415,0.459,0.9999999999999757,-17.611042540855067,0.37253621478098714,75,2026-10-07 20:01:29.366244,25.0,0.43843753826253373,0.07362579887864099,0.11392999403652765
0155,cdot_cos,Q,P-Q,76,15,13387,-0.05900497497821007,-0.0411698240506932,-0.07483486016411778,0.1334409144495564,840.0,1.4474617467610873,0.541413689261052,4.719935348999122,-0.00788805557090448,0.105,0.9999999999999735,112.111190906559,0.3775033687967175,76,2026-10-07 20:01:29.471244,25.0,0.09642061199480419,0.32534128270823215,0.145663010550726
0155,cdot_cos,R,Q-R,77,15,13414,0.210888529808198,0.3228588561466183,0.26989350478640806,0.9988273755612684,840.0,1.5004888000219898,0.5426452538010845,4.76169301612461,-0.027985394070662098,0.027,0.9999999999999732,-16.3185426719314,0.3824705077928627,77,2026-10-07 20:01:29.498244,25.0,0.4876600677455727,1.1691757657064548,1.9639649355889819
0155,cdot_cos,S,R-S,78,15,13472,0.022994372612659235,-0.109974685397362,-0.18789415719553876,0.009036964239640104,840.0,1.5105972381092359,0.54265639411596,4.792611745015592,-0.005449031267439681,0.058,0.999999999999971,2022.9556395058512,0.3874376534953491,78,2026-10-07 20:01:29.556243,25.0,0.015989107271538034,0.1899551703578392,0.17428341529734553
0155,cdot_cos,T,S-T,79,15,13681,-0.0935337508592746,0.022680598019958274,-0.11652812347193384,0.05150473330388821,840.0,1.5225235997834992,0.5427198857452513,4.823800101413535,-0.0064759021964228775,0.209,0.9999999999999689,-16.173327735404403,0.39240483054935477,79,2026-10-07 20:01:29.765243,25.0,0.8533649238439642,0.15318256730152924,0.05706393145580531
0155,cdot_cos,P,T-P,80,16,14122,0.030154239295877683,0.002009807769603051,0.12368799015515228,0.9565698434102797,839.0,1.574627551241275,0.5438988273910899,4.8647792618834895,-0.028877321789074116,0.441,0.9999999999999687,-19.00129635060769,0.3973720580234542,80,2026-10-07 20:01:30.206244,25.0,0.4603609778112283,0.0805585134500073,0.11814954979087508
0155,cdot_cos,Q,P-Q,81,16,14231,-0.02420585656055216,-0.024828055811994234,-0.05436009585642984,0.2044024868450195,839.0,1.5935762086464056,0.5441506835802313,4.8973564452627505,-0.010741787992779115,0.109,0.9999999999999656,72.00749704867384,0.40233921449895643,81,2026-10-07 20:01:30.315244,25.0,0.18483049498228266,0.33763388156246094,0.17384089362505065
0155,cdot_cos,R,Q-R,82,16,14261,0.20935356293414445,0.36438020713577407,0.2335594194946966,0.9970966587541962,839.0,1.6482317374218916,0.5453789382951715,4.938616633226919,-0.03168938681303027,0.03,0.9999999999999653,-17.054767684137843,0.4073063537146488,82,2026-10-07 20:01:30.345243,25.0,0.5163198471157739,1.0821621664339198,1.8218509591828655
0155,cdot_cos,S,R-S,83,16,14313,0.0023451144211450135,-0.02681130186179756,-0.20700844851299943,0.005623222923108149,839.0,1.6585059386324408,0.5453858636048562,4.9687019870581794,-0.0060762994226959514,0.052,0.9999999999999629,3698.4753832556958,0.41227349841343264,83,2026-10-07 20:01:30.397243,25.0,0.014768711181743515,0.19782884089814418,0.19758079251056207
0155,cdot_cos,T,S-T,84,16,14521,-0.19336733570748185,0.041834918261464994,-0.19571245012862687,0.007444471718087611,839.0,1.6688059368752985,0.5453950318560371,4.9986283391042745,-0.0061294366231591365,0.208,0.9999999999999606,-5.795783668515517,0.4172406797571952,84,2026-10-07 20:01:30.605243,25.0,0.9913682871958149,0.15833461969002083,0.04951922232143157
0155,cdot_cos,P,T-P,85,17,14961,0.04059647670929637,0.00046023900705861496,0.23396381241677822,0.9971257792062191,800.0,1.7243731404234894,0.5466227631131013,5.039613188741289,-0.033706781414567705,0.44,0.9999999999999597,-22.46203689344224,0.42220791798202917,85,2026-10-07 20:01:31.045243,25.0,0.44124535387356073,0.08436292362912591,0.12628909897316112
0155,cdot_cos,Q,P-Q,86,17,15066,-0.0185065070516799,-0.018629084527209305,-0.059102983760976266,0.18579404207607866,800.0,1.7430453096689293,0.54685146356656,5.071292210275908,-0.011573255250583739,0.105,0.9999999999999561,96.7795464733626,0.42717507529250814,86,2026-10-07 20:01:31.150244,25.0,0.14771478971495552,0.35717912304113186,0.17783018328990388
0155,cdot_cos,R,Q-R,87,17,15092,0.2270681055909046,0.3916800896287866,0.24557461264258448,0.9978483478419735,800.0,1.7993807562621271,0.5480794096828648,5.112144777265243,-0.035656005647017076,0.026,0.9999999999999561,-19.61222082684193,0.4321422131038983,87,2026-10-07 20:01:31.176243,25.0,0.5089430328596499,1.284719164054828,2.1667479458922223
0155,cdot_cos,S,R-S,88,17,15150,-0.0002035765946591577,-0.0025059218279611605,-0.22727168218556376,0.0033958753740046,800.0,1.8098507061997804,0.5480835876357852,5.141480166903945,-0.006751632485974484,0.058,0.9999999999999528,6918.3099263483555,0.4371093596716117,88,2026-10-07 20:01:31.234244,25.0,0.013827526832488937,0.18064930593596829,0.18051637823540115
0155,cdot_cos,T,S-T,89,17,15359,-0.21247685042430067,0.0386205457392014,-0.2122732738296415,0.00493315169766975,800.0,1.8203360757506994,0.5480896568910645,5.170667858672365,-0.006800817859421897,0.209,0.99999999999995,-8.104021199380995,0.4420765460572768,89,2026-10-07 20:01:31.443244,25.0,0.9927938166505105,0.16190433648247168,0.05016923230104811
0155,cdot_cos,P,T-P,90,18,15761,0.02315727924127072,-0.0014106562453480174,0.2356341296655714,0.9972430052299655,717.0,1.8775267188494535,0.5493162685623993,5.211272091039418,-0.037767188268271225,0.402,0.9999999999999494,-25.24545553618453,0.4470437856294767,90,2026-10-07 20:01:31.845243,25.0,0.4404634219325469,0.09139901913972161,0.14226528134018432
0155,cdot_cos,Q,P-Q,91,18,15854,-0.05491755757296229,-0.043673514673494805,-0.07807483681423301,0.12434949662826641,717.0,1.8938208871390356,0.5494691770759056,5.241602320065926,-0.010973398348410508,0.093,0.9999999999999454,175.22758743427636,0.4520109414835798,91,2026-10-07 20:01:31.938244,25.0,0.08701246155753353,0.3991590266748752,0.17520611064066752
0155,cdot_cos,R,Q-R,92,18,15885,0.20540919266912042,0.39729408374388747,0.2603267502420827,0.9985110124003628,717.0,1.9517702978109803,0.5506966722809645,5.282097369891122,-0.03977486928350289,0.031,0.9999999999999445,-23.46361176515513,0.456978080325265,92,2026-10-07 20:01:31.969243,25.0,0.4847547087005808,1.124217914217885,1.8693358281272485
0155,cdot_cos,S,R-S,93,18,15931,0.05802911461997501,-0.11372572084222371,-0.1473800780491454,0.024494625312724908,717.0,1.9635223978205445,0.5507267764568836,5.31101714664227,-0.008212416811582494,0.046,0.9999999999999414,1048.4410055519204,0.4619452239373402,93,2026-10-07 20:01:32.015244,25.0,0.02142364776303071,0.24899148238123917,0.2554804349905255
0155,cdot_cos,T,S-T,94,18,16139,-0.11511376608211908,-0.02101818789174918,-0.1731428807020941,0.013014746760878071,717.0,1.9746775141900543,0.5507427715790156,5.339649733861577,-0.007840798361971898,0.208,0.9999999999999382,23.23323614183124,0.46691241516610626,94,2026-10-07 20:01:32.223244,25.0,0.9537101439109841,0.16671051813658486,0.05363036716110497
0155,cdot_cos,P,T-P,95,19,16478,0.05416111062114056,0.003641539199707005,0.16927487670325964,0.9856827849038452,740.0,2.032873973365364,0.5519538683226715,5.379781318706934,-0.041605018744261694,0.339,0.9999999999999378,-27.879044807245418,0.471879646850189,95,2026-10-07 20:01:32.562243,25.0,0.44417262091538456,0.11189279124298349,0.17167097101861198
0155,cdot_cos,Q,P-Q,96,19,16586,-0.017222562026244014,-0.02155352878219089,-0.07138367264738457,0.1437370633787072,740.0,2.050540826652797,0.5521304252200538,5.409751769373592,-0.012868279361159626,0.108,0.9999999999999337,162.76191873073273,0.4768468091946255,96,2026-10-07 20:01:32.670244,25.0,0.10719073722623569,0.3565387440263435,0.163581974883642
0155,cdot_cos,R,Q-R,97,19,16614,0.19743682063370382,0.46174835960800703,0.21465938265994783,0.9953511909703666,740.0,2.109886342075054,0.553352684412123,5.449892430642322,-0.044018690041846525,0.028,0.9999999999999329,-25.485928748019056,0.48181394700057434,97,2026-10-07 20:01:32.698244,25.0,0.49279437442037827,1.2597427613175964,2.1194826936520306
0155,cdot_cos,S,R-S,98,19,16671,0.00017694060060923614,-0.0031289589467861693,-0.19725988003309458,0.0071640000660549005,740.0,2.1210864212865825,0.553361479254099,5.477999690703576,-0.008448331894346203,0.057,0.9999999999999291,4044.456767378301,0.4867810945893227,98,2026-10-07 20:01:32.755244,25.0,0.014841306605148338,0.19374179026569663,0.19649261774611484
0155,cdot_cos,T,S-T,99,19,16877,-0.25117209696452397,-0.023222475230877546,-0.2513490375651332,0.001862956321455293,740.0,2.1319729061653434,0.5533637662958499,5.5059004901151924,-0.008254643636811842,0.206,0.9999999999999258,84.68942792638487,0.49174829060478115,99,2026-10-07 20:01:32.961244,25.0,0.9768089854199589,0.17297024725693383,0.05284701397456734
0155,cdot_cos,P,T-P,100,20,17218,0.039412877994280615,-0.00188810311150122,0.2905849749588046,0.9993006253597506,779.0,2.1923501631564393,0.5545902208293781,5.545902768129557,-0.04652303093418577,0.341,0.9999999999999255,-31.20245084608652,0.4967155326055159,100,2026-10-07 20:01:33.302243,25.0,0.4393017862952822,0.1179485642903046,0.17705940466597025
0155,cdot_cos,Q,P-Q,101,20,17309,-0.020466454012208292,-0.018537670767523516,-0.05987933200648891,0.18287588500070595,779.0,2.212413827011331,0.5548145952608871,5.575818280129249,-0.015745853981935908,0.091,0.999999999999921,137.16882420726046,0.5016826915170562,101,2026-10-07 20:01:33.393243,25.0,0.14161813893387615,0.4456274640585642,0.22047982258122956
0155,cdot_cos,R,Q-R,102,20,17339,0.25535340643434906,0.3896098240904675,0.2758198604465574,0.9989886895696585,779.0,2.273454361615098,0.5560398796475717,5.615728125567055,-0.04875950312585505,0.03,0.9999999999999203,-26.94366263267753,0.5066498298597576,102,2026-10-07 20:01:33.423244,25.0,0.5081030112581362,1.204023402955897,2.0346844867922265
0155,cdot_cos,S,R-S,103,20,17389,-0.0006221763468197668,-0.003231646427142343,-0.25597558278116883,0.001659812290806962,779.0,2.284655231188685,0.5560419148856116,5.643209716553158,-0.009091395394927702,0.05,0.999999999999916,19490.6477540711,0.5116169757592715,103,2026-10-07 20:01:33.473243,25.0,0.012736817743562065,0.22541504028037895,0.22401739147174027
0155,cdot_cos,T,S-T,104,20,17598,-0.2087748148739122,0.036327457083364496,-0.20815263852709243,0.0054655174840668,779.0,2.295995865643136,0.5560486166115172,5.6706061148289475,-0.009250331283563078,0.209,0.9999999999999124,-23.715665318931965,0.5165841786917911,104,2026-10-07 20:01:33.682244,25.0,0.9829651198026377,0.17500719041749493,0.05426140887297073
0155,cdot_cos,P,T-P,105,21,17997,0.04132345746817422,-0.0014427180921363766,0.2500982723420864,0.9980779840579106,779.0,2.357808236783198,0.5572720987695899,5.710340410605992,-0.051195551593797,0.399,0.9999999999999118,-34.283475270539206,0.5215514524023006,105,2026-10-07 20:01:34.081243,25.0,0.44073399627729504,0.10245301676694551,0.15491822340867667
0155,cdot_cos,Q,P-Q,106,21,18090,-0.021824668354975336,-0.020451792627220976,-0.06314812582314956,0.17097922665306944,779.0,2.3777533730231584,0.5574816223590234,5.739625305639201,-0.01680795599118367,0.093,0.9999999999999065,164.12278777578373,0.5265186138273554,106,2026-10-07 20:01:34.174243,25.0,0.12926227406776677,0.44316990961046,0.21446383053720997
0155,cdot_cos,R,Q-R,107,21,18120,0.2340160087971571,0.3716292252155683,0.25584067715213243,0.998334589646728,779.0,2.4402378399707434,0.5587046037671084,5.77928608269136,-0.053541958234584956,0.03,0.9999999999999061,-30.036435550497913,0.5314857518425629,107,2026-10-07 20:01:34.204243,25.0,0.5035467122544175,1.2345276648574914,2.082815564919501
0155,cdot_cos,S,R-S,108,21,18169,0.014137564166908418,-0.0678020356455377,-0.21987844463024867,0.004082474634198576,779.0,2.451825032914608,0.5587096034350294,5.806281243890146,-0.010081506265342622,0.049,0.9999999999999014,8692.667724326357,0.5364528977401296,108,2026-10-07 20:01:34.253243,25.0,0.013421349535581283,0.2497694597980211,0.23647332538498886
0155,cdot_cos,T,S-T,109,21,18378,-0.12465361207009444,0.013071634967451982,-0.13879117623700285,0.030184438341592117,779.0,2.4647152470309495,0.558746568921236,5.833486170536044,-0.011271124296361667,0.209,0.9999999999998972,-32.18185808164622,0.5414201066819601,109,2026-10-07 20:01:34.462244,25.0,0.8998334032224513,0.18038509115988302,0.06167566562842878
0155,cdot_cos,P,T-P,110,22,18776,0.038581855325195154,-0.0009046575597904632,0.1632354673952896,0.9833881349075543,740.0,2.527226001019439,0.5599505204288315,5.872811366955589,-0.055465112423253624,0.398,0.9999999999998962,-36.70744863732336,0.5463873928506693,110,2026-10-07 20:01:34.860243,25.0,0.4507741054201264,0.10486736749517175,0.1570621959509786
0155,cdot_cos,Q,P-Q,111,22,18871,-0.021647631419927562,-0.022511123682600533,-0.06022948674512271,0.18157140399112404,740.0,2.548189671557106,0.5601727396597084,5.901786857476507,-0.018909828564987397,0.095,0.9999999999998906,164.50099171896596,0.5513545570299434,111,2026-10-07 20:01:34.955244,25.0,0.14469362337667596,0.4466463301261635,0.22067021618597088
0155,cdot_cos,R,Q-R,112,22,18901,0.2212922331028691,0.41211279947944923,0.24293986452279667,0.9977021860649165,740.0,2.61208880374341,0.5613933616685679,5.941229734741406,-0.05856728629447687,0.03,0.9999999999998901,-32.48954831360355,0.5563216947113195,112,2026-10-07 20:01:34.985244,25.0,0.5080748832969026,1.26233720259518,2.1299710728767947
0155,cdot_cos,S,R-S,113,22,18949,-0.0004256446463271449,-0.0038992596366869353,-0.22171787774919624,0.003899705378067035,740.0,2.623929903712817,0.5613981312502301,5.967744840305359,-0.011012330087689691,0.048,0.9999999999998848,9970.46692457029,0.5612888405644338,113,2026-10-07 20:01:35.033243,25.0,0.013322015134017007,0.24682014579220646,0.24668958269597843
0155,cdot_cos,T,S-T,114,22,19157,-0.21159816607303375,-0.009627764031001454,-0.21117252142670662,0.005070093469901289,740.0,2.635783537739462,0.5614043322721901,5.994158838531046,-0.011073839848180363,0.208,0.9999999999998797,-9.91929409170974,0.5662560553313081,114,2026-10-07 20:01:35.241244,25.0,0.9944608872013051,0.18405980159417917,0.05698862512810027
0155,cdot_cos,P,T-P,115,23,19516,0.04513130358254242,0.0017931154269263058,0.2567294696555762,0.9983711270457034,759.0,2.7004987811759955,0.5626250226724099,6.033482085745887,-0.06130034121244059,0.359,0.9999999999998792,-41.145978829044246,0.5712233376783298,115,2026-10-07 20:01:35.600243,25.0,0.44071754794389917,0.11969235075871248,0.18026530205162586
0155,cdot_cos,Q,P-Q,116,23,19625,-0.01614304719368362,-0.019926070980917032,-0.06127435077622604,0.17772188839901376,759.0,2.7217226455842174,0.5628422409638881,6.061997411927166,-0.02042542586639912,0.109,0.9999999999998732,188.1743708960825,0.5761905103677409,116,2026-10-07 20:01:35.709243,25.0,0.13517593584665763,0.3965042878272843,0.19471435236900808
0155,cdot_cos,R,Q-R,117,23,19653,0.2035738589659776,0.4500962709066626,0.21971690615966122,0.9959010728276485,759.0,2.7869367159223435,0.5640590200521546,6.101232131355116,-0.06372120743650364,0.028,0.9999999999998719,-35.58228604321937,0.5811576468715631,117,2026-10-07 20:01:35.737243,25.0,0.5068924693071287,1.3826672173234411,2.3290739406473606
0155,cdot_cos,S,R-S,118,23,19707,2.542002671729521e-05,-0.0029948369845653037,-0.2035484389392603,0.006128176746159993,759.0,2.79915200975433,0.5640665050075214,6.1273316019548565,-0.012103384808434219,0.054,0.9999999999998668,6896.20980997768,0.5861247959868855,118,2026-10-07 20:01:35.791244,25.0,0.01405548242247092,0.2233129850904436,0.22620914503678902
0155,cdot_cos,T,S-T,119,23,19915,-0.2679214840748757,-0.00045773218199804264,-0.267946904101593,0.001231029595202746,759.0,2.8110545183121114,0.564068008583606,6.153256501999314,-0.011844373811727258,0.208,0.9999999999998603,172.2633123606793,0.5910920172989309,119,2026-10-07 20:01:35.999244,25.0,0.9783695174747837,0.1876926926908918,0.05722359883548702
0155,cdot_cos,P,T-P,120,24,20275,0.04597634041623729,0.00039243079035050963,0.313897824491113,0.999609403806477,779.0,2.877232169913741,0.5652885374484672,6.192426693267043,-0.06672807938237527,0.36,0.9999999999998602,-44.96715083988431,0.5960593125409595,120,2026-10-07 20:01:36.359244,25.0,0.43933287048679676,0.12143085321610965,0.18382681000452694
0155,cdot_cos,Q,P-Q,121,24,20379,-0.017448098232046898,-0.018144731798028276,-0.06342443864828419,0.170002299594313,779.0,2.8984847326277103,0.5654960329250196,6.220457461030404,-0.021756300375967506,0.104,0.9999999999998536,216.7361898853177,0.6010264855569131,121,2026-10-07 20:01:36.463244,25.0,0.1265561460146665,0.42280530030293684,0.20435156455739661
0155,cdot_cos,R,Q-R,122,24,20405,0.22565430761863578,0.4068929054860599,0.24310240585068268,0.9977114830376115,779.0,2.965175672376752,0.566713319923314,6.259554329236756,-0.06926581196684148,0.026,0.9999999999998526,-39.02901424022667,0.6059936207032813,122,2026-10-07 20:01:36.489243,25.0,0.503636089612484,1.519471636567208,2.565036144193908
0155,cdot_cos,S,R-S,123,24,20464,-0.00014983068638733352,-0.0044822734919715635,-0.2258041383050231,0.0035223320038113193,779.0,2.977497257729205,0.5667176160301723,6.285203528395057,-0.012969723154159039,0.059,0.9999999999998465,13103.977780021727,0.6109607730505637,123,2026-10-07 20:01:36.548243,25.0,0.013029001471942907,0.20739499847018517,0.20884042970259664
0155,cdot_cos,T,S-T,124,24,20674,-0.2659399604487435,-0.08040658716165555,-0.26579012976235616,0.0012991394073452792,779.0,2.989648282196234,0.5667192005579211,6.310719065833399,-0.012842850877885467,0.21,0.9999999999998401,80.06945689061823,0.6159280021471825,124,2026-10-07 20:01:36.758244,25.0,0.9901698103105724,0.18970441286296136,0.05786202127156499
0155,cdot_cos,P,T-P,125,25,21054,0.022971586559029054,-0.0013893541955297423,0.28891154700777255,0.9992707676653799,742.0,3.057173111131649,0.5679375795414661,6.349736348143765,-0.07227402748579068,0.38,0.9999999999998388,-48.77889179850045,0.6208953206213379,125,2026-10-07 20:01:37.138243,25.0,0.4394183434308306,0.11381881114906607,0.1776969182510924
0155,cdot_cos,Q,P-Q,126,25,21148,-0.0561709569527949,-0.04303892935344469,-0.07914254351182395,0.12147204357090138,742.0,3.076150578669524,0.5680856308185112,6.376746651829308,-0.02060108686184619,0.094,0.9999999999998312,349.0205667608435,0.6258624908858488,126,2026-10-07 20:01:37.232243,25.0,0.08140953792921078,0.46310092490444377,0.2018879525305862
0155,cdot_cos,R,Q-R,127,25,21179,0.2088058838165888,0.38089201785065685,0.2649768407693837,0.9986742112155544,742.0,3.1442360850136843,0.5693023610016684,6.41571305835348,-0.07490866366453769,0.031,0.9999999999998304,-44.634034360658305,0.6308296281781198,127,2026-10-07 20:01:37.263244,25.0,0.4843323558112488,1.3217158202611217,2.1963066562632365
0155,cdot_cos,S,R-S,128,25,21227,0.06512381454272444,-0.137955326718226,-0.14368206927386434,0.026803547127119857,742.0,3.1580969595257136,0.569335005520704,6.441291572532092,-0.015450551337534448,0.048,0.9999999999998233,1821.3811715874444,0.6357967752847892,128,2026-10-07 20:01:37.311244,25.0,0.021316279919232045,0.2899796767716391,0.28876821900060873
0155,cdot_cos,T,S-T,129,25,21436,-0.07459867264182611,-0.005104208550511067,-0.13972248718455055,0.029510278660884015,742.0,3.1720741339837617,0.5693709459193884,6.46681212262134,-0.015648690608319145,0.209,0.9999999999998163,-5.512995905380293,0.6407640108760703,129,2026-10-07 20:01:37.520243,25.0,0.9874181066203335,0.19010732736911398,0.06687643281362744
0155,cdot_cos,P,T-P,130,26,21796,0.03521670808041486,-0.0003867276764781578,0.10981538072224098,0.9396521548688419,737.0,3.237561822366003,0.5705149587542854,6.504872694611485,-0.07419123871155572,0.36,0.9999999999998151,-51.172981908467484,0.6457313321828263,130,2026-10-07 20:01:37.880243,25.0,0.4542642055885598,0.12276124818858043,0.18191024550622642
0155,cdot_cos,Q,P-Q,131,26,21898,-0.024310555801956492,-0.026790870253075735,-0.05952726388237135,0.18419481663111215,737.0,3.2604622326795396,0.5707391253875796,6.532409296053024,-0.026298323231362983,0.102,0.9999999999998068,213.64872539848983,0.65069850936391,131,2026-10-07 20:01:37.982244,25.0,0.1618412261439853,0.45203511390115636,0.22451382660329808
0155,cdot_cos,R,Q-R,132,26,21925,0.2072201754308999,0.41508032735360934,0.2315307312328564,0.9969460727108331,737.0,3.329776985601839,0.5719519113455392,6.571228620844209,-0.0806721169130653,0.027,0.9999999999998063,-44.83379224903085,0.6556656440838177,132,2026-10-07 20:01:38.009243,25.0,0.5096608603941079,1.5240813017228012,2.5672130711962775
0155,cdot_cos,S,R-S,133,26,21983,0.00859004136979705,-0.03504053063991925,-0.19863013406110286,0.006924414006177211,737.0,3.342762622972571,0.5719603318975716,6.596169781185068,-0.015302024809660525,0.058,0.9999999999997987,7763.1599273440825,0.6606327975961513,133,2026-10-07 20:01:38.067244,25.0,0.013953991505928529,0.2235963097492303,0.2238902994953754
0155,cdot_cos,T,S-T,134,26,22192,-0.18902880973315966,-0.016551491727239034,-0.1976188511029567,0.007100450429538583,737.0,3.35571415753275,0.5719689664784209,6.621020932545522,-0.015321086018381192,0.209,0.9999999999997907,-2.207543024183584,0.6656000403989043,134,2026-10-07 20:01:38.276243,25.0,0.9987566575609684,0.19860298793303643,0.061969064881238975
0155,cdot_cos,P,T-P,135,27,22533,0.049862132996810624,0.002588069516268916,0.2388909427299703,0.997458037268088,779.0,3.42577867192858,0.5731814983833899,6.659768709668189,-0.08385005250275368,0.341,0.99999999999979,-56.51724808521313,0.6705673640867723,135,2026-10-07 20:01:38.617243,25.0,0.44163128263573787,0.13449933347147253,0.20546778415199493
0155,cdot_cos,Q,P-Q,136,27,22640,-0.017866698262147537,-0.019872219164693627,-0.06772883125895816,0.1553527454673765,779.0,3.447442702960294,0.5733702698376997,6.686590532564675,-0.026274255343151146,0.107,0.999999999999781,305.0026677504595,0.6755345471980873,136,2026-10-07 20:01:38.724244,25.0,0.11176700628439297,0.43127980161853263,0.2024675797356448
0155,cdot_cos,R,Q-R,137,27,22668,0.21775311378123127,0.42570263354746507,0.2356198120433788,0.9972420209352635,779.0,3.518072549474946,0.574581522360429,6.7253059283254775,-0.08674691277091817,0.028,0.9999999999997802,-49.92572258301842,0.6805016821292607,137,2026-10-07 20:01:38.752243,25.0,0.4980195425657766,1.4945834404271805,2.522494518380428
0155,cdot_cos,S,R-S,138,27,22724,-0.00010488982918395028,-0.0034026815221957787,-0.2178580036104152,0.004293073344111016,779.0,3.531139375624216,0.5745867348134873,6.74986744234741,-0.016241339553362936,0.056,0.9999999999997718,13526.370871661811,0.6854688353289874,138,2026-10-07 20:01:38.808243,25.0,0.013021960115442032,0.23194212064570063,0.23333618123696656
0155,cdot_cos,T,S-T,139,27,22932,-0.24152031247632164,0.012840116711552843,-0.2414154226471377,0.0023868631076630667,779.0,3.5440500669872645,0.5745896328261971,6.774313511911541,-0.016106381073456712,0.208,0.9999999999997631,46.56931953732858,0.69043608507127,139,2026-10-07 20:01:39.016243,25.0,0.991655814322522,0.20278369679339453,0.06207063155311704
0155,cdot_cos,P,T-P,140,28,23312,0.0408724194231392,0.0015177293026141726,0.28239273189946085,0.9991418029844343,800.0,3.6154973934902683,0.5758022895844767,6.8129862760465665,-0.09012759320555475,0.38,0.9999999999997626,-61.04053074104539,0.6954034473679341,140,2026-10-07 20:01:39.396243,25.0,0.4398622968227453,0.12538148556335135,0.18801928027106257
0155,cdot_cos,Q,P-Q,141,28,23420,-0.01825643682524499,-0.019679055957728574,-0.05912885624838419,0.18569621569602057,800.0,3.6393399960154116,0.5760275686835239,6.839950222398036,-0.03047240645390733,0.108,0.9999999999997526,264.80568771778803,0.7003706341181545,141,2026-10-07 20:01:39.504243,25.0,0.141185748965262,0.44318289726544796,0.22076483819577086
0155,cdot_cos,R,Q-R,142,28,23448,0.21166275958167285,0.39202240036079306,0.22991919640691785,0.996820921970972,800.0,3.711224899299605,0.5772363290860425,6.878566574849672,-0.09301526626047123,0.028,0.9999999999997519,-51.741320840960675,0.7053377685015885,142,2026-10-07 20:01:39.532243,25.0,0.510485271330936,1.5218683650090286,2.567317974435482
0155,cdot_cos,S,R-S,143,28,23502,-0.00034370265749176165,-0.004690196615159925,-0.2120064622391646,0.00496600328284854,800.0,3.724564624455917,0.5772423486360395,6.9028163675215755,-0.017460962266934416,0.054,0.9999999999997425,12551.487076440693,0.7103049210948256,143,2026-10-07 20:01:39.586244,25.0,0.013206564663921288,0.24809043954251883,0.24703194733911293
0155,cdot_cos,T,S-T,144,28,23711,-0.19515601861264575,0.029777169667751204,-0.194812315955154,0.007612606701928719,800.0,3.738018666770197,0.5772515762266965,6.927020777227096,-0.01767395101446969,0.209,0.999999999999733,-23.081729072274335,0.715272179270172,144,2026-10-07 20:01:39.795244,25.0,0.9880213245098687,0.2057454189194928,0.06437340820229634
0155,cdot_cos,P,T-P,145,29,24112,0.028587068753996962,-0.000639070221927545,0.22374308736664272,0.9962921087740018,739.0,3.810566209564265,0.5784587602135854,6.96556779703848,-0.09632637730426069,0.401,0.999999999999732,-65.15363618472954,0.7202395718620738,145,2026-10-07 20:01:40.196243,25.0,0.44196696842195626,0.11724449132208581,0.18091656557124203
0155,cdot_cos,Q,P-Q,146,29,24208,-0.04423430050985473,-0.03944645467762414,-0.07282136926385169,0.1393697817547481,739.0,3.83204874881051,0.5786275569401879,6.991585428759539,-0.028876021844562713,0.096,0.999999999999721,399.5951628764143,0.7252067531831068,146,2026-10-07 20:01:40.292243,25.0,0.09672722420716948,0.49312477583028413,0.22377645048171635
0155,cdot_cos,R,Q-R,147,29,24239,0.20211043239483634,0.38776105486402035,0.24634473290469105,0.9978892907753141,739.0,3.9052461665236797,0.5798356044828045,7.03013517099145,-0.0995298939234504,0.031,0.9999999999997199,-58.486002898406404,0.730173889087511,147,2026-10-07 20:01:40.323244,25.0,0.4917052189699635,1.4113562599470135,2.361207023005477
0155,cdot_cos,S,R-S,148,29,24298,0.040551595962238174,-0.09623051315823967,-0.16155883643259816,0.017310653707957965,739.0,3.919552836927225,0.5798565524144901,7.054261506014912,-0.019673175500115356,0.059,0.9999999999997098,3812.1528951800224,0.7351410459057575,148,2026-10-07 20:01:40.382244,25.0,0.01726338155809042,0.2440448010647388,0.24248593904313648
0155,cdot_cos,T,S-T,149,29,24493,-0.11319687684325047,-0.011675606248148285,-0.15374847280548865,0.0209650244642712,739.0,3.934043453049319,0.5798819221804096,7.0783630343346955,-0.019999120765621107,0.195,0.9999999999996995,-12.847783717835723,0.7401083017454478,149,2026-10-07 20:01:40.577244,25.0,0.983834113717139,0.22401145314323465,0.07431085190817499
0155,cdot_cos,P,T-P,150,30,24851,0.04510999697031461,-0.0010683868610190537,0.1583068738135651,0.9812507051744283,740.0,4.006917303653086,0.5810688588274924,7.116613211574403,-0.10161539620091686,0.358,0.9999999999996984,-68.76211602016701,0.7450756795998472,150,2026-10-07 20:01:40.935244,25.0,0.4478987464281678,0.134226903265622,0.20355824190996477
0155,cdot_cos,Q,P-Q,151,30,24946,-0.020579166476675567,-0.021571305164245245,-0.06568916344699018,0.16216197861901338,740.0,4.030149915787504,0.5812649226354983,7.142705240412494,-0.03278337198788191,0.095,0.999999999999687,351.06950595869876,0.7500428630098943,151,2026-10-07 20:01:41.030244,25.0,0.12250520991341626,0.5140054158721172,0.2445538119412417
0155,cdot_cos,R,Q-R,152,30,24977,0.22445612525066788,0.4239952279843774,0.24503529172734345,0.9978192043032728,740.0,4.104578332668789,0.582470780376258,7.181184385554622,-0.10621536509915422,0.031,0.9999999999996853,-60.89606645060175,0.7550099986797777,152,2026-10-07 20:01:41.061243,25.0,0.500899396106385,1.4214438620477208,2.400916673589817
0155,cdot_cos,S,R-S,153,30,25023,-0.0004429488889314827,-0.003784573483326781,-0.22489907413959936,0.003602648508649134,740.0,4.118279435234463,0.5824751323754266,7.2048218055414885,-0.019764351720333268,0.046,0.9999999999996746,19864.66679559038,0.7599771465507756,153,2026-10-07 20:01:41.107244,25.0,0.012599628061707974,0.29735491511605144,0.2978500557755296
0155,cdot_cos,T,S-T,154,30,25230,-0.22589589034699115,-0.008891038931864454,-0.22545294145805966,0.0035532835904407353,740.0,4.131934984859465,0.582479424729194,7.228381897390506,-0.019764117831626342,0.207,0.9999999999996635,0.05448961562802554,0.7649444194103192,154,2026-10-07 20:01:41.314244,25.0,0.9999881660631148,0.21452062759774362,0.06596883876812741
0155,cdot_cos,P,T-P,155,31,25591,0.04089057963453697,-0.0018616380992876993,0.2667864699815281,0.9987327800239707,739.0,4.207090975059929,0.583685392654196,7.266826939225586,-0.10985602911037465,0.361,0.999999999999662,-74.7050642152058,0.769911815227972,155,2026-10-07 20:01:41.675244,25.0,0.44039169527034977,0.1384060341192039,0.20818833850543902
0155,cdot_cos,Q,P-Q,156,31,25683,-0.01951886889951664,-0.01941997416893069,-0.06040944853405361,0.18090378898446657,739.0,4.2318641414935305,0.5839037269632117,7.292957752138874,-0.03663952090036026,0.092,0.9999999999996505,335.341287130163,0.7748789991127352,156,2026-10-07 20:01:41.767244,25.0,0.13556646058611585,0.5459029980761764,0.2692735481913231
0155,cdot_cos,R,Q-R,157,31,25713,0.23496986437677758,0.41752690034133366,0.25448873327629423,0.9982774376865066,739.0,4.307537126705945,0.5851079621865634,7.331384320257083,-0.11315764194301221,0.03,0.9999999999996492,-63.54084281780442,0.7798461337252848,157,2026-10-07 20:01:41.797244,25.0,0.5085416487582756,1.4923853135016727,2.522432840413824
0155,cdot_cos,S,R-S,158,31,25762,-0.00031232530282010126,-0.0024954185057953263,-0.2352821896795977,0.0027812914510327463,739.0,4.321407260303631,0.5851113158821035,7.354737768605701,-0.020958149978672583,0.049,0.9999999999996372,27491.908809292425,0.7848132846006828,158,2026-10-07 20:01:41.846244,25.0,0.012286932031998005,0.2821856941033162,0.2830639509731761
0155,cdot_cos,T,S-T,159,31,25970,-0.24724509157693622,4.2210274261907e-05,-0.24693276627411612,0.0020799710699015194,739.0,4.33519132472807,0.5851138239167656,7.378007174441974,-0.020894810638054852,0.208,0.9999999999996256,25.254571468173577,0.7897805668654493,159,2026-10-07 20:01:42.054244,25.0,0.9969732467545656,0.2167577786760159,0.0662695405021123
0155,cdot_cos,P,T-P,160,32,26330,0.03482123851222729,0.00047062155615297833,0.2820663300891635,0.9991347774918519,720.0,4.4115784962328535,0.5863180710825093,7.41640481565709,-0.11689944420838247,0.36,0.9999999999996245,-79.7217019074611,0.7947479782381899,160,2026-10-07 20:01:42.414243,25.0,0.4398778276403913,0.14146248154550925,0.2121865875132868
0155,cdot_cos,Q,P-Q,161,32,26435,-0.02432082715806918,-0.028938356006129755,-0.05914206567029647,0.1856462849277943,720.0,4.437044311440837,0.586541715483183,7.442382847847986,-0.0394192521882354,0.105,0.9999999999996114,346.44369269587605,0.7997151760096217,161,2026-10-07 20:01:42.519244,25.0,0.14007995608514692,0.4863000019754683,0.24253157340936582
0155,cdot_cos,R,Q-R,162,32,26461,0.1865894689419616,0.4185255920025133,0.2109102961000308,0.9948967298497567,720.0,4.513701496647702,0.5877396375426417,7.480707144807556,-0.11992594217406873,0.026,0.9999999999996103,-67.20528213848321,0.8046823067699937,162,2026-10-07 20:01:42.545243,25.0,0.5110420629882182,1.766377130492359,2.948353277187113
0155,cdot_cos,S,R-S,163,32,26519,0.03144047998467396,-0.06909190313588934,-0.15514898895728763,0.020258293161277502,720.0,4.5288959222264396,0.5877640191376495,7.504071503698751,-0.024014354188659763,0.058,0.9999999999995978,3933.7700406628014,0.809649466174201,163,2026-10-07 20:01:42.603244,25.0,0.01842720021778814,0.2607171875496581,0.261972854805823
0155,cdot_cos,T,S-T,164,32,26728,-0.12738221499649835,-0.026018084888947,-0.1588226949811723,0.018513512518641275,720.0,4.543944690403462,0.5877863004488904,7.527340280523384,-0.023863308298258324,0.209,0.9999999999995849,6.779039562298876,0.8146167582198066,164,2026-10-07 20:01:42.812243,25.0,0.9936903608131984,0.21911998026787188,0.07200367548814646
0155,cdot_cos,P,T-P,165,33,27050,0.03458482617055827,-0.0017023160467063794,0.16196704116705662,0.9828620930762898,697.0,4.62048807397841,0.5889686722168829,7.565442528669383,-0.12249682925402841,0.322,0.9999999999995839,-83.42005757058487,0.8195841527044077,165,2026-10-07 20:01:43.134243,25.0,0.44700189681181945,0.1591402257841543,0.23771237135076967
0155,cdot_cos,Q,P-Q,166,33,27144,-0.02422235098746544,-0.027358695046539202,-0.05880717715802371,0.18691534318350922,697.0,4.6464309958084575,0.5891934134207009,7.591229200599686,-0.04197532297759882,0.094,0.9999999999995703,358.2854630503842,0.8245513442523195,166,2026-10-07 20:01:43.228243,25.0,0.1468555515387856,0.5527303550856194,0.27598853010688873
0155,cdot_cos,R,Q-R,167,33,27173,0.20780898062919068,0.45047258129537954,0.23203133161665612,0.9969839399180792,697.0,4.724401380734506,0.5903915251111526,7.629543055662819,-0.12745631990711476,0.029,0.9999999999995687,-71.34643423543336,0.8295184773880744,167,2026-10-07 20:01:43.257244,25.0,0.5113663820467018,1.593932728101982,2.6886339629672036
0155,cdot_cos,S,R-S,168,33,27219,-0.00010989898757189049,-0.0028304079121203546,-0.20791887961676256,0.005497375228573795,697.0,4.7388790940383725,0.5903981285459239,7.652437490733963,-0.023899737448786963,0.046,0.9999999999995555,15682.229937067286,0.8344856269438821,168,2026-10-07 20:01:43.303244,25.0,0.013128642315568389,0.31171698344103205,0.3147328979101314
0155,cdot_cos,T,S-T,169,33,27430,-0.2524526227294277,-0.05046183638045412,-0.2523427237418558,0.0018173296573537636,697.0,4.753079343211081,0.5904003115110548,7.675207194114558,-0.02351270154349994,0.211,0.9999999999995417,177.298253559718,0.8394529301995861,169,2026-10-07 20:01:43.514244,25.0,0.9836740211653311,0.22029361480587725,0.06729975911236447
0155,cdot_cos,P,T-P,170,34,27747,0.04122298215878151,-0.0007631322810047395,0.2936756048882092,0.9993525945105943,742.0,4.831842999486453,0.5916001857837685,7.713525945723411,-0.13157481873283172,0.317,0.9999999999995407,-90.06120028303465,0.8444203353773208,170,2026-10-07 20:01:43.831244,25.0,0.4398604062104001,0.16436739589264918,0.24846579266678642
0155,cdot_cos,Q,P-Q,171,34,27842,-0.021283458347947266,-0.02228094388223303,-0.06250644050672877,0.17326514056390036,742.0,4.857288272207021,0.5918081062808495,7.738898573818009,-0.04296172795714953,0.095,0.9999999999995268,426.1873745962527,0.849387531168015,171,2026-10-07 20:01:43.926244,25.0,0.1271223373847139,0.5506728366224818,0.267844976005982
0155,cdot_cos,R,Q-R,172,34,27872,0.2235171423218436,0.4211145076865025,0.24480060066979087,0.9978063995120168,742.0,4.936470838444724,0.5930048458399517,7.77718906441472,-0.1350115560672182,0.03,0.9999999999995253,-76.91717668221797,0.8543546650707707,172,2026-10-07 20:01:43.956243,25.0,0.5057098380119819,1.5634502222634221,2.639418874590109
0155,cdot_cos,S,R-S,173,34,27918,0.007694937715461414,-0.035216408453122724,-0.21582220460638218,0.004516212600390778,742.0,4.951095285542826,0.5930102599550893,7.799835614153916,-0.02517439641803483,0.046,0.9999999999995112,20287.18578359181,0.8593218153482531,173,2026-10-07 20:01:44.002244,25.0,0.012739468206961395,0.31881134233087716,0.31792276300221883
0155,cdot_cos,T,S-T,174,34,28128,-0.1943050926858843,-0.0035531746151962343,-0.20200003040134573,0.006368510697356747,742.0,4.965801481939165,0.5930178945993879,7.822446721636058,-0.025390064693405004,0.21,0.9999999999994966,-28.248634374275856,0.864289127289385,174,2026-10-07 20:01:44.212243,25.0,0.9915417742630064,0.22492848603678323,0.07002950664923159
0155,cdot_cos,P,T-P,175,35,28489,0.03841236587593021,-0.0006960244488433734,0.23271745856181453,0.9970350816547854,758.0,5.045565249678275,0.5942125954761796,7.860697309049343,-0.13889413747460697,0.361,0.9999999999994957,-95.00626892148686,0.8692565918897709,175,2026-10-07 20:01:44.573244,25.0,0.44166727925213056,0.14770335838104964,0.22095226520529174
0155,cdot_cos,Q,P-Q,176,35,28591,-0.019739581130236116,-0.020656727041389145,-0.05815194700616633,0.18941763455099508,758.0,5.072443306690283,0.594439440278415,7.8861340598559995,-0.04729342233138541,0.102,0.9999999999994807,403.80345610981476,0.8742237979277219,176,2026-10-07 20:01:44.675244,25.0,0.14415595895314837,0.5254321294118092,0.2635103628628188
0155,cdot_cos,R,Q-R,177,35,28617,0.2202340100212753,0.40789069751215495,0.2399735911515114,0.9975257478665868,758.0,5.152753404078284,0.5956334006649358,7.924390757704154,-0.1426726100036475,0.026,0.9999999999994793,-79.88471707189608,0.8791909272699192,177,2026-10-07 20:01:44.701244,25.0,0.5124675647516537,1.8291017407972523,3.088849899538521
0155,cdot_cos,S,R-S,178,35,28676,-3.589460718054495e-05,-0.005274346942199774,-0.22026990462845583,0.004042877098678944,758.0,5.16755659721174,0.5956382373806156,7.946809036902543,-0.026542714786931414,0.059,0.9999999999994638,24010.072723595564,0.8841580915598852,178,2026-10-07 20:01:44.760243,25.0,0.012585525537608345,0.2607610466787561,0.2509015785331453
0155,cdot_cos,T,S-T,179,35,28868,-0.1515565618540085,0.0032972701756544573,-0.15152066724682797,0.022139218499401404,758.0,5.1835232075863775,0.5956647234128895,7.969454641530139,-0.028713519804021183,0.192,0.9999999999994484,-81.96037045660655,0.8891253944017581,179,2026-10-07 20:01:44.952243,25.0,0.9271849754555013,0.2505650219661662,0.08315942903457108
0155,cdot_cos,P,T-P,180,36,29247,0.022396209005025338,0.0006557844371428024,0.17395277085903385,0.9872427884435969,721.0,5.263773565646748,0.5968452328451743,8.007522964714344,-0.14552208200265168,0.379,0.9999999999994474,-98.94758906970192,0.8940928963367665,180,2026-10-07 20:01:45.331244,25.0,0.44812361115142546,0.13547230719573325,0.2117423695524279
0155,cdot_cos,Q,P-Q,181,36,29353,-0.05835232787627139,-0.05212486421411669,-0.08074853688129673,0.11725209132946708,721.0,5.286211216440743,0.5969853644687835,8.031620750046368,-0.041082628842471276,0.106,0.9999999999994295,745.2953906498475,0.8990601101171954,181,2026-10-07 20:01:45.437243,25.0,0.07869462809869557,0.48983361592048474,0.21167595088675117
0155,cdot_cos,R,Q-R,182,36,29380,0.17697381669514994,0.40615500649717456,0.23532614457142134,0.9972217546680272,721.0,5.3676182922218905,0.5981765332638103,8.069846768602977,-0.1503754772766363,0.027,0.9999999999994281,-91.75261213227742,0.9040272397286191,182,2026-10-07 20:01:45.464243,25.0,0.48345372463369995,1.8398197282968032,3.0150768807832273
0155,cdot_cos,S,R-S,183,36,29436,0.057373474733723666,-0.10876301489513586,-0.11960034196142627,0.04787930012461193,721.0,5.385561481768771,0.5982336954530908,8.092759576433247,-0.03345225945859657,0.056,0.9999999999994119,2045.4643058581091,0.9089944017933315,183,2026-10-07 20:01:45.520243,25.0,0.03034188059899833,0.3017503420638905,0.32041409905143275
0155,cdot_cos,T,S-T,184,36,29645,-0.10447076512235508,-0.02243716116894762,-0.16184423985607874,0.01718969589834086,721.0,5.401414330533046,0.5982542172538475,8.11511919932568,-0.02964753920214187,0.209,0.9999999999993957,185.39894727348297,0.9139617319467802,184,2026-10-07 20:01:45.729243,25.0,0.8795615460640818,0.23075026862692394,0.07585095102524166
0155,cdot_cos,P,T-P,185,37,29968,0.04383371915044495,0.0003299132718652716,0.14830448427280002,0.976051557194298,757.0,5.482015094054825,0.5994189028629576,8.152982810046964,-0.1519393478126329,0.323,0.9999999999993937,-104.99984515472033,0.9189291908348876,185,2026-10-07 20:01:46.052243,25.0,0.4471449165757437,0.16491595036934145,0.24953796755968635
0155,cdot_cos,Q,P-Q,186,37,30073,-0.021195817710220513,-0.023566302675412328,-0.06502953686066545,0.16441499141303742,757.0,5.507950034471641,0.5996149829769183,8.17766255089866,-0.0493601368424556,0.105,0.9999999999993759,523.1494866978563,0.9238964075427725,186,2026-10-07 20:01:46.157243,25.0,0.12515788911307668,0.516466129446763,0.2469994325411036
0155,cdot_cos,R,Q-R,187,37,30100,0.2142103503616034,0.42230452034384786,0.2354061680718239,0.997227291839241,757.0,5.590472981238645,0.6008035833309401,8.21586994946009,-0.15845268187429776,0.027,0.9999999999993743,-91.78235953128588,0.9288635366830962,187,2026-10-07 20:01:46.184243,25.0,0.502335739036838,1.8105659633123625,3.0564054358149755
0155,cdot_cos,S,R-S,188,37,30157,-4.815186146432075e-05,-0.006445299009651512,-0.21425850222306772,0.004695413830049554,757.0,5.605720596490508,0.6008091770227768,8.237884915899075,-0.029534795660599696,0.057,0.9999999999993567,23047.0125950266,0.9338307011180239,188,2026-10-07 20:01:46.241244,25.0,0.01271529957950542,0.2702899744724964,0.26750202196251305
0155,cdot_cos,T,S-T,189,37,30365,-0.18424166401720465,-0.00045590217862759183,-0.18419351215574034,0.009904248958390661,757.0,5.62128603832851,0.6008209759639421,8.259927348137323,-0.03023310614192561,0.208,0.9999999999993388,-59.184165048508,0.9387980401067715,189,2026-10-07 20:01:46.449243,25.0,0.977167162913851,0.23712767077860297,0.0748338549903911
0155,cdot_cos,P,T-P,190,38,30725,0.04182047417747735,-0.0016030094142981035,0.22606213819468202,0.9965002346609189,799.0,5.704365707534407,0.6020075072011127,8.298105489657152,-0.16262195947447,0.36,0.9999999999993371,-111.57637421180564,0.9437655589778554,190,2026-10-07 20:01:46.809243,25.0,0.4430424695560206,0.15354191702511782,0.2307768589052708
0155,cdot_cos,Q,P-Q,191,38,30817,-0.018356205559247604,-0.016329081784041237,-0.060176679736724956,0.18176766876807304,799.0,5.7318362185865945,0.6022238089014403,8.322903508144696,-0.054286237688722205,0.092,0.999999999999319,500.8546933365111,0.9487327641419352,191,2026-10-07 20:01:46.901243,25.0,0.13592679752137446,0.60445453595977,0.2985925114368189
0155,cdot_cos,R,Q-R,192,38,30847,0.2614713173561951,0.3903123345532109,0.2798275229154427,0.999085015539781,799.0,5.815585342151005,0.6034119951878357,8.361126792855273,-0.16694108775944042,0.03,0.9999999999993171,-94.81244764445174,0.953699896242258,192,2026-10-07 20:01:46.931243,25.0,0.5092490982209216,1.6495553362973445,2.791637452147011
0155,cdot_cos,S,R-S,193,38,30896,-0.00029010481199961236,-0.0012524450082663414,-0.2617614221681947,0.0014366041332196464,799.0,5.830809538764435,0.6034137028298812,8.382896000863568,-0.03060717948315034,0.049,0.999999999999298,79837.52135923691,0.9586670521041022,193,2026-10-07 20:01:46.980243,25.0,0.011628324465109308,0.30963400465824853,0.3106978900700067
0155,cdot_cos,T,S-T,194,38,31105,-0.30535839421459016,-0.056487270556120614,-0.30506828940259056,0.00048702535184891603,799.0,5.845929474607513,0.6034142817396357,8.404593360705196,-0.030476754744315607,0.209,0.9999999999992789,225.29373154152276,0.9636344025060111,194,2026-10-07 20:01:47.189243,25.0,0.9957296614286547,0.23807978228691073,0.07234419063673697
0155,cdot_cos,P,T-P,195,39,31524,0.03823280937853208,0.00464458205795525,0.34359120359312223,0.9998140376026582,779.0,5.930326887760364,0.6046021124274824,8.442814106992287,-0.17138974055633416,0.419,0.9999999999992772,-118.63053148380037,0.9686020132445989,195,2026-10-07 20:01:47.608243,25.0,0.4394731518181483,0.13576757365761835,0.20142580704737628
0155,cdot_cos,Q,P-Q,196,39,31636,-0.016219132385725643,-0.02063131825194184,-0.05445194176425772,0.2040293358961371,779.0,5.959702701332597,0.6048443586882054,8.467826373588018,-0.06021838893886476,0.112,0.9999999999992571,458.91875187534794,0.9735692462454505,196,2026-10-07 20:01:47.720243,25.0,0.15784586428170985,0.5078749093626918,0.2622840497520849
0155,cdot_cos,R,Q-R,197,39,31666,0.1799479464491647,0.4131327594328119,0.19616707883489035,0.992639041727761,779.0,6.044090867457607,0.6060221934860882,8.505932233904527,-0.1744635781763172,0.03,0.9999999999992552,-96.99593647836846,0.9785363774050811,197,2026-10-07 20:01:47.750243,25.0,0.5195267888841281,1.6745889049049871,2.812938870833648
0155,cdot_cos,S,R-S,198,39,31714,-0.00013859188438663562,-0.005206454716897756,-0.18008653833355134,0.010963458849335833,779.0,6.060178035626897,0.6060351955382748,8.5276765161257,-0.033536518295590935,0.048,0.9999999999992341,10838.832044241743,0.983503532239265,198,2026-10-07 20:01:47.798244,25.0,0.01496266622596325,0.3445157121119702,0.33514933686020393
0155,cdot_cos,T,S-T,199,39,31924,-0.1478602572496774,-0.0052779769487834105,-0.14772166536529077,0.024291399144067572,779.0,6.077164375820356,0.6060640032511365,8.549590321495026,-0.03550684690148322,0.21,0.9999999999992135,-68.39587076381711,0.9884708941234298,199,2026-10-07 20:01:48.008243,25.0,0.9460200538548466,0.2419729984216526,0.08088733425456833
0155,cdot_cos,P,T-P,200,40,32303,0.028028331047331666,0.00210423749874794,0.17588858829700907,0.9878381481019197,720.0,6.161806694963991,0.6072348758825846,8.587603545035916,-0.178224130070414,0.379,0.9999999999992114,-121.88967385156288,0.993438476595967,200,2026-10-07 20:01:48.387244,25.0,0.4489812333199337,0.1468027863657498,0.22333065737106791
0155,cdot_cos,Q,P-Q,201,40,32413,-0.03838362716227328,-0.045499098855656006,-0.06641195820960495,0.15972186984173278,720.0,6.188440887885594,0.6074240769469966,8.61172842163822,-0.05658161549993627,0.11,0.9999999999991891,642.927221094219,0.9984057113579861,201,2026-10-07 20:01:48.497243,25.0,0.11650054355529157,0.5096272832169775,0.242129026560033
0155,cdot_cos,R,Q-R,202,40,32441,0.16033274463983352,0.4167707198136705,0.1987163718021068,0.9930903955183429,720.0,6.273924697271726,0.6085997323004627,8.64983330251158,-0.1830550178353852,0.028,0.9999999999991868,-107.57693737588815,1.0033728391661183,202,2026-10-07 20:01:48.525243,25.0,0.5011229633612612,1.9035115435936152,3.0529931923618365
0155,cdot_cos,S,R-S,203,40,32494,0.06218248936795262,-0.1033007160707405,-0.0981502552718809,0.07916428584847719,720.0,6.295037534326837,0.608693395751886,8.672551838681358,-0.045593851905003584,0.053,0.9999999999991658,1467.6073093784612,1.0083400011896213,203,2026-10-07 20:01:48.578244,25.0,0.04905045864349725,0.3548003873076461,0.39835541613417025
0155,cdot_cos,T,S-T,204,40,32703,-0.1073228167157067,-0.02776598323921373,-0.16950530608365932,0.014236145320158438,720.0,6.311533538326336,0.6087102384388314,8.694127135409254,-0.03572969870580238,0.209,0.9999999999991435,585.6638689029973,1.0133073725770265,204,2026-10-07 20:01:48.787244,25.0,0.7587543946336103,0.2435523666106442,0.07892824880143284
0155,cdot_cos,P,T-P,205,41,33023,0.05326413949072365,0.0005935995591739888,0.16058695620643035,0.9822711460107448,719.0,6.396842423570086,0.6098717294687651,8.732040367865018,-0.18606926828540413,0.32,0.9999999999991411,-129.43670308688124,1.0182748967267399,205,2026-10-07 20:01:49.107244,25.0,0.4457592115278977,0.17431288750544005,0.2665902663867181
0155,cdot_cos,Q,P-Q,206,41,33127,-0.016236278589380954,-0.01945098567153099,-0.0695004180801046,0.1496294295407978,719.0,6.423093786329818,0.6100485505314927,8.755850196069144,-0.05775068336494442,0.104,0.999999999999118,725.6973967981627,1.0232421280710597,206,2026-10-07 20:01:49.211244,25.0,0.10839855223046675,0.5434087508208345,0.2524169496128061
0155,cdot_cos,R,Q-R,207,41,33154,0.20851010860322303,0.47123883125027183,0.22474638719260398,0.9963836231033327,719.0,6.50987144374082,0.611225263917343,8.794006533456237,-0.19237549904259119,0.027,0.999999999999116,-114.40748214176271,1.0282092540929058,207,2026-10-07 20:01:49.238244,25.0,0.49668349103436854,1.9050638408831853,3.213987311518583
0155,cdot_cos,S,R-S,208,41,33213,0.0002454866666334692,-0.002658447524983997,-0.20826462193658957,0.005450320980236456,719.0,6.52596723373751,0.6112316971111966,8.815315274734244,-0.03596603228485612,0.059,0.9999999999990923,24312.879468031973,1.0331764257112903,208,2026-10-07 20:01:49.297244,25.0,0.012922171525244382,0.27003949975106323,0.2728099999439027
0155,cdot_cos,T,S-T,209,41,33404,-0.26268839074910655,-0.1618386463222347,-0.26293387741574004,0.0013951643265058373,719.0,6.541736104711445,0.6112333438634994,8.836504352364923,-0.03532160709555614,0.191,0.9999999999990685,391.3309780875884,1.0381437826369007,209,2026-10-07 20:01:49.488243,25.0,0.9819209197641506,0.2705515564794645,0.08255953389494869
0155,cdot_cos,P,T-P,210,42,33742,0.047513626163320916,-0.001265900390826132,0.31020201691242744,0.9995716110029709,720.0,6.629317928312665,0.6124125122282209,8.874706979727847,-0.1975116465288314,0.338,0.9999999999990671,-137.54612512147617,1.0431113502567937,210,2026-10-07 20:01:49.826244,25.0,0.439917985730151,0.1693916125303857,0.2591178213053853
0155,cdot_cos,Q,P-Q,211,42,33835,-0.020420348025324445,-0.021810802965430167,-0.06793397418864536,0.1546809718243122,720.0,6.656244834781986,0.6125948680786233,8.898461255646277,-0.06124203370641582,0.093,0.9999999999990425,747.2730516828824,1.0480785701167155,211,2026-10-07 20:01:49.919244,25.0,0.10805667661886506,0.6174124477691174,0.28953662870237096
0155,cdot_cos,R,Q-R,212,42,33865,0.22268389282643047,0.43732276304804363,0.24310424085175492,0.9977115877807352,720.0,6.744156643597721,0.6137703260888553,8.93663769691416,-0.20144705988047906,0.03,0.9999999999990402,-119.27693286669678,1.0530457000037101,212,2026-10-07 20:01:49.949243,25.0,0.4985808885265434,1.7345495469606695,2.9303936271911786
0155,cdot_cos,S,R-S,213,42,33914,-0.0003075371643154431,-0.0041824757905168245,-0.22299142999074592,0.003777960878017463,720.0,6.760317807599626,0.6137747745990381,8.957754793173928,-0.03732024926602055,0.049,0.9999999999990156,36894.78136971918,1.058012858498443,213,2026-10-07 20:01:49.998244,25.0,0.01230443965948697,0.3287981869854563,0.3298196735082615
0155,cdot_cos,T,S-T,214,42,34122,-0.23399216690791247,-0.0253917041449695,-0.23368462974359702,0.002894293515971255,720.0,6.776378865922296,0.6137781825871154,8.978807628561519,-0.03717745420963722,0.208,0.9999999999989908,41.900104444193296,1.0629802504184578,214,2026-10-07 20:01:50.206244,25.0,0.9961664621992681,0.2514999392014614,0.07721662655129764
0155,cdot_cos,P,T-P,215,43,34462,0.036326516850915536,0.0003813234335303556,0.270318683758828,0.9988397595467078,719.0,6.864941782307434,0.6149536338506877,9.016997338344797,-0.20635172552339004,0.34,0.9999999999989888,-143.9228290925595,1.0679478404428795,215,2026-10-07 20:01:50.546243,25.0,0.4405045357633558,0.17257355871705501,0.2604791658386412
0155,cdot_cos,Q,P-Q,216,43,34568,-0.0254540837225823,-0.030857639402710888,-0.06178060057349784,0.17587988284350467,719.0,6.893728885849893,0.6151604738195737,9.040982946024856,-0.06763741304202334,0.106,0.9999999999989638,670.6359183306181,1.072915083488297,216,2026-10-07 20:01:50.652243,25.0,0.1286252897087177,0.5541747921427577,0.27157644851376783
0155,cdot_cos,R,Q-R,217,43,34596,0.1814871555296368,0.4190226705288812,0.20694123925221908,0.9943673740819349,719.0,6.9824268382416985,0.6163290947427548,9.079101893154109,-0.20994167748777406,0.028,0.9999999999989616,-121.7711078271574,1.0778822098637846,217,2026-10-07 20:01:50.680243,25.0,0.5077187608806839,1.924532189306565,3.1677840139930438
0155,cdot_cos,S,R-S,218,43,34651,0.0553797150103698,-0.09891566322688398,-0.12610744051926698,0.040985572168773965,719.0,7.001502688451061,0.6163772339336976,9.100708194587712,-0.0454997071755604,0.055,0.999999999998936,3415.9687167891907,1.0828493783842639,218,2026-10-07 20:01:50.735244,25.0,0.02694028585887222,0.3391185829237839,0.34683364017022583
0155,cdot_cos,T,S-T,219,43,34861,-0.0840059800355232,-0.017363758559081736,-0.139385695045893,0.029752374582521706,719.0,7.019729882363315,0.6164121778567012,9.122074634747495,-0.04358996753407476,0.21,0.9999999999989108,54.65155246843337,1.0878167849005766,219,2026-10-07 20:01:50.945244,25.0,0.9571344090673914,0.2475260956258639,0.08679616148692287
0155,cdot_cos,P,T-P,220,44,35181,0.03082710226366461,-0.002055370301560889,0.11483308229918782,0.9463853285001315,699.0,7.105463648613924,0.6175230706766038,9.159354920689617,-0.20632369362159886,0.32,0.9999999999989073,-146.4891330396655,1.0927843642560728,220,2026-10-07 20:01:51.265243,25.0,0.4544214579554767,0.17695351848046326,0.2679180195331532
0155,cdot_cos,Q,P-Q,221,44,35275,-0.03726039631043009,-0.03878281288369556,-0.0680874985740947,0.15417978555991305,699.0,7.132980134190811,0.6177039351616341,9.18283703469892,-0.06673906741021934,0.094,0.9999999999988805,771.7636007312202,1.0977515931423396,221,2026-10-07 20:01:51.359244,25.0,0.12350199082391425,0.6245833602141021,0.2927285699668879
0155,cdot_cos,R,Q-R,222,44,35304,0.19471511539192884,0.40502224521072583,0.23197551170235894,0.9969797407954305,699.0,7.222885320334175,0.6188726783858255,9.221003159774801,-0.2195987526022771,0.029,0.9999999999988788,-130.7897937100937,1.1027187206471254,222,2026-10-07 20:01:51.388243,25.0,0.49853259321177223,1.8798169734878358,3.100178832529784
0155,cdot_cos,S,R-S,223,44,35352,0.06627764822667415,-0.12080675299256696,-0.1284374671652547,0.03875622416797038,699.0,7.242009518653106,0.6189180839887922,9.242425891583872,-0.04706461821852095,0.048,0.9999999999988527,3799.8423787076485,1.1076858793169468,223,2026-10-07 20:01:51.436243,25.0,0.0255811648246515,0.38145612975206317,0.3984207983110573
0155,cdot_cos,T,S-T,224,44,35560,-0.09562668981220007,-0.022153047492699893,-0.16190433803887422,0.017164331519047248,699.0,7.259505108790373,0.6189381925287206,9.263426606778477,-0.0431647463072268,0.208,0.9999999999988253,193.94107802857022,1.1126532943073772,224,2026-10-07 20:01:51.644243,25.0,0.9136126970223603,0.2546458808608628,0.08411341412147748
0155,cdot_cos,P,T-P,225,45,35880,0.04301852310865064,-0.000880293645954129,0.13864521292085072,0.9697085574923187,718.0,7.347942205091225,0.6200735716368174,9.301111713263307,-0.2195310105591752,0.32,0.9999999999988225,-155.33689407724384,1.1176208927975364,225,2026-10-07 20:01:51.964243,25.0,0.4478139362925709,0.1836574172330449,0.2763659259401613
0155,cdot_cos,Q,P-Q,226,45,35975,-0.020037482265015356,-0.02222032216459223,-0.063056005373666,0.17130591514255666,718.0,7.377045855819522,0.6202740083277631,9.324771429045551,-0.07281163160087803,0.095,0.9999999999987956,731.9986089674235,1.1225881273795573,226,2026-10-07 20:01:52.059244,25.0,0.13331318694813601,0.6317409804205202,0.30635421819260134
0155,cdot_cos,R,Q-R,227,45,36005,0.21422229531965573,0.4404629898816369,0.2342597775846711,0.9971469070012197,718.0,7.4679729913711235,0.621439905002833,9.36294473417231,-0.2290617468126631,0.03,0.9999999999987934,-134.0171205157835,1.1275552561999933,227,2026-10-07 20:01:52.089243,25.0,0.5055385481224874,1.7961405699334985,3.0309045183867234
0155,cdot_cos,S,R-S,228,45,36052,0.006089410569713837,-0.030298577031395726,-0.20813288474994188,0.005468202503053516,718.0,7.484814290015532,0.6214462947498056,9.38364177300257,-0.04273398308394014,0.047,0.999999999998765,29160.429125969957,1.1325224141448942,228,2026-10-07 20:01:52.136243,25.0,0.012776116039375847,0.35803172661974286,0.3583255030725149
0155,cdot_cos,T,S-T,229,45,36261,-0.20141163170561588,-0.020630065074418828,-0.20750104227532973,0.005554780765563295,718.0,7.501627973673379,0.621452785622729,9.404295655000379,-0.04275965058984455,0.209,0.9999999999987363,-3.9543996943759208,1.1374898425019682,229,2026-10-07 20:01:52.345243,25.0,0.9993999061422713,0.25919371732896757,0.08044824716673508
0155,cdot_cos,P,T-P,230,46,36598,0.04390415087285031,-0.0017175308578445201,0.2453157825784662,0.9978344101413441,741.0,7.59315726385904,0.6226180674244534,9.442479220121028,-0.2341715795260768,0.337,0.999999999998735,-164.26235152130835,1.1424574890461172,230,2026-10-07 20:01:52.682244,25.0,0.4415781162189492,0.18000803691377326,0.2716002676132368
0155,cdot_cos,Q,P-Q,231,46,36690,-0.017774167648615245,-0.0175742854399312,-0.061678318521465554,0.17625082481556079,741.0,7.6229533905532625,0.6228237482800817,9.466110463243472,-0.07682762306142371,0.092,0.9999999999987061,764.9907716689775,1.1474247225489067,231,2026-10-07 20:01:52.774244,25.0,0.12899097819313163,0.6621125197293004,0.32387094232850416
0155,cdot_cos,R,Q-R,232,46,36719,0.2446199304952922,0.42236374816582833,0.26239409814390746,0.9985859078536992,741.0,7.714985967489231,0.623988239132931,9.504314793747605,-0.2389080316532128,0.029,0.999999999998704,-139.1856434039015,1.1523918492400347,232,2026-10-07 20:01:52.803244,25.0,0.5074171841335051,1.8759994548886993,3.173537135723065
0155,cdot_cos,S,R-S,233,46,36771,-0.00021345949970887236,-0.001966243010640523,-0.2448333899950011,0.0021918069974159048,741.0,7.731761358936807,0.623990793516375,9.524815187627507,-0.04385619072343174,0.052,0.9999999999986742,76359.65594317968,1.1573590166596281,233,2026-10-07 20:01:52.855244,25.0,0.011707417451408741,0.3216011399430875,0.32260368168414755
0155,cdot_cos,T,S-T,234,46,36979,-0.2666789664875572,-0.10362287582734808,-0.2664655069878483,0.0012774161074024146,741.0,7.7484324860433125,0.6239922822439808,9.545255610246752,-0.04367791275149537,0.208,0.9999999999986441,119.75190843161383,1.1623264552445316,234,2026-10-07 20:01:53.063244,25.0,0.995926668170318,0.2627694045971147,0.08014964955050685
0155,cdot_cos,P,T-P,235,47,37339,0.03201153228369928,0.0015803228754145578,0.2986904987712565,0.9994288357844074,759.0,7.841073431249207,0.6251563178231775,9.583474208173785,-0.2441284870832943,0.36,0.999999999998642,-172.20313357615714,1.1672941630475258,235,2026-10-07 20:01:53.423244,25.0,0.4399534406656361,0.17210894261233062,0.2573359589052619
0155,cdot_cos,Q,P-Q,236,47,37448,-0.025607340601608877,-0.030208051023622236,-0.05761887288530816,0.19147229483490108,759.0,7.8723509247241905,0.6253791611185964,9.60726665516843,-0.08305820194238814,0.109,0.9999999999986128,722.7961910998412,1.172261430404536,236,2026-10-07 20:01:53.532243,25.0,0.1438123447016874,0.568683626358816,0.2869494814218694
0155,cdot_cos,R,Q-R,237,47,37476,0.18102459285870945,0.3924157945145471,0.20663193346031833,0.9943238983349606,759.0,7.965046461795429,0.6265355396438829,9.645401803074252,-0.24778894596802878,0.028,0.9999999999986104,-142.4539979111324,1.1772285544957668,237,2026-10-07 20:01:53.560243,25.0,0.5143750376873617,1.9959569422379593,3.3105548954013613
0155,cdot_cos,S,R-S,238,47,37529,0.04185506718084623,-0.09553199083488588,-0.13916952567786323,0.029908776622456806,759.0,7.984124513489516,0.6265703006237264,9.66626558746076,-0.05135648634103591,0.053,0.999999999998579,5650.947139896938,1.1821957245865562,238,2026-10-07 20:01:53.613244,25.0,0.021821027492891516,0.3574611721258662,0.3599632395110869
0155,cdot_cos,T,S-T,239,47,37738,-0.10185256982749967,-0.006743197616194719,-0.1437076370083459,0.026786878735649187,759.0,8.00293734604077,0.6266014321198365,9.687032880234787,-0.05076114234680015,0.209,0.9999999999985473,19.12352660887119,1.187163177122536,239,2026-10-07 20:01:53.822243,25.0,0.9883401677568142,0.26245461495129,0.09001355287681441
0155,cdot_cos,P,T-P,240,48,38098,0.029454650510964492,-0.0007481561188496252,0.13130722033846415,0.9638298474417576,759.0,8.093830542539155,0.6277208879462137,9.724620199060855,-0.2466320999720393,0.36,0.9999999999985446,-174.9697960473556,1.1921309080242182,240,2026-10-07 20:01:54.182244,25.0,0.45195044377428617,0.17109906690432455,0.25248110138440283
0155,cdot_cos,Q,P-Q,241,48,38194,-0.02590050872809603,-0.026375360609766085,-0.05535515923906052,0.20038674087278538,759.0,8.126128674211884,0.6279534589265185,9.748469593490382,-0.08828690198564346,0.096,0.9999999999985132,680.8467581761786,1.1970981563420906,241,2026-10-07 20:01:54.278244,25.0,0.16637185686765738,0.657365453659862,0.3364388715909235
0155,cdot_cos,R,Q-R,242,48,38224,0.21295942761511585,0.3816558454443032,0.2388599363432119,0.9974560710917727,759.0,8.220044709641849,0.6291102339980551,9.786668946865674,-0.25838763670242965,0.03,0.9999999999985109,-147.04737239093515,1.202065283384344,242,2026-10-07 20:01:54.308243,25.0,0.517722406791085,1.855937778305794,3.1305345143321617
0155,cdot_cos,S,R-S,243,48,38270,0.009386250691410877,-0.05046089865676525,-0.20357317692370497,0.006124411153494668,759.0,8.237484940910232,0.6291173320760582,9.806979130850277,-0.04830917365636355,0.046,0.9999999999984773,29596.527814015884,1.2070324413274773,243,2026-10-07 20:01:54.354244,25.0,0.012924576268138758,0.38350098954644035,0.3791354623561476
0155,cdot_cos,T,S-T,244,48,38480,-0.16798656785694438,0.0046676210162230605,-0.17737281854835527,0.011724040835763066,759.0,8.255326800680121,0.6291309198646101,9.82734964098797,-0.04952688424575858,0.21,0.9999999999984435,-89.61801140386905,1.2119999079771948,244,2026-10-07 20:01:54.564243,25.0,0.9757129344139538,0.2667937369594819,0.08496123699947487
0155,cdot_cos,P,T-P,245,49,38857,0.039060534680380475,-0.0016482256396568521,0.20704710253732486,0.9943821779445247,742.0,8.349538310433214,0.6302826314432788,9.865494387403698,-0.2629594473038511,0.377,0.9999999999984411,-185.31771930678332,1.2169676944207157,245,2026-10-07 20:01:54.941243,25.0,0.44412207552428035,0.16662803661978348,0.24989790385435723
0155,cdot_cos,Q,P-Q,246,49,38950,-0.020289920982312172,-0.0202388211541231,-0.05935045566269265,0.18485995543072295,742.0,8.380964340291438,0.630496576664304,9.888963540487374,-0.08835763681414935,0.093,0.9999999999984076,816.1052144702859,1.221934941017813,246,2026-10-07 20:01:55.034244,25.0,0.13861145007798503,0.6795276165874746,0.33791429955079644
0155,cdot_cos,R,Q-R,247,49,38980,0.24007187364673643,0.42246594987410796,0.2603617946290486,0.9985123144056602,742.0,8.475930447118484,0.6316513035340601,9.927190683292904,-0.2686748404323783,0.03,0.9999999999984048,-156.1557181537871,1.2269020673133288,247,2026-10-07 20:01:55.064243,25.0,0.511127900037732,1.871618866550436,3.1655368942348736
0155,cdot_cos,S,R-S,248,49,39030,-0.0005073062046565215,-0.004327343488291509,-0.24057917985139296,0.0024371653997644614,742.0,8.493261472284464,0.6316541201483632,9.947310259396733,-0.04935885805872223,0.05,0.9999999999983691,77865.10994080034,1.2318692335045383,248,2026-10-07 20:01:55.114244,25.0,0.011757131256430492,0.3514385748232307,0.34662050331959904
0155,cdot_cos,T,S-T,249,49,39237,-0.18850636130016438,0.003124231445098846,-0.18799905509550785,0.009013509653864283,742.0,8.511074304600807,0.6316645369178229,9.967509533743542,-0.05083551304384003,0.207,0.9999999999983332,-141.75747969023092,1.2368367066585955,249,2026-10-07 20:01:55.321243,25.0,0.9713701241744126,0.27327394608307404,0.0860523300306431
0155,cdot_cos,P,T-P,250,50,39599,0.03552835054563933,6.061273880275631e-07,0.2240347118458037,0.9963189441190486,757.0,8.606396885962857,0.6328152079430441,10.005698456938848,-0.27348986722718355,0.362,0.9999999999983306,-193.49957485939953,1.241804488192449,250,2026-10-07 20:01:55.683244,25.0,0.44302775225016283,0.17603107055253656,0.26332204796146275
0155,cdot_cos,Q,P-Q,251,50,39702,-0.022555772176433085,-0.024073272244712552,-0.05808412272207242,0.18967811279404717,757.0,8.638520799680844,0.6330341004899357,10.029158186407251,-0.09282966013770157,0.103,0.9999999999982959,825.3374071205043,1.246771758675877,251,2026-10-07 20:01:55.786243,25.0,0.14282324562387466,0.6210719170394627,0.311882657456184
0155,cdot_cos,R,Q-R,252,50,39728,0.21161323151449896,0.40167411956984994,0.23416900369093205,0.9971404435256936,757.0,8.734337700872986,0.6341839174933424,10.06736957425936,-0.2785708403744759,0.026,0.9999999999982927,-161.53977518723678,1.2517388761939645,252,2026-10-07 20:01:55.812243,25.0,0.5133668311092311,2.1845706781223115,3.6852654304670143
0155,cdot_cos,S,R-S,253,50,39787,0.006694433107204266,-0.031623496312535304,-0.20491879840729468,0.005923009603012931,757.0,8.752118474943204,0.6341907428488309,10.087433285889837,-0.0520321283323689,0.059,0.999999999998255,33190.75649926816,1.2567060614362262,253,2026-10-07 20:01:55.871244,25.0,0.012857555393269547,0.30004393138862945,0.30136905203759035
0155,cdot_cos,T,S-T,254,50,39977,-0.21059815127454076,0.002916357247185133,-0.21729258438174504,0.004353922838501577,757.0,8.769742884776845,0.6341957600393429,10.107429253099218,-0.05167868187693357,0.19,0.9999999999982172,70.44708678980791,1.261673512490492,254,2026-10-07 20:01:56.061243,25.0,0.9931840262035312,0.29998696276368225,0.09276005175600233
0155,cdot_cos,P,T-P,255,51,40356,0.029548160172314788,0.002013608308098955,0.24014631144685555,0.9975363824081361,719.0,8.866113520793403,0.6353444895601562,10.145650141174299,-0.2840387226614408,0.379,0.9999999999982153,-202.27567636634421,1.266641352901051,255,2026-10-07 20:01:56.440243,25.0,0.44128797255158725,0.16703651766325225,0.2542760844764085
0155,cdot_cos,Q,P-Q,256,51,40465,-0.036193152562842994,-0.04235952268384748,-0.06574131273515778,0.16198492443727733,719.0,8.89635656516559,0.6355308809581682,10.168506804077522,-0.0897574762046522,0.109,0.9999999999981768,1042.3294665361093,1.2716086403811104,256,2026-10-07 20:01:56.549243,25.0,0.11480580281934465,0.5811450649357169,0.27745912268060907
0155,cdot_cos,R,Q-R,257,51,40493,0.16313473098548978,0.4167876944651445,0.19932788354833278,0.9931945113658016,719.0,8.99280314494939,0.6366728309340807,10.206654737794269,-0.28789569556173855,0.028,0.9999999999981728,-173.50866809973053,1.2765757609119326,257,2026-10-07 20:01:56.577244,25.0,0.5024650553597615,2.1603333121249513,3.4445207065642816
0155,cdot_cos,S,R-S,258,51,40547,0.06980458520941295,-0.10853713088266118,-0.09333014577607683,0.08840609916412095,719.0,9.017335230644587,0.6367744036076792,10.228124248054902,-0.07371536008057919,0.054,0.9999999999981363,2108.6413096464535,1.281542937008086,258,2026-10-07 20:01:56.631244,25.0,0.0547211582089636,0.40048158570392967,0.45429788324439596
0155,cdot_cos,T,S-T,259,51,40756,-0.09552472874426335,-0.024492351611061496,-0.16532931395367628,0.015778032111749,719.0,9.036055156205414,0.6367925302246566,10.24821876656489,-0.05638455257220699,0.209,0.9999999999980967,956.0971873549331,1.2865104396715512,259,2026-10-07 20:01:56.840243,25.0,0.7353799266838081,0.27326797286199456,0.08956902182213887
0155,cdot_cos,P,T-P,260,52,41075,0.050759231133994734,-0.0014262459421244928,0.1462839598782581,0.9748419884189888,721.0,9.1315612433009,0.6379117234573625,10.28603057392295,-0.2891001050419317,0.319,0.9999999999980927,-207.93152216181647,1.2914781787123806,260,2026-10-07 20:01:57.159244,25.0,0.4471034412673327,0.19646929435832425,0.2993921225563846
0155,cdot_cos,Q,P-Q,261,52,41167,-0.01762164626273173,-0.01836386701889331,-0.06838087739672646,0.15322573328340908,721.0,9.161402566006025,0.6380875027395541,10.308632593883267,-0.09093484428379793,0.092,0.9999999999980537,1127.3527704029632,1.2964454353918644,261,2026-10-07 20:01:57.251244,25.0,0.11313194021309518,0.6937092165904764,0.32436220331656723
0155,cdot_cos,R,Q-R,262,52,41198,0.23844197952699203,0.4505061494475919,0.25606362578972375,0.9983438310192145,721.0,9.259203739153548,0.6392318881576003,10.346885603526738,-0.29969447860927906,0.031,0.9999999999980499,-182.4207395807947,1.3014125619391919,262,2026-10-07 20:01:57.282243,25.0,0.4982891027437015,1.8655066821809916,3.154876553145918
0155,cdot_cos,S,R-S,263,52,41246,-3.796982384390285e-05,-0.0005340163077499106,-0.23847994935083594,0.0025681481979990756,721.0,9.277063980301246,0.6392348299526985,10.36666046146105,-0.05507305678953868,0.048,0.999999999998009,83153.79339995906,1.3063797263992083,263,2026-10-07 20:01:57.330244,25.0,0.011775170035605761,0.3699747335442205,0.37208835724370876
0155,cdot_cos,T,S-T,264,52,41455,-0.3075283019058635,-0.1529747304093818,-0.3074903320820196,0.00045842363652404177,721.0,9.294721313573794,0.6392353550725437,10.386358789866263,-0.054551672196366606,0.209,0.9999999999979671,992.8868580665434,1.3113472419632675,264,2026-10-07 20:01:57.539244,25.0,0.9904879008971157,0.2777251820954387,0.0844848481940055
0155,cdot_cos,P,T-P,265,53,41796,0.034977566630635885,0.0025207925892993,0.3425058685364994,0.999808923714275,760.0,9.39315310641714,0.640379832445331,10.424642292852466,-0.30557734954234217,0.341,0.9999999999979643,-219.33651404099982,1.3163150505770809,265,2026-10-07 20:01:57.880243,25.0,0.439780303185853,0.19583406765841094,0.2886562839980828
0155,cdot_cos,Q,P-Q,266,53,41905,-0.016819973216759137,-0.020852494570892534,-0.05179753984739502,0.21501809213057707,760.0,9.42828014771683,0.6406257548371345,10.448304199225724,-0.10979685979378356,0.109,0.9999999999979257,796.1068055366316,1.3212823491699226,266,2026-10-07 20:01:57.989243,25.0,0.16811356167859376,0.612843353446065,0.3222664339421103
0155,cdot_cos,R,Q-R,267,53,41933,0.19578567223278723,0.4341776816406393,0.21260564544954635,0.9951074697418,760.0,9.526752957468382,0.6417629243620305,10.486507028986408,-0.3095495568280789,0.028,0.9999999999979217,-175.6578000562866,1.32624946842305,267,2026-10-07 20:01:58.017244,25.0,0.524504543385099,2.087516009080811,3.5168860625554337
0155,cdot_cos,S,R-S,268,53,41987,1.3699679309595302e-05,-0.0032940747256206718,-0.19577197255347764,0.007433484416631611,760.0,9.545181044225355,0.6417714130750463,10.506265281987524,-0.05828544534369907,0.054,0.9999999999978785,29599.788686312462,1.3312166472168405,268,2026-10-07 20:01:58.071244,25.0,0.013421145881562412,0.3372800286542554,0.3412608658698754
0155,cdot_cos,T,S-T,269,53,42194,-0.23899930721799204,-0.009977403868086076,-0.23901300689730162,0.002534237119795671,760.0,9.563179200563042,0.6417743070423191,10.525895761568986,-0.057034158208300205,0.207,0.9999999999978352,432.3777767462571,1.3361841715793417,269,2026-10-07 20:01:58.278244,25.0,0.9782996567185205,0.28330282234889165,0.08694761515790489
0155,cdot_cos,P,T-P,270,54,42556,0.033685531827949124,-0.0012667698911554334,0.27268483904594115,0.9989063288843841,741.0,9.662468412677796,0.6429142000063492,10.564173053368519,-0.3161205907392718,0.362,0.9999999999978321,-227.29014101021806,1.3411520517269848,270,2026-10-07 20:01:58.640243,25.0,0.440616230339127,0.18250458080072107,0.2742795914772233
0155,cdot_cos,Q,P-Q,271,54,42651,-0.026156293026895476,-0.02690338604709987,-0.0598418248548446,0.18301604616320885,741.0,9.695312517062764,0.6431228723302045,10.587153904328094,-0.10526160286696569,0.095,0.9999999999977899,1010.4789364332846,1.3461193234545388,271,2026-10-07 20:01:58.735244,25.0,0.13490425458768435,0.6969118620687509,0.34572741457860223
0155,cdot_cos,R,Q-R,272,54,42681,0.20999240276781372,0.386751414729675,0.2361486957947092,0.9972781485695601,741.0,9.79488166647086,0.6442589991841301,10.62540695872021,-0.3208333491635519,0.03,0.9999999999977859,-189.74267314581124,1.3510864464294665,272,2026-10-07 20:01:58.765243,25.0,0.5107311750868222,1.982273725328909,3.318971646936516
0155,cdot_cos,S,R-S,273,54,42727,0.04720792659065482,-0.10865135555587378,-0.1627844761771589,0.01679705625044366,741.0,9.814248940582498,0.6442781209897884,10.645236969844422,-0.06278491442573592,0.046,0.9999999999977411,13494.9826051297,1.3560536076565552,273,2026-10-07 20:01:58.811244,25.0,0.01640713781419691,0.4387213699304142,0.4210276980791104
0155,cdot_cos,T,S-T,274,54,42936,-0.08323294642083112,-0.004788099940905308,-0.13044087301148594,0.03693284698282184,741.0,9.835244032504457,0.644320163804765,10.665411864264254,-0.06819845979213567,0.209,0.9999999999976971,-128.76267608196923,1.3610211500054619,274,2026-10-07 20:01:59.020243,25.0,0.9236895111366004,0.27780479391086693,0.10045498527253124
0155,cdot_cos,P,T-P,275,55,43297,0.024861238447368633,-0.0011464720711136394,0.10809418486819976,0.9371654418918632,736.0,9.93037134443724,0.6453862475382124,10.702535807278904,-0.3104094725022573,0.361,0.999999999997691,-227.19698754513456,1.3659890531907364,275,2026-10-07 20:01:59.381243,25.0,0.4582707226928066,0.1697505608774872,0.263510559370591
0155,cdot_cos,Q,P-Q,276,55,43390,-0.05723495019295768,-0.043957947154583406,-0.0820961886403263,0.11380962352705529,736.0,9.957803937458003,0.6455156150122658,10.724127007653328,-0.09005545397885466,0.093,0.9999999999976439,1703.318551557655,1.370956324338988,276,2026-10-07 20:01:59.474244,25.0,0.08656407988224295,0.6882780988833582,0.29497411850282146
0155,cdot_cos,R,Q-R,277,55,43420,0.20902901659547388,0.3807207627716752,0.26626396678843156,0.9987161396674431,736.0,10.058391070829545,0.6466499417889789,10.762416229206911,-0.33185048776889414,0.03,0.9999999999976398,-213.16170856045588,1.3759234465050452,277,2026-10-07 20:01:59.504243,25.0,0.4825713841373508,1.9937870479785385,3.3529044457180746
0155,cdot_cos,S,R-S,278,55,43466,0.028610564602272227,-0.08796136788054217,-0.18041845199320164,0.010873847337833214,736.0,10.077431160336715,0.6466622830840492,10.782031229785186,-0.06319029768737007,0.046,0.9999999999975927,21769.205626552895,1.3808906081418226,278,2026-10-07 20:01:59.550244,25.0,0.014241357166048735,0.4199204923209412,0.41391498928630577
0155,cdot_cos,T,S-T,279,55,43676,-0.1316177629836623,-0.0069189183592388934,-0.16022832758593453,0.017885664800914837,736.0,10.097023756123072,0.6466825820302606,10.801745036823984,-0.06514701206680111,0.21,0.999999999997546,-96.3948748396199,1.3858581655542872,279,2026-10-07 20:01:59.760243,25.0,0.9704112129586228,0.28471671987020386,0.09329807517312631
0155,cdot_cos,P,T-P,280,56,44033,0.03705521858102624,-0.0009599036730969174,0.16867298156468852,0.9854688735189727,760.0,10.1970121826822,0.647800199230748,10.83978724718268,-0.33395844327815494,0.357,0.9999999999975414,-240.521916711839,1.3908260834053838,280,2026-10-07 20:02:00.117243,25.0,0.44712155144989685,0.18760283479220943,0.28007962621604787
0155,cdot_cos,Q,P-Q,281,56,44127,-0.021117619129915416,-0.020904389025846976,-0.05817283771094166,0.18933745932169602,760.0,10.23097218016471,0.6480147414989323,10.862723637649786,-0.11414234809367185,0.094,0.9999999999974961,1024.5817621153353,1.395793361225707,281,2026-10-07 20:02:00.211244,25.0,0.14575813084108016,0.7203176895385266,0.36127656896285576
0155,cdot_cos,R,Q-R,282,56,44157,0.23396698755899423,0.4043595880342587,0.25508460668890964,0.9983028650004143,760.0,10.332431908315444,0.6491449502996991,10.901014658459355,-0.34276950924494914,0.03,0.9999999999974922,-202.28754279401548,1.4007604826984994,282,2026-10-07 20:02:00.241244,25.0,0.5132461605166068,2.000420955750985,3.381990938357819
0155,cdot_cos,S,R-S,283,56,44205,0.003475412188311192,-0.0294170281920644,-0.23049157537068304,0.0031340525788514893,760.0,10.350997437509768,0.649148495830145,10.920385226507213,-0.06308728141177779,0.048,0.9999999999974418,78883.04221342858,1.4057276499103022,283,2026-10-07 20:02:00.289243,25.0,0.011875729252968356,0.39379024327670004,0.3867818582150943
0155,cdot_cos,T,S-T,284,56,44413,-0.17452029025849555,0.01325017004893122,-0.17799570244680674,0.011544978478411646,760.0,10.370235771670007,0.6491615564366653,10.939882297409214,-0.06549189320292155,0.208,0.9999999999973926,-184.11180119457487,1.4106952159983093,284,2026-10-07 20:02:00.497243,25.0,0.9639496898528868,0.29072149699271854,0.09249199115499365
0155,cdot_cos,P,T-P,285,57,44793,0.03952521633470798,-0.0005766892914561566,0.21404550659320354,0.9952796352540301,761.0,10.47193758025874,0.6502866550838221,10.978119832021997,-0.3477224885988378,0.38,0.9999999999973886,-250.84964425930755,1.415663217147097,285,2026-10-07 20:02:00.877243,25.0,0.444122564138667,0.17853134125436093,0.2676363383914006
0155,cdot_cos,Q,P-Q,286,57,44888,-0.01952504504241607,-0.01972669261197414,-0.05905026137712405,0.18599351361608152,761.0,10.505919591023321,0.6504967236420243,11.000915960910573,-0.11690977406733913,0.095,0.9999999999973405,1098.74945830483,1.420630501722663,286,2026-10-07 20:02:00.972243,25.0,0.13886115447002387,0.7173419222844009,0.35770537646928496
0155,cdot_cos,R,Q-R,287,57,44918,0.22472554768823363,0.3996265930532488,0.2442505927306497,0.9977760962880653,761.0,10.608232545492776,0.6516226533995473,11.039206075761081,-0.3537483176519307,0.03,0.9999999999973361,-210.3493064306461,1.4255976222672124,287,2026-10-07 20:02:01.002244,25.0,0.5119586420519033,2.01799110805041,3.41043181564847
0155,cdot_cos,S,R-S,288,57,44965,-0.0004768792694037343,-0.0031268513186361,-0.22520242695763737,0.003575527330256865,761.0,10.626999057506346,0.6516266851305493,11.058489825924715,-0.06525726054209928,0.047,0.9999999999972842,71555.13524165966,1.4305647874448193,288,2026-10-07 20:02:01.049243,25.0,0.012024284501643962,0.4191202179340701,0.399287489650436
0155,cdot_cos,T,S-T,289,57,45172,-0.14537996687728402,0.006371958026749705,-0.1449030876078803,0.026018684891630457,761.0,10.647629845978578,0.6516560229010674,11.078170713659159,-0.07187022686153142,0.207,0.9999999999972334,-225.40793668564848,1.4355323645077338,289,2026-10-07 20:02:01.256243,25.0,0.9120936585734675,0.29581646254593313,0.09966564479339178
0155,cdot_cos,P,T-P,290,58,45554,0.025747103169908636,0.0003903543616735755,0.17112707004719266,0.9863217649938446,717.0,10.749467073000362,0.6527673155584164,11.11624543881965,-0.3562742515014375,0.382,0.9999999999972287,-255.9218066988368,1.4405003984705202,290,2026-10-07 20:02:01.638243,25.0,0.45010574056920105,0.17284964719284926,0.2665895995334665
0155,cdot_cos,Q,P-Q,291,58,45659,-0.04750697230445979,-0.046378552904479634,-0.07325407547436844,0.13807730373070112,717.0,10.779686976433915,0.6529227553886519,11.138047069342,-0.1063536184749364,0.105,0.9999999999971758,1607.8287826736826,1.4454677134286684,291,2026-10-07 20:02:01.743244,25.0,0.09537846197988713,0.6348924572038886,0.28780860412907266
0155,cdot_cos,R,Q-R,292,58,45687,0.18129429211847672,0.4076720452749887,0.22880126442293652,0.9967311134335788,717.0,10.882794489013179,0.6540438517075733,11.176325581637874,-0.3645611858180905,0.028,0.9999999999971706,-230.31702360022592,1.4504348276236176,292,2026-10-07 20:02:01.771244,25.0,0.492495726282235,2.226544717214856,3.682411163545142
0155,cdot_cos,S,R-S,293,58,45744,0.04840304674960889,-0.0978729043792004,-0.13289124536886784,0.03481467506776338,717.0,10.904373480597947,0.6540829794896986,11.196116509613885,-0.07673281985893202,0.057,0.9999999999971175,7356.112468556694,1.4554020196687056,293,2026-10-07 20:02:01.828243,25.0,0.023493150288728403,0.367557851626805,0.37857879973277103
0155,cdot_cos,T,S-T,294,58,45951,-0.10663285091529726,-0.021508528284790888,-0.15503589766490614,0.020314484942046816,717.0,10.924696084098635,0.6541058097244589,11.215597726251076,-0.07240196099762562,0.207,0.9999999999970635,189.6983936778745,1.460369609988383,294,2026-10-07 20:02:02.035244,25.0,0.9419370124709784,0.2952463432579478,0.09817682850573826
0155,cdot_cos,P,T-P,295,59,46271,0.043184802686035,-0.0034275957429221863,0.14981765360133226,0.9769200680093487,701.0,11.026605466706737,0.6552028721604024,11.253498613137648,-0.3645506364023343,0.32,0.9999999999970577,-266.30086477570705,1.4653375055858489,295,2026-10-07 20:02:02.355244,25.0,0.4487030572133673,0.21110588471634217,0.3184668206503205
0155,cdot_cos,Q,P-Q,296,59,46362,-0.020256889810285453,-0.021550783447231915,-0.06344169249632045,0.16994144465393315,701.0,11.059803850317094,0.6553935447888296,11.2758371478005,-0.11945707010847209,0.091,0.9999999999970055,1285.4155749336508,1.4703047883868015,296,2026-10-07 20:02:02.446244,25.0,0.12851247958158615,0.7545344935500125,0.36481740231160914
0155,cdot_cos,R,Q-R,297,59,46392,0.23573189448700194,0.46097297781041313,0.2559887842972874,0.9983407345109759,701.0,11.16393074453284,0.6565126617420234,11.314154684683036,-0.3764243893907518,0.03,0.9999999999970008,-229.6161438256626,1.4752719074297556,297,2026-10-07 20:02:02.476243,25.0,0.5052746106199856,2.0523483629466397,3.4708964738581947
0155,cdot_cos,S,R-S,298,59,46442,-7.777949108904627e-05,-0.0022501448776173602,-0.235809673978091,0.002744955051594775,701.0,11.182944752093892,0.6565157363849353,11.333239138896086,-0.06911733614054648,0.05,0.9999999999969444,99948.85977068913,1.4802390820955387,298,2026-10-07 20:02:02.526243,25.0,0.011723444944182395,0.3789549060728703,0.38028015122105074
0155,cdot_cos,T,S-T,299,59,46651,-0.25860381209304295,-0.031947379492912056,-0.2585260326019539,0.0015574436732591942,701.0,11.201826235140127,0.6565174808824021,11.352268902354544,-0.0687518249467181,0.209,0.9999999999968875,209.52234140847622,1.485206691834552,299,2026-10-07 20:02:02.735244,25.0,0.9946977216321414,0.2956695014930624,0.09034202414466265
0155,cdot_cos,P,T-P,300,60,46972,0.045484007958862684,0.001435966196139068,0.30408782005190566,0.9995008953329292,719.0,11.306534603717992,0.657636151997128,11.390613014008226,-0.3827743127292393,0.321,0.9999999999968835,-280.71028530979487,1.4901746134121052,300,2026-10-07 20:02:03.056243,25.0,0.4402619102027972,0.21541740073869337,0.32619429463509525
0155,cdot_cos,Q,P-Q,301,60,47079,-0.017584423135008527,-0.022417489546142217,-0.06306843109387121,0.1712618207025453,719.0,11.340124206414368,0.6578276580078265,11.412904587750965,-0.12351231177281316,0.107,0.9999999999968296,1353.8060764295858,1.4951419451822499,301,2026-10-07 20:02:03.163244,25.0,0.12256936074767419,0.6461875687820402,0.31392152052687444
0155,cdot_cos,R,Q-R,302,60,47107,0.19268976886870437,0.472341219520777,0.2102741920037129,0.9948153499744055,719.0,11.444818743437349,0.6589390482821978,11.45116117777275,-0.3867168828051327,0.028,0.9999999999968244,-236.82461247125778,1.5001090580199432,302,2026-10-07 20:02:03.191243,25.0,0.5063064877493537,2.22010967034333,3.7390906079636084
0155,cdot_cos,S,R-S,303,60,47161,0.00030024266217199875,-0.0034595578210183556,-0.19238952620653238,0.008084108024550514,719.0,11.464450347953594,0.6589480725736899,11.470261451282372,-0.07290935337940087,0.054,0.9999999999967663,34773.64729422238,1.505076245027799,303,2026-10-07 20:02:03.245243,25.0,0.013513341776478406,0.35853938276655645,0.3635482317823233
0155,cdot_cos,T,S-T,304,60,47370,-0.2449492735874952,-0.21306171363512547,-0.24524951624966718,0.002169172685621283,719.0,11.483540996776137,0.6589504940020144,11.489215933688945,-0.07101990952214252,0.209,0.9999999999967077,780.3013775495858,1.5100438689471318,304,2026-10-07 20:02:03.454243,25.0,0.9737463550511503,0.2982172209944069,0.09134281733273987
0155,cdot_cos,P,T-P,305,61,47691,0.048432410984352,0.0008364382007314512,0.2933816845718472,0.9993478229632211,718.0,11.589105146329256,0.6600651734590711,11.527564482626163,-0.3942214452425974,0.321,0.9999999999967033,-289.9502037777495,1.5150118140335849,305,2026-10-07 20:02:03.775244,25.0,0.4404987479171789,0.21490682754889925,0.32886027898168047
0155,cdot_cos,Q,P-Q,306,61,47796,-0.019570149806644857,-0.02371502182993909,-0.06800256079099685,0.15445690391797115,718.0,11.62151118006253,0.6602372980767099,11.549458141308623,-0.1217117546173433,0.105,0.9999999999966467,1583.2115961301424,1.5199791457980534,306,2026-10-07 20:02:03.880243,25.0,0.10656757974641391,0.6569796834083705,0.30862889269784655
0155,cdot_cos,R,Q-R,307,61,47822,0.19116130250370725,0.4377783122569731,0.21073145231035212,0.9948739787837095,718.0,11.727070879845014,0.6613449561663819,11.587722240706036,-0.3981879703847179,0.026,0.9999999999966422,-249.60429427212313,1.5249462520661692,307,2026-10-07 20:02:03.906244,25.0,0.49940597712262763,2.4162321431169937,4.059988453172458
0155,cdot_cos,S,R-S,308,61,47880,0.012928869161290964,-0.03932752035793513,-0.17823243334241629,0.011477635848317118,718.0,11.747155251504614,0.6613577246868029,11.606803471898807,-0.07616784010970927,0.058,0.9999999999965818,25219.84690926958,1.5299134520521964,308,2026-10-07 20:02:03.964243,25.0,0.014584874589114795,0.3496823239736224,0.3462822699930992
0155,cdot_cos,T,S-T,309,61,48072,-0.15105521984264542,-0.023489706331143372,-0.16398408900393638,0.016308879606788052,718.0,11.767634029425954,0.661375867414751,11.625949374722913,-0.07779574869197674,0.192,0.9999999999965219,-89.72788364160506,1.5348810409178884,309,2026-10-07 20:02:04.156243,25.0,0.9792919991215129,0.32781665951834665,0.10666030167364819
0155,cdot_cos,P,T-P,310,62,48409,0.024208362480818896,-0.001336391238414669,0.1752635823234643,0.9876489904617018,700.0,11.873036848759659,0.6624736866943252,11.664075760317148,-0.4019131016573234,0.337,0.9999999999965172,-295.23743934526243,1.5398490565602445,310,2026-10-07 20:02:04.493243,25.0,0.4464461925196314,0.20186109904583963,0.31276800989229864
0155,cdot_cos,Q,P-Q,311,62,48503,-0.05132050096098404,-0.04380151100862799,-0.07552886344180293,0.1314473760698186,700.0,11.90368841018285,0.6626196651082631,11.685448570167127,-0.11752572926842171,0.094,0.9999999999964572,1948.1467479830417,1.5448163614981727,311,2026-10-07 20:02:04.587244,25.0,0.08894045342432565,0.7304864446121668,0.3260804406722474
0155,cdot_cos,R,Q-R,312,62,48533,0.19611560659035512,0.4151588546527591,0.24743610755133916,0.9979459849005575,700.0,12.010368300346746,0.6637269180046532,11.723778443682285,-0.4107345101565089,0.03,0.9999999999964531,-264.8074182908052,1.5497834787155678,312,2026-10-07 20:02:04.617243,25.0,0.48974791069924545,2.145115910397196,3.5559963387965374
0155,cdot_cos,S,R-S,313,62,48580,0.05948615886316727,-0.11051468429352944,-0.13662944772718785,0.03180727294125192,700.0,12.032395364806682,0.663762179706656,11.74317534537754,-0.08525983939819591,0.047,0.9999999999963914,9230.259808020617,1.5547506476207658,313,2026-10-07 20:02:04.664243,25.0,0.021983917875430047,0.44967172945154427,0.4686609459560772
0155,cdot_cos,T,S-T,314,62,48791,-0.11771761802856133,-0.026534086130420062,-0.17720377689172861,0.01177310740985475,700.0,12.052637442915191,0.6637752309698136,11.762150738859274,-0.07848697383641118,0.211,0.9999999999963305,518.9432992020855,1.5597183062516446,314,2026-10-07 20:02:04.875243,25.0,0.9173255425555039,0.2983375442595616,0.09593401947160915
0155,cdot_cos,P,T-P,315,63,49109,0.03992519464503362,0.0010807536164404254,0.15764281267359495,0.9809428214933679,760.0,12.158293808484217,0.6648617909136385,11.800150223290236,-0.4111556970950495,0.318,0.999999999996325,-306.1669309173889,1.5646862897947487,315,2026-10-07 20:02:05.193243,25.0,0.4452557502771651,0.2222752446589199,0.3322527219151744
0155,cdot_cos,Q,P-Q,316,63,49215,-0.019119774148070416,-0.021567832753962488,-0.05904496879310404,0.18601354686917848,760.0,12.194004498518265,0.6650676358785741,11.82252551031704,-0.1397350193549263,0.106,0.9999999999962664,1318.5684567269202,1.5696536359922435,316,2026-10-07 20:02:05.299244,25.0,0.14336011387261252,0.6753640387484647,0.3368933022079961
0155,cdot_cos,R,Q-R,317,63,49242,0.21540794723354023,0.4313865542177056,0.23452772138161065,0.9971659008638856,760.0,12.301470984698891,0.6661700406027578,11.860845116478426,-0.4222922706585942,0.027,0.9999999999962623,-256.309906067306,1.5746207434801853,317,2026-10-07 20:02:05.326244,25.0,0.5121675120493623,2.356637798919588,3.9802402289121086
0155,cdot_cos,S,R-S,318,63,49299,2.055738218561703e-05,-0.004730334514233094,-0.2153873898513546,0.004565347946954471,760.0,12.321262939659922,0.6661750836053103,11.879628250092193,-0.07817657236049143,0.057,0.9999999999961975,68236.27287755164,1.5795879439712608,318,2026-10-07 20:02:05.383244,25.0,0.0122555643679084,0.3484874585850088,0.3472272800180844
0155,cdot_cos,T,S-T,319,63,49491,-0.20109152032026725,0.007399840070993723,-0.20111207770245287,0.006510534232524722,760.0,12.341198554977582,0.6661822752456785,11.898420735638522,-0.07887021928381838,0.192,0.999999999996133,-96.45183682879218,1.584555558993121,319,2026-10-07 20:02:05.575244,25.0,0.9912437722002587,0.33316537908539373,0.10383132977948017
0155,cdot_cos,P,T-P,320,64,49869,0.045821622514246686,-0.0008295026258074903,0.24691314283451393,0.9979190103990654,761.0,12.449198445228713,0.6672836771243004,11.936758457725348,-0.42878066343505317,0.378,0.9999999999961297,-317.69552144678454,1.5895237521523835,320,2026-10-07 20:02:05.953243,25.0,0.4421706918077132,0.1886858432317161,0.2857139953733624
0155,cdot_cos,Q,P-Q,321,64,49964,-0.017356061987162233,-0.017379269859186204,-0.06317768450140893,0.1708745070032693,761.0,12.48384505246076,0.6674720883322717,11.958771452932805,-0.138306104430802,0.095,0.999999999996067,1541.7053058143358,1.5944910695260044,321,2026-10-07 20:02:06.048243,25.0,0.12242832910065302,0.7528997267617437,0.3647011287583829
0155,cdot_cos,R,Q-R,322,64,49994,0.23586237978334426,0.4155120738069654,0.2532184417705065,0.9982219547142199,761.0,12.592249393313445,0.6685716852108482,11.997115973523526,-0.4344981332566076,0.03,0.9999999999960625,-269.364195730747,1.5994581851852259,322,2026-10-07 20:02:06.078244,25.0,0.5057627009598804,2.136435155119306,3.6134780284228305
0155,cdot_cos,S,R-S,323,64,50041,-0.00014772592263768622,-0.0009061413080407329,-0.23601010570598194,0.002731272525299269,761.0,12.612031161767918,0.668574691343673,12.01578460380848,-0.07969288564744151,0.047,0.9999999999959951,118027.13595507019,1.6044253554377073,323,2026-10-07 20:02:06.125243,25.0,0.011653402145149155,0.4196063671905808,0.42088869052071143
0155,cdot_cos,T,S-T,324,64,50249,-0.2549105243936339,-0.06737064231039414,-0.2547627984709962,0.0017108204173133263,761.0,12.63169239182936,0.668576574324678,12.034404428299268,-0.07933101191194977,0.208,0.9999999999959275,192.1812989771437,1.6093930338735665,324,2026-10-07 20:02:06.333244,25.0,0.9954488210264132,0.3091336339592824,0.09452514452615943
0155,cdot_cos,P,T-P,325,65,50630,0.022045715782165225,-0.0001534506907992777,0.2769562401757991,0.9990169882646657,736.0,12.74063075349498,0.6696751999657472,12.072767805454992,-0.44105242105194215,0.381,0.9999999999959236,-329.24901405719385,1.6143612653134032,325,2026-10-07 20:02:06.714243,25.0,0.4403733167221886,0.1815093870179481,0.2859274584399483
0155,cdot_cos,Q,P-Q,326,65,50732,-0.06196194972726966,-0.04945741769411761,-0.08400766550943489,0.1090781964177188,736.0,12.770002544737036,0.6697950422134409,12.093491561729104,-0.11954224268954547,0.102,0.9999999999958549,2682.7782735199135,1.619328609381403,326,2026-10-07 20:02:06.816243,25.0,0.0679141403114945,0.6794632188683222,0.287958737667217
0155,cdot_cos,R,Q-R,327,65,50759,0.19262893470784964,0.3820490300563404,0.2545908844351193,0.9982818235689148,736.0,12.879241250144117,0.6708908107555767,12.131840686645397,-0.4462586736898312,0.027,0.9999999999958487,-298.16190047168004,1.6242957141179613,327,2026-10-07 20:02:06.843244,25.0,0.4808867756047766,2.4686591059156204,4.045877978040059
0155,cdot_cos,S,R-S,328,65,50817,0.07383890413261388,-0.1512468726495964,-0.11879003057523577,0.048811293396130405,736.0,12.90331013645648,0.6709443411824318,12.151346191185931,-0.09882847718999895,0.058,0.9999999999957824,6490.331142692398,1.629262920252529,328,2026-10-07 20:02:06.901243,25.0,0.029733328414522028,0.39938986944331906,0.4149807984889987
0155,cdot_cos,T,S-T,329,65,51008,-0.0667183021518016,-0.006109027837387627,-0.14055720628441548,0.02891846385881486,736.0,12.925570474999542,0.6709760534244936,12.170430737711596,-0.09156221748472966,0.191,0.9999999999957133,229.1310621025896,1.634230557672633,329,2026-10-07 20:02:07.092243,25.0,0.9237085190954174,0.32462386568602725,0.11654627509457112
0155,cdot_cos,P,T-P,330,66,51366,0.02584859851320699,-0.001300710444172779,0.0925669006650086,0.9100440187084503,700.0,13.027316453148542,0.671973218826498,12.207027499844727,-0.419863285076746,0.358,0.9999999999957031,-329.2343145200571,1.6391987427277344,330,2026-10-07 20:02:07.450243,25.0,0.45752500780411964,0.18800802029610456,0.2842066428742998
0155,cdot_cos,Q,P-Q,331,66,51461,-0.044991932508738494,-0.04262767611368824,-0.07084053102194549,0.1454163634864494,700.0,13.060184217531553,0.6721324129819733,12.228405981752006,-0.13630132567456776,0.095,0.9999999999956342,1781.2334790520945,1.644166068935393,331,2026-10-07 20:02:07.545243,25.0,0.12487962574174963,0.7520543448590731,0.34597646718959507
0155,cdot_cos,R,Q-R,332,66,51490,0.2000938456022984,0.4302142676820683,0.24508577811103688,0.9978219490878261,700.0,13.170206778671766,0.6732237067255146,12.266748357166984,-0.4579732566279456,0.029,0.9999999999956288,-294.7620041415799,1.6491331791675217,332,2026-10-07 20:02:07.574244,25.0,0.4954041059528468,2.2552817891096737,3.793881418628012
0155,cdot_cos,S,R-S,333,66,51539,0.018784414918230238,-0.05721944462025766,-0.18130943068406816,0.010636863667713556,700.0,13.190990561299914,0.6732353299358134,12.28542056721466,-0.08694331804800251,0.049,0.9999999999955569,31921.46825549763,1.654100356849055,333,2026-10-07 20:02:07.623244,25.0,0.014016889548680835,0.4207418853676295,0.42415882914589237
0155,cdot_cos,T,S-T,334,66,51748,-0.17804193031535562,-0.03947369468280217,-0.19682634523358586,0.007241503119703108,700.0,13.211439483437793,0.6732432428151562,12.303997953474243,-0.08567525606907528,0.209,0.9999999999954845,160.2529147710331,1.6590680666307007,334,2026-10-07 20:02:07.832243,25.0,0.98530819748549,0.31279866683817914,0.09784173271712425
0155,cdot_cos,P,T-P,335,67,52066,0.041180457400311524,-5.804391938526855e-05,0.21922238771566716,0.9958502950008585,740.0,13.321740404038273,0.6743304799471923,12.342303386694752,-0.46361981153788145,0.318,0.9999999999954797,-347.6192491338389,1.664036144682611,335,2026-10-07 20:02:08.150244,25.0,0.44254919982666097,0.23016467894600584,0.3468582408820123
0155,cdot_cos,Q,P-Q,336,67,52164,-0.02000035285067558,-0.02187395425038415,-0.06118081025098711,0.17806388886199437,740.0,13.357824219247453,0.6745246871379752,12.364271503872857,-0.1524583199796013,0.098,0.9999999999954122,1602.214059654129,1.6690034861238903,336,2026-10-07 20:02:08.248243,25.0,0.12990380789583394,0.7494625765847709,0.3682021960120388
0155,cdot_cos,R,Q-R,337,67,52194,0.21794659435843788,0.4329832213322631,0.23794694720911347,0.9973974917329673,740.0,13.468635069048888,0.6756113991764943,12.40260651205106,-0.4699501655730909,0.03,0.999999999995407,-292.15821150390167,1.6739705991160776,337,2026-10-07 20:02:08.278244,25.0,0.5088580416120253,2.1870210611437755,3.6936949933811767
0155,cdot_cos,S,R-S,338,67,52253,0.004923405527673349,-0.023473104088012123,-0.21302318883076454,0.004841970795967732,740.0,13.48904548291608,0.6756166701328361,12.421091260107918,-0.08698367189790546,0.059,0.9999999999953318,72655.97907446268,1.6789378120253817,338,2026-10-07 20:02:08.337244,25.0,0.012243745745906328,0.35087943228036667,0.3459392180879869
