event_index,k,event,peak,onset,offset,arc,amplitude,RR,r,c_cos,c_sin,cdot_cos,cdot_sin,transition
0,0,P,1265,1222,1293,71,0.1737185,760,120.95775674984046,0.0401387342708811,-0.0018311666579402905,,,→P
1,0,Q,1359,1350,1370,20,-0.2914295,760,120.95775674984046,-0.02008853450970768,-0.0197443219855053,-0.060227268780588775,-0.01791315532756501,P→Q
2,0,R,1384,1370,1410,40,1.6711894999999999,760,120.95775674984046,0.1649836555568972,0.2672717797786798,0.18507219006660489,0.28701610176418507,Q→R
3,0,S,1414,1410,1422,12,-0.12266849999999999,760,120.95775674984046,-0.002553261482357676,-0.007531477841595508,-0.16753691703925488,-0.2748032576202753,R→S
4,0,T,1645,1495,1732,237,0.3790295,760,120.95775674984046,-0.30362405848548946,0.044095006390395645,-0.3010707970031318,0.051626484231991156,S→T
5,1,P,2025,1997,2052,55,0.16125250000000002,837,133.2126873679164,0.03221052468461168,-4.999131971280393e-05,0.3358345831701011,-0.04414499771010845,T→P
6,1,Q,2126,2107,2136,29,-0.23778950000000001,837,133.2126873679164,-0.022055281005826613,-0.020219052347302237,-0.05426580569043829,-0.020169061027589433,P→Q
7,1,R,2155,2136,2172,36,1.6517685000000002,837,133.2126873679164,0.16536532423642133,0.23931045655163308,0.18742060524224796,0.25952950889893533,Q→R
8,1,S,2178,2172,2185,13,-0.1693535,837,133.2126873679164,-0.004227600458920997,-0.00934269448800976,-0.16959292469534235,-0.24865315103964283,R→S
9,1,T,2424,2274,2472,198,0.3729255,837,133.2126873679164,-0.22890238222396714,0.10057623385007601,-0.22467478176504613,0.10991892833808577,S→T
10,2,P,2862,2819,2890,71,0.157738,839,133.53099725410019,0.03500194791483567,-0.001966563855758904,0.2639043301388028,-0.10254279770583491,T→P
11,2,Q,2954,2945,2963,18,-0.280147,839,133.53099725410019,-0.018202825468427643,-0.015044471976333018,-0.053204773383263314,-0.013077908120574114,P→Q
12,2,R,2984,2963,3003,40,1.741661,839,133.53099725410019,0.17864492314301314,0.2267242983514844,0.19684774861144078,0.2417687703278174,Q→R
13,2,S,3011,3003,3018,15,-0.146751,839,133.53099725410019,-0.004173310949455877,-0.008337118231291223,-0.18281823409246903,-0.2350614165827756,R→S
14,2,T,3242,3093,3310,217,0.390312,839,133.53099725410019,-0.24042297636858234,0.11829522052297042,-0.23624966541912645,0.12663233875426164,S→T
15,3,P,3701,3673,3729,56,0.16182549999999998,800,127.32395447351627,0.030406357291859393,-8.06606120970873e-06,0.2708293336604417,-0.11830328658418013,T→P
16,3,Q,3799,3783,3810,27,-0.2644805,800,127.32395447351627,-0.02134095916280435,-0.02028851953265435,-0.05174731645466374,-0.02028045347144464,P→Q
17,3,R,3823,3810,3848,38,1.6332165,800,127.32395447351627,0.16052126789554136,0.24644665234027355,0.1818622270583457,0.2667351718729279,Q→R
18,3,S,3853,3848,3860,12,-0.1385935,800,127.32395447351627,-0.0034120888977796845,-0.008699270243002677,-0.16393335679332105,-0.25514592258327623,R→S
19,3,T,4101,3954,4149,195,0.3462345,800,127.32395447351627,-0.22621269908885588,0.06135133953406619,-0.2228006101910762,0.07005060977706887,S→T
20,4,P,4501,4473,4547,74,0.16617200000000001,858,136.5549411728462,0.04226913753754112,0.0019038228705226638,0.268481836626397,-0.05944751666354353,T→P
21,4,Q,4606,4587,4615,28,-0.227617,858,136.5549411728462,-0.015910500191723374,-0.01498487782263996,-0.058179637729264495,-0.016888700693162624,P→Q
22,4,R,4635,4615,4653,38,1.691499,858,136.5549411728462,0.166849147573028,0.24058965600722595,0.18275964776475137,0.2555745338298659,Q→R
23,4,S,4657,4653,4664,11,-0.075096,858,136.5549411728462,-0.0011918923008793455,-0.0025906784537137024,-0.16804103987390734,-0.24318033446093965,R→S
24,4,T,4900,4750,4988,238,0.435258,858,136.5549411728462,-0.2984452624461783,0.13954097093009593,-0.29725337014529896,0.14213164938380962,S→T
25,5,P,5359,5315,5387,72,0.1658575,880,140.0563499208679,0.04005704267916429,-0.0024283590072492487,0.3385023051253426,-0.14196932993734518,T→P
26,5,Q,5450,5442,5459,17,-0.2615585,880,140.0563499208679,-0.015704536113448842,-0.012003932960586617,-0.055761578792613134,-0.009575573953337368,P→Q
27,5,R,5480,5459,5500,41,1.7544045000000001,880,140.0563499208679,0.1844427841324574,0.2114924331229917,0.20014732024590626,0.2234963660835783,Q→R
28,5,S,5507,5500,5513,13,-0.1287535,880,140.0563499208679,-0.003580239594328807,-0.006189909847213178,-0.1880230237267862,-0.2176823429702049,R→S
29,5,T,5738,5588,5827,239,0.44252650000000004,880,140.0563499208679,-0.26940608815646644,0.18400298031419474,-0.26582584856213765,0.19019289016140792,S→T
30,6,P,6239,6210,6284,74,0.180655,837,133.2126873679164,0.04247211288302399,0.0011673043035049927,0.31187820103949043,-0.18283567601068976,T→P
31,6,Q,6340,6324,6349,25,-0.21198699999999998,837,133.2126873679164,-0.01757896000453959,-0.016059462397328982,-0.060051072887563575,-0.017226766700833975,P→Q
32,6,R,6362,6349,6386,37,1.6242269999999999,837,133.2126873679164,0.16534850269626572,0.23625513707277576,0.18292746270080532,0.25231459947010476,Q→R
33,6,S,6391,6386,6398,12,-0.10818499999999999,837,133.2126873679164,-0.0023969542986747613,-0.005289772365318599,-0.16774545699494048,-0.24154490943809437,R→S
34,6,T,6637,6487,6705,218,0.397581,837,133.2126873679164,-0.2685947818752177,0.10951195226205415,-0.2661978275765429,0.11480172462737274,S→T
35,7,P,7076,7032,7104,72,0.16269499999999998,843,134.16761702646778,0.04453046241118803,-0.0030012194174782736,0.3131252442864057,-0.11251317167953243,T→P
36,7,Q,7166,7157,7175,18,-0.283291,843,134.16761702646778,-0.016562966330523003,-0.013187982789296643,-0.06109342874171103,-0.01018676337181837,P→Q
37,7,R,7196,7175,7218,43,1.7408100000000002,843,134.16761702646778,0.18926459312013014,0.22866845877786157,0.20582755945065315,0.24185644156715821,Q→R
38,7,S,7224,7218,7228,10,-0.07276500000000001,843,134.16761702646778,-0.0014793127482151133,-0.0028590691147673927,-0.19074390586834525,-0.23152752789262895,R→S
39,7,T,7456,7306,7706,400,0.431818,843,134.16761702646778,-0.3406255760064527,0.10391171822018462,-0.3391462632582376,0.10677078733495202,S→T
40,8,P,7919,7889,7962,73,0.1597905,875,139.26057520540843,0.04005826505855647,0.0008571109468316151,0.3806838410650092,-0.103054607273353,T→P
41,8,Q,8022,8001,8030,29,-0.2525685,875,139.26057520540843,-0.017623656912870222,-0.01547645533597326,-0.057681921971426686,-0.016333566282804874,P→Q
42,8,R,8050,8030,8067,37,1.6839705,875,139.26057520540843,0.16861595245190655,0.22497024444459812,0.18623960936477676,0.24044669978057137,Q→R
43,8,S,8072,8067,8081,14,-0.1301965,875,139.26057520540843,-0.0031887416065256922,-0.006294630681945459,-0.17180469405843224,-0.2312648751265436,R→S
44,8,T,8315,8165,8382,217,0.4410845,875,139.26057520540843,-0.25286514131200066,0.13925867788007065,-0.24967639970547498,0.14555330856201612,S→T
45,9,P,8794,8784,8822,38,0.1728125,839,133.53099725410019,0.021941453475082147,0.0011693993494819855,0.2748065947870828,-0.13808927853058867,T→P
46,9,Q,8891,8878,8903,25,-0.2575255,839,133.53099725410019,-0.021798357280993125,-0.019497899756681536,-0.043739810756075276,-0.020667299106163523,P→Q
47,9,R,8916,8903,8940,37,1.6163845000000001,839,133.53099725410019,0.1612610535791565,0.22496989032715645,0.18305941086014962,0.24446779008383798,Q→R
48,9,S,8946,8940,8954,14,-0.1629725,839,133.53099725410019,-0.004594847881328407,-0.009998027537088014,-0.1658559014604849,-0.23496791786424445,R→S
49,9,T,9193,9065,9240,175,0.3323255,839,133.53099725410019,-0.1824358567663091,0.06987889583862862,-0.1778410088849807,0.07987692337571664,S→T
50,10,P,9633,9589,9661,72,0.186462,878,139.7380400346841,0.03891161267463611,-0.001517000626360929,0.22134746944094522,-0.07139589646498955,T→P
51,10,Q,9728,9718,9739,21,-0.255491,878,139.7380400346841,-0.016608419572114803,-0.013437422018121885,-0.05552003224675091,-0.011920421391760956,P→Q
52,10,R,9756,9739,9778,39,1.71412,878,139.7380400346841,0.1784802105771607,0.22039536095636844,0.19508863014927552,0.23383278297449034,Q→R
53,10,S,9782,9778,9790,12,-0.127311,878,139.7380400346841,-0.0033196310031251134,-0.006154250828023557,-0.1817998415802858,-0.226549611784392,R→S
54,10,T,10032,9882,10100,218,0.41959199999999996,878,139.7380400346841,-0.2689836487494654,0.16453200115472108,-0.2656640177463403,0.17068625198274465,S→T
55,11,P,10511,10467,10539,72,0.153668,858,136.5549411728462,0.03714632456947553,-0.002562944637368955,0.30612997331894093,-0.16709494579209003,T→P
56,11,Q,10601,10592,10611,19,-0.291726,858,136.5549411728462,-0.01850494519669915,-0.014507531848141561,-0.05565126976617468,-0.011944587210772606,P→Q
57,11,R,10631,10611,10649,38,1.736445,858,136.5549411728462,0.18312967757309626,0.2166014616545596,0.2016346227697954,0.23110899350270114,Q→R
58,11,S,10658,10649,10665,16,-0.120079,858,136.5549411728462,-0.003966949607256867,-0.007182220578133682,-0.18709662718035314,-0.22378368223269327,R→S
59,11,T,10891,10741,10978,237,0.43496199999999996,858,136.5549411728462,-0.2740162220691505,0.15466444379539396,-0.27004927246189364,0.16184666437352763,S→T
60,12,P,11369,11326,11380,54,0.144125,820,130.5070533353542,0.028399384205993933,-0.0027714201228371395,0.3024156062751444,-0.15743586391823108,T→P
61,12,Q,11460,11431,11470,39,-0.330272,820,130.5070533353542,-0.027250479810470313,-0.021617742357837644,-0.05564986401646425,-0.018846322235000504,P→Q
62,12,R,11490,11470,11510,40,1.678145,820,130.5070533353542,0.17647665465263818,0.22860263121736774,0.2037271344631085,0.2502203735752054,Q→R
63,12,S,11518,11510,11526,16,-0.125553,820,130.5070533353542,-0.003414004403586296,-0.0073674580879657834,-0.17989065905622448,-0.23597008930533353,R→S
64,12,T,11751,11601,11818,217,0.42368000000000006,820,130.5070533353542,-0.266438549597206,0.11018335286377168,-0.2630245451936197,0.11755081095173746,S→T
65,13,P,12189,12144,12236,92,0.18588949999999999,818,130.1887434491704,0.05275464989249761,-0.00023639938818234714,0.3191931994897036,-0.11041975225195402,T→P
66,13,Q,12290,12275,12299,24,-0.1963205,818,130.1887434491704,-0.01567641353494116,-0.014986188473079028,-0.06843106342743877,-0.014749789084896681,P→Q
67,13,R,12319,12299,12336,37,1.7059995000000001,818,130.1887434491704,0.16998924068792895,0.2574027452981447,0.18566565422287012,0.27238893377122375,Q→R
68,13,S,12341,12336,12348,12,-0.1435325,818,130.1887434491704,-0.0032396466908975936,-0.0076342588125728125,-0.17322888737882655,-0.2650370041107175,R→S
69,13,T,12588,12438,12657,219,0.44975950000000003,818,130.1887434491704,-0.3239663500318115,0.1062162184186042,-0.3207267033409139,0.113850477231177,S→T
70,14,P,13007,12965,13034,69,0.1589215,740,117.77465788800255,0.0420893275085962,-0.0032099550503278274,0.3660556775404077,-0.10942617346893202,T→P
71,14,Q,13098,13072,13107,35,-0.32128350000000006,740,117.77465788800255,-0.02758742770477206,-0.025363746241112595,-0.06967675521336826,-0.02215379119078477,P→Q
72,14,R,13128,13107,13149,42,1.6853945,740,117.77465788800255,0.17120316224994392,0.2741181139680002,0.198790589954716,0.29948186020911277,Q→R
73,14,S,13156,13149,13162,13,-0.11020150000000001,740,117.77465788800255,-0.001934081705718177,-0.005981707945403558,-0.1731372439556621,-0.2800998219134037,R→S
74,14,T,13387,13237,13454,217,0.3723335,740,117.77465788800255,-0.28745832059704424,0.037736270099602016,-0.28552423889132605,0.04371797804500557,S→T
75,15,P,13747,13718,13793,75,0.1620835,798,127.00564458733248,0.04081225195635611,0.001633115913219934,0.32827057255340036,-0.03610315418638208,T→P
76,15,Q,13851,13832,13860,28,-0.2299665,798,127.00564458733248,-0.018341810278206784,-0.0188426729662019,-0.0591540622345629,-0.020475788879421836,P→Q
77,15,R,13880,13860,13899,39,1.7071645,798,127.00564458733248,0.16360273195834132,0.27297837163230676,0.1819445422365481,0.29182104459850866,Q→R
78,15,S,13902,13899,13907,8,-0.07163749999999999,798,127.00564458733248,-0.000948964758883299,-0.002604287802306391,-0.1645516967172246,-0.27558265943461313,R→S
79,15,T,14146,13996,14235,239,0.4265825,798,127.00564458733248,-0.341032790094512,0.09071769734876038,-0.3400838253356287,0.09332198515106677,S→T
80,16,P,14545,14500,14572,72,0.1397585,782,124.45916549786216,0.03783782233069603,-0.0030029539850058642,0.37887061242520803,-0.09372065133376625,T→P
81,16,Q,14635,14610,14645,35,-0.2998645,782,124.45916549786216,-0.023745137383706507,-0.02010771903967146,-0.061582959714402544,-0.017104765054665596,P→Q
82,16,R,14665,14645,14683,38,1.7497625,782,124.45916549786216,0.18142205948282178,0.25460131819979526,0.2051671968665283,0.2747090372394667,Q→R
83,16,S,14692,14683,14700,17,-0.11889549999999999,782,124.45916549786216,-0.0037767804748564254,-0.008943070781101015,-0.18519883995767822,-0.26354438898089627,R→S
84,16,T,14925,14778,14991,213,0.36597050000000003,782,124.45916549786216,-0.24324097650927015,0.06871294924158287,-0.2394641960344137,0.07765602002268389,S→T
85,17,P,15327,15318,15352,34,0.1168785,777,123.66339078240269,0.018240221217754198,0.0010572898069244412,0.26148119772702433,-0.06765565943465843,T→P
86,17,Q,15432,15368,15441,73,-0.3314375,777,123.66339078240269,-0.04424198834995656,-0.03840038329742,-0.06248220956771076,-0.03945767310434444,P→Q
87,17,R,15461,15441,15477,36,1.6213045000000001,777,123.66339078240269,0.14604474180075638,0.2626679402494002,0.19028673015071296,0.3010683235468202,Q→R
88,17,S,15486,15477,15499,22,-0.09483150000000001,777,123.66339078240269,-0.0032467232531515483,-0.011288492797522526,-0.14929146505390795,-0.27395643304692274,R→S
89,17,T,15724,15614,15770,156,0.2873785,777,123.66339078240269,-0.17049174419604196,0.017740594840906194,-0.1672450209428904,0.02902908763842872,S→T
90,18,P,16104,16098,16132,34,0.13049150000000004,838,133.3718423110083,0.020302680534448368,0.0015336885030201872,0.19079442473049033,-0.016206906337886007,T→P
91,18,Q,16211,16187,16220,33,-0.3201554999999999,838,133.3718423110083,-0.02291770670488299,-0.022520390590531826,-0.04322038723933136,-0.024054079093552012,P→Q
92,18,R,16241,16220,16258,38,1.6842294999999998,838,133.3718423110083,0.15587205874863802,0.24568988484372276,0.17878976545352102,0.2682102754342546,Q→R
93,18,S,16265,16258,16277,19,-0.07019449999999999,838,133.3718423110083,-0.0021921489360425804,-0.0059618228950760995,-0.1580642076846806,-0.25165170773879886,R→S
94,18,T,16502,16352,16571,219,0.40479450000000006,838,133.3718423110083,-0.2755713905646867,0.1067802362549504,-0.27337924162864413,0.1127420591500265,S→T
95,19,P,16942,16895,16974,79,0.198652,838,133.3718423110083,0.04790943946238846,-0.0022877810502696,0.3234808300270752,-0.10906801730521999,T→P
96,19,Q,17038,17028,17048,20,-0.23227800000000004,838,133.3718423110083,-0.014518952556848526,-0.012607980259337834,-0.062428392019236986,-0.010320199209068234,P→Q
97,19,R,17068,17048,17087,39,1.741957,838,133.3718423110083,0.17829091813187323,0.24235476477539444,0.19280987068872174,0.25496274503473226,Q→R
98,19,S,17091,17087,17099,12,-0.16498800000000002,838,133.3718423110083,-0.003737710577686165,-0.007832422828090628,-0.18202862870955938,-0.2501871876034851,R→S
99,19,T,17342,17192,17592,400,0.432373,838,133.3718423110083,-0.34425571912615605,0.07276412318600223,-0.34051800854846986,0.08059654601409286,S→T
100,20,P,17780,17737,17789,52,0.1319535,780,124.14085561167836,0.0269907997064327,-0.0030369788548977057,0.37124651883258875,-0.07580110204089993,T→P
101,20,Q,17870,17844,17880,36,-0.3215785,780,124.14085561167836,-0.02710966535982513,-0.02281805288494716,-0.05410046506625783,-0.01978107403004945,P→Q
102,20,R,17901,17880,17920,40,1.6514725,780,124.14085561167836,0.1737035144616531,0.24419946727355857,0.20081317982147823,0.2670175201585057,Q→R
103,20,S,17928,17920,17936,16,-0.1191915,780,124.14085561167836,-0.003107211197266289,-0.007760887619569675,-0.1768107256589194,-0.25196035489312824,R→S
104,20,T,18160,18013,18228,215,0.3702985,780,124.14085561167836,-0.2629073990587406,0.07050347044008876,-0.2598001878614743,0.07826435805965844,S→T
105,21,P,18560,18550,18588,38,0.160086,818,130.1887434491704,0.02478663465173383,0.0015435950723605703,0.2876940337104744,-0.06895987536772819,T→P
106,21,Q,18661,18645,18671,26,-0.22852399999999998,818,130.1887434491704,-0.01930510735523539,-0.01843726495435342,-0.04409174200696922,-0.01998086002671399,P→Q
107,21,R,18684,18671,18709,38,1.677867,818,130.1887434491704,0.16603982254438085,0.252086721152677,0.18534492989961623,0.27052398610703043,Q→R
108,21,S,18714,18709,18719,10,-0.08410300000000001,818,130.1887434491704,-0.001759104889540139,-0.00426130687079869,-0.167798927433921,-0.25634802802347567,R→S
109,21,T,18959,18809,19209,400,0.423365,818,130.1887434491704,-0.36130507202688295,0.018002753610523444,-0.3595459671373428,0.022264060481322134,S→T
110,22,P,19378,19334,19406,72,0.14847049999999998,839,133.53099725410019,0.03963344940656423,-0.002745033764875743,0.40093852143344716,-0.020747787375399188,T→P
111,22,Q,19468,19459,19477,18,-0.28767550000000003,839,133.53099725410019,-0.017133969223348307,-0.01376391783040528,-0.05676741862991254,-0.011018884065529536,P→Q
112,22,R,19498,19477,19515,38,1.7538495,839,133.53099725410019,0.18629731028363497,0.22663004571945028,0.20343127950698328,0.24039396354985557,Q→R
113,22,S,19520,19515,19531,16,-0.08469550000000003,839,133.53099725410019,-0.00312614040106167,-0.005886385309735592,-0.18942345068469665,-0.23251643102918587,R→S
114,22,T,19758,19608,19847,239,0.4425265,839,133.53099725410019,-0.2993144404124333,0.1577123404793872,-0.29618830001137164,0.1635987257891228,S→T
115,23,P,20217,20188,20246,58,0.169945,820,130.5070533353542,0.034654595526074305,-8.244325411314885e-05,0.33396903593850763,-0.15779478373350037,T→P
116,23,Q,20314,20303,20326,23,-0.242414,820,130.5070533353542,-0.017982005459201346,-0.016476481552161786,-0.05263660098527565,-0.016394038298048638,P→Q
117,23,R,20344,20326,20363,37,1.667416,820,130.5070533353542,0.16776283100121045,0.24374956407493714,0.1857448364604118,0.26022604562709895,Q→R
118,23,S,20367,20363,20376,13,-0.158921,820,130.5070533353542,-0.004067755021772511,-0.009408785662326748,-0.17183058602298296,-0.25315834973726387,R→S
119,23,T,20617,20467,20666,199,0.39090400000000003,820,130.5070533353542,-0.25603707049866936,0.09012427729832315,-0.2519693154768968,0.0995330629606499,S→T
120,24,P,21037,20993,21064,71,0.151079,801,127.48310941660817,0.0382116843737238,-0.0029095311450696624,0.29424875487239316,-0.0930338084433928,T→P
121,24,Q,21126,21117,21136,19,-0.32450100000000004,801,127.48310941660817,-0.02124384415020973,-0.01802771743494879,-0.05945552852393353,-0.015118186289879128,P→Q
122,24,R,21156,21136,21178,42,1.685691,801,127.48310941660817,0.18239568501864054,0.24042588498128795,0.20363952916885025,0.2584536024162367,Q→R
123,24,S,21185,21178,21191,13,-0.10121200000000001,801,127.48310941660817,-0.002141324677587255,-0.004844122178102683,-0.1845370096962278,-0.24527000715939062,R→S
124,24,T,21416,21266,21485,219,0.385984,801,127.48310941660817,-0.2800849522962131,0.10765303297697922,-0.27794362761862584,0.1124971551550819,S→T
125,25,P,21838,21808,21883,75,0.1684845,840,133.69015219719208,0.0408125363972047,0.0010912852276986165,0.32089748869341783,-0.1065617477492806,T→P
126,25,Q,21941,21921,21950,29,-0.2328515,840,133.69015219719208,-0.018382285051999788,-0.017100485294470242,-0.05919482144920449,-0.01819177052216886,P→Q
127,25,R,21969,21950,21986,36,1.6926645,840,133.69015219719208,0.16732009081767085,0.24367487045941913,0.18570237586967064,0.2607753557538894,Q→R
128,25,S,21991,21986,21998,12,-0.12150249999999999,840,133.69015219719208,-0.002520203005036764,-0.005571369471720075,-0.16984029382270763,-0.2492462399311392,R→S
129,25,T,22234,22084,22303,219,0.4283225,840,133.69015219719208,-0.2911478351717708,0.122735368654304,-0.28862763216673404,0.12830673812602408,S→T
130,26,P,22678,22649,22721,72,0.158922,859,136.7140961159381,0.036163340704526,0.0005662077777276198,0.32731117587629677,-0.12216916087657638,T→P
131,26,Q,22782,22760,22789,29,-0.235459,859,136.7140961159381,-0.01753500454396168,-0.015675753182237646,-0.05369834524848768,-0.016241960959965267,P→Q
132,26,R,22809,22789,22826,37,1.69468,859,136.7140961159381,0.16957113844345723,0.23426328668035676,0.1871061429874189,0.24993903986259441,Q→R
133,26,S,22830,22826,22838,12,-0.10380199999999999,859,136.7140961159381,-0.0022585013863140237,-0.004641538948439451,-0.17182963982977126,-0.2389048256287962,R→S
134,26,T,23074,22924,23141,217,0.408882,859,136.7140961159381,-0.2519803231670594,0.13197121393599212,-0.24972182178074534,0.13661275288443156,S→T
135,27,P,23537,23509,23580,71,0.1331,815,129.7112786198947,0.03690376118926416,0.0013124842351846914,0.2888840843563235,-0.13065872970080744,T→P
136,27,Q,23641,23619,23650,31,-0.302454,815,129.7112786198947,-0.020199934755963083,-0.020115723494463406,-0.05710369594522724,-0.021428207729648097,P→Q
137,27,R,23671,23650,23689,39,1.613777,815,129.7112786198947,0.15358410831542918,0.24453303116719974,0.17378404307139225,0.26464875466166315,Q→R
138,27,S,23699,23693,23705,12,-0.047277,815,129.7112786198947,-0.0008504346154210636,-0.002524910133736707,-0.15443454293085024,-0.24705794130093645,R→S
139,27,T,23933,23783,24000,217,0.35350400000000004,815,129.7112786198947,-0.24238445819727214,0.0715789248801941,-0.24153402358185108,0.07410383501393081,S→T
140,28,P,24352,24303,24382,79,0.196876,840,133.69015219719208,0.05155027735583926,-0.0025620061350864268,0.2939347355531114,-0.07414093101528052,T→P
141,28,Q,24446,24437,24454,17,-0.24041599999999996,840,133.69015219719208,-0.014313781656084863,-0.01197869682895345,-0.06586405901192412,-0.009416690693867023,P→Q
142,28,R,24476,24454,24497,43,1.765152,840,133.69015219719208,0.18564723401343217,0.24165796265467837,0.19996101566951702,0.25363665948363184,Q→R
143,28,S,24500,24497,24507,10,-0.09599600000000001,840,133.69015219719208,-0.0019647481588698115,-0.0040083774970008715,-0.187611982172302,-0.24566634015167924,R→S
144,28,T,24732,24582,24820,238,0.41901900000000003,840,133.69015219719208,-0.30096787768625727,0.157938272321638,-0.29900312952738745,0.16194664981863888,S→T
145,29,P,25192,25164,25238,74,0.162084,898,142.92113889652202,0.03987386300666654,0.0016646224032587902,0.34084174069292383,-0.15627364991837922,T→P
146,29,Q,25298,25276,25306,30,-0.257822,898,142.92113889652202,-0.0191839136567543,-0.016676997398257724,-0.05905777666342084,-0.018341619801516516,P→Q
147,29,R,25326,25306,25342,36,1.672355,898,142.92113889652202,0.16389077757226667,0.21573349400104097,0.18307469122902098,0.2324104913992987,Q→R
148,29,S,25348,25342,25357,15,-0.151097,898,142.92113889652202,-0.003867881301782453,-0.007421129693005882,-0.16775865887404912,-0.22315462369404684,R→S
149,29,T,25591,25444,25639,195,0.38422700000000004,898,142.92113889652202,-0.19727730173054128,0.12160099807885962,-0.19340942042875883,0.1290221277718655,S→T
150,30,P,26090,26047,26117,70,0.1670045,879,139.897194977776,0.03582593520660564,-0.0018713378592916307,0.2331032369371469,-0.12347233593815124,T→P
151,30,Q,26183,26172,26192,20,-0.2992905,879,139.897194977776,-0.018513125730661755,-0.014316542476954058,-0.0543390609372674,-0.012445204617662426,P→Q
152,30,R,26212,26192,26231,39,1.7248485,879,139.897194977776,0.17928615478497428,0.20970993828962148,0.19779928051563603,0.22402648076657553,Q→R
153,30,S,26238,26231,26245,14,-0.1484705,879,139.897194977776,-0.00440405656423371,-0.007795937913677472,-0.183690211349208,-0.21750587620329895,R→S
154,30,T,26469,26322,26537,215,0.37986149999999996,879,139.897194977776,-0.2173259787598002,0.14392446536757994,-0.2129219221955665,0.1517204032812574,S→T
155,31,P,26969,26961,26998,37,0.155721,781,124.30001055477027,0.02591265974460018,0.001967289563273417,0.2432386385044004,-0.14195717580430653,T→P
156,31,Q,27072,27054,27081,27,-0.22822800000000001,781,124.30001055477027,-0.02052177936555726,-0.021485378217156,-0.04643443911015744,-0.02345266778042942,P→Q
157,31,R,27094,27081,27119,38,1.601032,781,124.30001055477027,0.15037582782280945,0.25841492351298295,0.17089760718836672,0.27990030173013897,Q→R
158,31,S,27124,27119,27131,12,-0.06756799999999999,781,124.30001055477027,-0.0012288306176238878,-0.0036074874258785784,-0.15160465844043333,-0.2620224109388615,R→S
159,31,T,27368,27218,27436,218,0.38422599999999996,781,124.30001055477027,-0.28654858847995207,0.04555153757794868,-0.28531975786232816,0.04915902500382725,S→T
160,32,P,27750,27722,27795,73,0.16121449999999998,836,133.0535324248245,0.0457223742133734,0.0023673498224729634,0.33227096269332546,-0.043184187755475716,T→P
161,32,Q,27856,27833,27864,31,-0.2871015,836,133.0535324248245,-0.018535382411149316,-0.018016493683031726,-0.06425775662452271,-0.02038384350550469,P→Q
162,32,R,27885,27864,27903,39,1.7045205,836,133.0535324248245,0.16247547153315045,0.25046652763569566,0.18101085394429978,0.26848302131872737,Q→R
163,32,S,27909,27903,27920,17,-0.0527885,836,133.0535324248245,-0.00147582538624967,-0.003886939986195652,-0.1639512969194001,-0.2543534676218913,R→S
164,32,T,28147,27997,28215,218,0.4123595,836,133.0535324248245,-0.27360732455292686,0.1064537895108952,-0.27213149916667717,0.11034072949709084,S→T
165,33,P,28586,28541,28613,72,0.1319345,860,136.87325105903,0.03624275188650481,-0.0031163545944238673,0.3098500764394317,-0.10957014410531907,T→P
166,33,Q,28675,28651,28684,33,-0.3059495,860,136.87325105903,-0.0229461785805393,-0.016672110423019398,-0.05918893046704411,-0.01355575582859553,P→Q
167,33,R,28705,28684,28721,37,1.7245515,860,136.87325105903,0.18808569861323496,0.21357817034479043,0.21103187719377425,0.23025028076780982,Q→R
168,33,S,28727,28721,28739,18,-0.0942765,860,136.87325105903,-0.004145329376016663,-0.007067829122083873,-0.19223102798925162,-0.2206459994668743,R→S
169,33,T,28967,28817,29033,216,0.40335150000000003,860,136.87325105903,-0.23772371610067458,0.14764443318250642,-0.23357838672465792,0.1547122623045903,S→T
170,34,P,29446,29419,29493,74,0.17253400000000002,859,136.7140961159381,0.047072731253483636,0.0029918467222346977,0.2847964473541582,-0.1446525864602717,T→P
171,34,Q,29551,29533,29559,26,-0.204423,859,136.7140961159381,-0.014062719674848819,-0.013135324004595475,-0.061135450928332453,-0.016127170726830172,P→Q
172,34,R,29579,29559,29596,37,1.712954,859,136.7140961159381,0.1693825731601781,0.24175595649163487,0.18344529283502692,0.25489128049623033,Q→R
173,34,S,29601,29596,29607,11,-0.10295099999999999,859,136.7140961159381,-0.0018726679210746592,-0.004005787585485321,-0.17125524108125276,-0.24576174407712018,R→S
174,34,T,29845,29695,29913,218,0.432372,859,136.7140961159381,-0.2873286528958298,0.14033362489119447,-0.28545598497475516,0.14433941247667978,S→T
175,35,P,30305,30295,30333,38,0.174847,798,127.00564458733248,0.026296705597285704,0.001508156903693117,0.3136253584931155,-0.13882546798750134,T→P
176,35,Q,30405,30389,30415,26,-0.220681,798,127.00564458733248,-0.019584670051885696,-0.019093504738012718,-0.0458813756491714,-0.020601661641705835,P→Q
177,35,R,30428,30415,30453,38,1.643352,798,127.00564458733248,0.16008137309259396,0.25146975217407214,0.17966604314447965,0.2705632569120848,Q→R
178,35,S,30457,30453,30464,11,-0.09135399999999999,798,127.00564458733248,-0.002124335827038107,-0.005540827119972642,-0.16220570891963207,-0.2570105792940448,R→S
179,35,T,30704,30554,30771,217,0.384818,798,127.00564458733248,-0.27223604712148647,0.06776171937869938,-0.2701117112944484,0.07330254649867202,S→T
180,36,P,31103,31060,31131,71,0.172831,819,130.3478983922623,0.038665939843598895,-0.0016282785420065583,0.31090198696508536,-0.06938999792070594,T→P
181,36,Q,31199,31188,31209,21,-0.255214,819,130.3478983922623,-0.017262583413285394,-0.015363333160734714,-0.055928523256884285,-0.013735054618728156,P→Q
182,36,R,31227,31209,31248,39,1.7085890000000001,819,130.3478983922623,0.1742083422786072,0.24567104683587823,0.1914709256918926,0.26103437999661294,Q→R
183,36,S,31252,31248,31260,12,-0.14038799999999999,819,130.3478983922623,-0.003269818353063855,-0.007379295989756736,-0.17747816063167107,-0.253050342825635,R→S
184,36,T,31503,31353,31551,198,0.386243,819,130.3478983922623,-0.26543766553735443,0.10154068988714456,-0.2621678471842906,0.1089199858769013,S→T
185,37,P,31922,31893,31950,57,0.1693345,841,133.84930714028397,0.03234565056548411,-0.00014461332276193275,0.29778331610283854,-0.10168530320990649,T→P
186,37,Q,32019,32005,32032,27,-0.2221235,841,133.84930714028397,-0.019603667907392455,-0.01775471742738893,-0.051949318472876566,-0.017610104104626996,P→Q
187,37,R,32051,32032,32069,37,1.6366934999999998,841,133.84930714028397,0.16596492623592235,0.23526392651720365,0.1855685941433148,0.25301864394459256,Q→R
188,37,S,32074,32069,32082,13,-0.1832815,841,133.84930714028397,-0.004847618726442903,-0.010512108906322485,-0.17081254496236525,-0.24577603542352613,R→S
189,37,T,32321,32171,32375,204,0.3903295,841,133.84930714028397,-0.24028376362060846,0.09902106444783572,-0.23543614489416556,0.1095331733541582,S→T
190,38,P,32763,32735,32808,73,0.1383345,836,133.0535324248245,0.03584128292102508,0.001362319690261463,0.27612504654163356,-0.09765874475757426,T→P
191,38,Q,32869,32846,32877,31,-0.2897095,836,133.0535324248245,-0.01958469969329397,-0.019073704814952564,-0.05542598261431905,-0.020436024505214027,P→Q
192,38,R,32898,32877,32914,37,1.6938105,836,133.0535324248245,0.15975923762922284,0.24544249210227526,0.1793439373225168,0.26451619691722783,Q→R
193,38,S,32918,32914,32934,20,-0.1070025,836,133.0535324248245,-0.003268625810226907,-0.008244986756894787,-0.16302786343944975,-0.25368747885917003,R→S
194,38,T,33160,33031,33227,196,0.3766795,836,133.0535324248245,-0.23192277754658217,0.07432018155350152,-0.22865415173635525,0.08256516831039631,S→T
195,39,P,33599,33570,33626,56,0.152522,780,124.14085561167836,0.0284850755999356,-0.00039203813007867243,0.26040785314651776,-0.07471221968358019,T→P
196,39,Q,33692,33682,33702,20,-0.291726,780,124.14085561167836,-0.019601138555158635,-0.01811331527863696,-0.04808621415509423,-0.017721277148558288,P→Q
197,39,R,33722,33702,33743,41,1.6622,780,124.14085561167836,0.1707882594719191,0.2535424404696799,0.19038939802707774,0.27165575574831685,Q→R
198,39,S,33748,33743,33755,12,-0.12411100000000003,780,124.14085561167836,-0.0025250622383932064,-0.006612508551435847,-0.17331332171031233,-0.26015494902111574,R→S
199,39,T,33979,33849,34047,198,0.360718,780,124.14085561167836,-0.2572384690509768,0.055485052938023964,-0.2547134068125836,0.06209756148945981,S→T
200,40,P,34379,34349,34426,77,0.17227599999999998,820,130.5070533353542,0.04251041540921376,0.002026350300594599,0.29974888446019055,-0.05345870263742936,T→P
201,40,Q,34483,34466,34492,26,-0.20590200000000003,820,130.5070533353542,-0.015359435914476437,-0.015234762481745672,-0.0578698513236902,-0.01726111278234027,P→Q
202,40,R,34512,34492,34530,38,1.707443,820,130.5070533353542,0.16708905084458264,0.2622661512274132,0.1824484867590591,0.27750091370915886,Q→R
203,40,S,34534,34530,34539,9,-0.08582300000000001,820,130.5070533353542,-0.0012916651596605556,-0.0031869717354129456,-0.1683807160042432,-0.26545312296282614,R→S
204,40,T,34778,34628,35028,400,0.474989,820,130.5070533353542,-0.40064369070340267,0.028200747766351494,-0.3993520255437421,0.03138771950176444,S→T
205,41,P,35199,35168,35244,76,0.1728495,859,136.7140961159381,0.039523581469361996,0.0005368970667618823,0.44016727217276463,-0.027663850699589612,T→P
206,41,Q,35300,35283,35309,26,-0.2053295,859,136.7140961159381,-0.01819263844776337,-0.015991841404257915,-0.05771621991712536,-0.016528738471019797,P→Q
207,41,R,35329,35309,35346,37,1.6720585,859,136.7140961159381,0.1704521444107088,0.2316208951537379,0.18864478285847217,0.24761273655799582,Q→R
208,41,S,35351,35346,35358,12,-0.1478795,859,136.7140961159381,-0.0035839732564019234,-0.007269790302599535,-0.17403611766711072,-0.23889068545633743,R→S
209,41,T,35597,35447,35664,217,0.4170015,859,136.7140961159381,-0.254322509711938,0.12521865519561423,-0.25073853645553607,0.13248844549821376,S→T
210,42,P,36058,36028,36083,55,0.14904399999999998,797,126.84648964424059,0.027618023855972472,-0.0005325624343621783,0.28194053356791043,-0.1257512176299764,T→P
211,42,Q,36152,36141,36163,22,-0.28536300000000003,797,126.84648964424059,-0.020626936415096664,-0.01870336292477817,-0.048244960271069136,-0.01817080049041599,P→Q
212,42,R,36176,36163,36201,38,1.6448139999999998,797,126.84648964424059,0.16765973916460722,0.24330766352830874,0.18828667557970388,0.2620110264530869,Q→R
213,42,S,36206,36201,36214,13,-0.14094300000000004,797,126.84648964424059,-0.0036674785252842714,-0.00878695967641483,-0.17132721768989148,-0.2520946232047236,R→S
214,42,T,36455,36306,36504,198,0.35320799999999997,797,126.84648964424059,-0.2321400608247327,0.06530650754530586,-0.22847258229944845,0.0740934672217207,S→T
215,43,P,36855,36811,36864,53,0.1319535,840,133.69015219719208,0.027988483795707415,-0.003104682713854085,0.2601285446204401,-0.06841119025915994,T→P
216,43,Q,36945,36936,36954,18,-0.3111465,840,133.69015219719208,-0.019699161956044268,-0.015760866284741756,-0.04768764575175168,-0.012656183570887672,P→Q
217,43,R,36975,36954,36996,42,1.7315245,840,133.69015219719208,0.18544795890436602,0.2261423034187336,0.2051471208604103,0.24190316970347536,Q→R
218,43,S,37003,36996,37010,14,-0.10409750000000001,840,133.69015219719208,-0.0025280401502843428,-0.004946075397379686,-0.18797599905465037,-0.23108837881611327,R→S
219,43,T,37235,37085,37322,237,0.39815449999999997,840,133.69015219719208,-0.2701799068849057,0.1435121826957483,-0.2676518667346213,0.148458258093128,S→T
220,44,P,37695,37667,37740,73,0.16791050000000002,861,137.0324060021219,0.038770210708980665,0.00125631620780788,0.30895011759388635,-0.14225586648794042,T→P
221,44,Q,37799,37779,37808,29,-0.2374945,861,137.0324060021219,-0.01872126727166669,-0.017139671440768937,-0.057491477980647354,-0.018395987648576816,P→Q
222,44,R,37828,37808,37844,36,1.6717815,861,137.0324060021219,0.16463635268089377,0.23265677669334836,0.18335761995256045,0.2497964481341173,Q→R
223,44,S,37849,37844,37857,13,-0.1394995,861,137.0324060021219,-0.003155761851739213,-0.0066401589007606615,-0.16779211453263299,-0.23929693559410903,R→S
224,44,T,38093,37943,38161,218,0.4172795,861,137.0324060021219,-0.26346301489807367,0.12497495839677926,-0.26030725304633445,0.1316151172975399,S→T
225,45,P,38556,38528,38598,70,0.13628200000000001,858,136.5549411728462,0.032303208565407755,0.0006366813276898847,0.2957662234634814,-0.12433827706908937,T→P
226,45,Q,38661,38637,38670,33,-0.308558,858,136.5549411728462,-0.02168452696883031,-0.019993925186318835,-0.053987735534238065,-0.02063060651400872,P→Q
227,45,R,38691,38670,38707,37,1.7051120000000002,858,136.5549411728462,0.1601499217312544,0.23234830316344893,0.1818344487000847,0.25234222834976777,Q→R
228,45,S,38713,38707,38727,20,-0.10439399999999999,858,136.5549411728462,-0.0040241930782455035,-0.009382605224760894,-0.1641741148094999,-0.24173090838820982,R→S
229,45,T,38952,38824,39017,193,0.36304800000000004,858,136.5549411728462,-0.20760104389163167,0.08562245875724349,-0.20357685081338617,0.09500506398200438,S→T
230,46,P,39414,39368,39440,72,0.1812465,837,133.2126873679164,0.041600795251130855,-0.001929578466427134,0.24920183914276253,-0.08755203722367062,T→P
231,46,Q,39508,39497,39520,23,-0.24213649999999998,837,133.2126873679164,-0.01769320339618024,-0.01505476622120611,-0.059293998647311094,-0.013125187754778975,P→Q
232,46,R,39533,39520,39559,39,1.6740935,837,133.2126873679164,0.17425052045523837,0.23198520279395166,0.1919437238514186,0.24703996901515776,Q→R
233,46,S,39563,39559,39569,10,-0.0832155,837,133.2126873679164,-0.0020624048123387795,-0.004278257743177273,-0.17631292526757714,-0.23626346053712893,R→S
234,46,T,39810,39660,40060,400,0.4352765,837,133.2126873679164,-0.34533775438552106,0.04956913393051315,-0.3432753495731823,0.05384739167369042,S→T
235,47,P,40251,40222,40298,76,0.173977,861,137.0324060021219,0.050362415791262834,0.0026925974939767798,0.3957001701767839,-0.046876536436536366,T→P
236,47,Q,40358,40338,40365,27,-0.230244,861,137.0324060021219,-0.012718581330835714,-0.012206384904506488,-0.06308099712209855,-0.014898982398483267,P→Q
237,47,R,40386,40365,40404,39,1.735261,861,137.0324060021219,0.1685535345566919,0.2453305177074025,0.18127211588752762,0.257536902611909,Q→R
238,47,S,40407,40404,40414,10,-0.06381300000000001,861,137.0324060021219,-0.0009953459872434239,-0.002179300503095163,-0.16954888054393533,-0.24750981821049767,R→S
239,47,T,40650,40500,40758,258,0.461671,861,137.0324060021219,-0.33355410153591175,0.14948011659150576,-0.3325587555486683,0.15165941709460093,S→T
240,48,P,41112,41084,41155,71,0.140074,856,136.2366312866624,0.03780558763088583,0.0013493809204613958,0.37135968916679757,-0.14813073567104437,T→P
241,48,Q,41217,41194,41226,32,-0.301288,856,136.2366312866624,-0.01968908260124553,-0.018466192111935946,-0.05749467023213136,-0.01981557303239734,P→Q
242,48,R,41247,41226,41264,38,1.7367599999999999,856,136.2366312866624,0.1624975035282081,0.23810712127334377,0.18218658612945363,0.2565733133852797,Q→R
243,48,S,41269,41264,41281,17,-0.07393,856,136.2366312866624,-0.0024672493290785334,-0.005744687247420468,-0.16496475285728665,-0.24385180852076424,R→S
244,48,T,41508,41358,41576,218,0.426583,856,136.2366312866624,-0.27306822790814245,0.11996081646003354,-0.2706009785790639,0.125705503707454,S→T
245,49,P,41968,41925,41995,70,0.169335,799,127.16479953042438,0.03462692739652983,-0.001710208250095656,0.3076951553046723,-0.1216710247101292,T→P
246,49,Q,42061,42051,42071,20,-0.29115199999999997,799,127.16479953042438,-0.01974832704403568,-0.017690297002592992,-0.05437525444056551,-0.015980088752497335,P→Q
247,49,R,42086,42071,42112,41,1.645942,799,127.16479953042438,0.16840359269746003,0.24068656686964848,0.1881519197414957,0.25837686387224146,Q→R
248,49,S,42119,42112,42125,13,-0.12065200000000001,799,127.16479953042438,-0.003137492319581359,-0.007570571654429751,-0.17154108501704138,-0.24825713852407824,R→S
249,49,T,42367,42217,42415,198,0.35552,799,127.16479953042438,-0.24758960985693745,0.0747714427223603,-0.2444521175373561,0.08234201437679005,S→T
250,50,P,42767,42737,42813,76,0.173719,841,133.84930714028397,0.043258308302876775,0.0014034017391262377,0.29084791815981426,-0.07336804098323407,T→P
251,50,Q,42868,42852,42878,26,-0.20908300000000002,841,133.84930714028397,-0.016642646502519287,-0.0153608830008625,-0.05990095480539606,-0.016764284739988738,P→Q
252,50,R,42898,42878,42915,37,1.669451,841,133.84930714028397,0.16888254826894813,0.24360437449405897,0.18552519477146742,0.2589652574949215,Q→R
253,50,S,42920,42915,42927,12,-0.11919099999999999,841,133.84930714028397,-0.0025942446311904943,-0.005733512625965373,-0.17147679290013862,-0.24933788712002436,R→S
254,50,T,43166,43016,43233,217,0.422533,841,133.84930714028397,-0.28424163729452323,0.12136892026624063,-0.2816473926633327,0.12710243289220602,S→T
255,51,P,43608,43577,43652,75,0.17834250000000001,836,133.0535324248245,0.04256737277003398,0.0010096818083864814,0.3268090100645572,-0.12035923845785415,T→P
256,51,Q,43710,43692,43718,26,-0.21489149999999996,836,133.0535324248245,-0.016535293347222847,-0.0153183386479256,-0.05910266611725683,-0.01632802045631208,P→Q
257,51,R,43738,43718,43755,37,1.6926454999999998,836,133.0535324248245,0.17061604757426158,0.24633652643699208,0.18715134092148442,0.2616548650849177,Q→R
258,51,S,43760,43755,43767,12,-0.1336925,836,133.0535324248245,-0.0026746861113935527,-0.00586452586349056,-0.17329073368565512,-0.2522010523004826,R→S
259,51,T,44004,43854,44072,218,0.4190185,836,133.0535324248245,-0.2870241017283843,0.12053433250959987,-0.28434941561699073,0.12639885837309042,S→T
260,52,P,44444,44417,44476,59,0.166431,798,127.00564458733248,0.03605860277464009,0.0007103230040711241,0.32308270450302434,-0.11982400950552875,T→P
261,52,Q,44549,44529,44558,29,-0.24359799999999998,798,127.00564458733248,-0.01963255789017375,-0.02034253295784933,-0.05569116066481384,-0.021052855961920455,P→Q
262,52,R,44570,44558,44595,37,1.5972410000000001,798,127.00564458733248,0.15342655984525227,0.2569649807604078,0.17305911773542604,0.2773075137182571,Q→R
263,52,S,44600,44595,44607,12,-0.06148200000000001,798,127.00564458733248,-0.0011517473899180259,-0.0032063097892949142,-0.1545783072351703,-0.2601712905497027,R→S
264,52,T,44843,44693,44911,218,0.398413,798,127.00564458733248,-0.3007851736801036,0.07231432458886826,-0.2996334262901856,0.07552063437816317,S→T
265,53,P,45242,45233,45271,38,0.15892099999999998,739,117.61550294491066,0.025483377754048676,0.0018152282477192328,0.3262685514341523,-0.07049909634114902,T→P
266,53,Q,45343,45328,45353,25,-0.233721,739,117.61550294491066,-0.020646365820520454,-0.022960098154475996,-0.04612974357456913,-0.02477532640219523,P→Q
267,53,R,45366,45353,45390,37,1.698749,739,117.61550294491066,0.1527572210402415,0.29212310935941527,0.17340358686076196,0.31508320751389124,Q→R
268,53,S,45393,45390,45402,12,-0.09048500000000001,739,117.61550294491066,-0.0016964375858113101,-0.006225017730653876,-0.15445365862605281,-0.29834812709006914,R→S
269,53,T,45642,45492,45709,217,0.369448,739,117.61550294491066,-0.2921738088983805,0.006828138563354344,-0.29047737131256923,0.01305315629400822,S→T
270,54,P,45981,45953,46008,55,0.165858,799,127.16479953042438,0.0333406905022985,-0.0007248446858863721,0.325514499400679,-0.007552983249240716,T→P
271,54,Q,46072,46062,46081,19,-0.32015499999999997,799,127.16479953042438,-0.020397448207848626,-0.017727891723994457,-0.053738138710147126,-0.017003047038108086,P→Q
272,54,R,46101,46081,46123,42,1.6923679999999999,799,127.16479953042438,0.18224622748725783,0.24962334943852368,0.20264367569510644,0.2673512411625181,Q→R
273,54,S,46130,46123,46136,13,-0.11832199999999998,799,127.16479953042438,-0.002453500394382921,-0.005740426427268115,-0.18469972788164074,-0.2553637758657918,R→S
274,54,T,46361,46211,46429,218,0.40945600000000004,799,127.16479953042438,-0.2883933760869501,0.1086170352670401,-0.2859398756925672,0.11435746169430822,S→T
275,55,P,46780,46734,46808,74,0.1823745,819,130.3478983922623,0.04510962789839351,-0.0024877098892074545,0.3335030039853436,-0.11110474515624755,T→P
276,55,Q,46872,46863,46880,17,-0.2752265,819,130.3478983922623,-0.016821458497193898,-0.014278752739459078,-0.061931086395587406,-0.011791042850251624,P→Q
277,55,R,46901,46880,46922,42,1.7657065,819,130.3478983922623,0.1849799411701285,0.24430102247022173,0.2018013996673224,0.2585797752096808,Q→R
278,55,S,46928,46922,46935,13,-0.12385150000000002,819,130.3478983922623,-0.0031538687081349584,-0.006690979794785857,-0.18813380987826347,-0.25099200226500756,R→S
279,55,T,47179,47029,47247,218,0.4109165,819,130.3478983922623,-0.2948345794394619,0.11927426899869642,-0.29168071073132695,0.12596524879348228,S→T
280,56,P,47599,47553,47627,74,0.174273,838,133.3718423110083,0.04189810520226685,-0.00227030693590974,0.33673268464172873,-0.12154457593460616,T→P
281,56,Q,47693,47683,47702,19,-0.26705199999999996,838,133.3718423110083,-0.0163964342385877,-0.013765163579281016,-0.05829453944085455,-0.011494856643371276,P→Q
282,56,R,47722,47702,47741,39,1.759343,838,133.3718423110083,0.18076039621418907,0.23609178029332836,0.19715683045277677,0.24985694387260937,Q→R
283,56,S,47747,47741,47754,13,-0.154556,838,133.3718423110083,-0.0038832588588956873,-0.00782043791949473,-0.18464365507308475,-0.2439122182128231,R→S
284,56,T,47998,47848,48066,218,0.42134800000000006,838,133.3718423110083,-0.290623392158816,0.13225898061567185,-0.2867401332999203,0.1400794185351666,S→T
285,57,P,48437,48407,48465,58,0.1653025,820,130.5070533353542,0.0331921262826591,-0.00021208594802351276,0.3238155184414751,-0.13247106656369537,T→P
286,57,Q,48533,48522,48544,22,-0.25808050000000005,820,130.5070533353542,-0.01796796409189655,-0.016187055746579485,-0.05116009037455565,-0.015974969798555973,P→Q
287,57,R,48563,48544,48582,38,1.7201865,820,130.5070533353542,0.17270204262270977,0.24703631744678392,0.19067000671460632,0.2632233731933634,Q→R
288,57,S,48586,48582,48594,12,-0.1600865,820,130.5070533353542,-0.003554647778909444,-0.00802339711535698,-0.1762566904016192,-0.2550597145621409,R→S
289,57,T,48837,48687,48886,199,0.40309249999999996,820,130.5070533353542,-0.2716677300554939,0.09958719694059298,-0.2681130822765844,0.10761059405594996,S→T
290,58,P,49257,49227,49283,56,0.1548705,719,114.43240408307275,0.030594319783303504,-0.0005336943864722556,0.3022620498387974,-0.10012089132706524,T→P
291,58,Q,49352,49340,49362,22,-0.2766515,719,114.43240408307275,-0.020397299838976066,-0.021819207335275023,-0.05099161962227957,-0.02128551294880277,P→Q
292,58,R,49376,49362,49401,39,1.6447945,719,114.43240408307275,0.15523659296300082,0.2876695307125993,0.1756338928019769,0.30948873804787436,Q→R
293,58,S,49406,49401,49414,13,-0.11599150000000001,719,114.43240408307275,-0.002377702606993767,-0.008977538534725108,-0.1576142955699946,-0.2966470692473244,R→S
294,58,T,49636,49507,49704,197,0.3537805,719,114.43240408307275,-0.2725113719780623,-0.009162915624116568,-0.27013366937106853,-0.00018537708939145997,S→T
295,59,P,49976,49951,50002,51,0.16066,718,114.27324913998086,0.03562958728503627,0.0003456863051999639,0.3081409592630986,0.009508601929316532,T→P
296,59,Q,50072,50057,50083,26,-0.28129400000000004,718,114.27324913998086,-0.022204899651319776,-0.02430726798546879,-0.057834486936356046,-0.024652954290668754,P→Q
297,59,R,50097,50083,50122,39,1.662792,718,114.27324913998086,0.15469768462744313,0.2983824522129732,0.1769025842787629,0.322689720198442,Q→R
298,59,S,50128,50122,50133,11,-0.124111,718,114.27324913998086,-0.002223508311533433,-0.008743250836567138,-0.15692119293897655,-0.30712570304954034,R→S
299,59,T,50355,50226,50421,195,0.34218400000000004,718,114.27324913998086,-0.2572150603838117,-0.006646429246594218,-0.25499155207227825,0.00209682158997292,S→T
300,60,P,50694,50665,50721,56,0.159772,759,120.79860180674856,0.0359783232045698,-0.0005122357754733965,0.2931933835883815,0.006134193471120822,T→P
301,60,Q,50787,50776,50795,19,-0.325648,759,120.79860180674856,-0.021819776626502363,-0.02069153173479525,-0.05779809983107216,-0.020179295959321854,P→Q
302,60,R,50813,50795,50837,42,1.708293,759,120.79860180674856,0.17723742354516617,0.27530854380797315,0.19905720017166853,0.2960000755427684,Q→R
303,60,S,50842,50837,50849,12,-0.127885,759,120.79860180674856,-0.002628590690434874,-0.007369920994846113,-0.17986601423560103,-0.2826784648028193,R→S
304,60,T,51073,50923,51142,219,0.382506,759,120.79860180674856,-0.28599998202299437,0.05900170703943001,-0.2833713913325595,0.06637162803427613,S→T
305,61,P,51453,51445,51481,36,0.1490625,801,127.48310941660817,0.020174533418314926,0.00128413464662187,0.3061745154413093,-0.05771757239280814,T→P
306,61,Q,51554,51534,51564,30,-0.2540115,801,127.48310941660817,-0.023567745267376677,-0.02315069536649392,-0.0437422786856916,-0.02443483001311579,P→Q
307,61,R,51577,51564,51600,36,1.6303314999999998,801,127.48310941660817,0.1595033088271711,0.2548100388775436,0.18307105409454777,0.27796073424403756,Q→R
308,61,S,51606,51600,51615,15,-0.1704815,801,127.48310941660817,-0.004175054017105795,-0.010847101012770196,-0.1636783628442769,-0.2656571398903138,R→S
309,61,T,51852,51723,51898,175,0.3149385,801,127.48310941660817,-0.19220371553095958,0.05047288577042102,-0.18802866151385378,0.06131998678319121,S→T
310,62,P,52254,52227,52298,71,0.1395,896,142.60282901033824,0.03271673858279095,0.0014203406104685847,0.22492045411375053,-0.049052545159952436,T→P
311,62,Q,52360,52336,52369,33,-0.298976,896,142.60282901033824,-0.018788734292589284,-0.01661702592950256,-0.05150547287538024,-0.018037366539971143,P→Q
312,62,R,52389,52369,52406,37,1.70833,896,142.60282901033824,0.16190910448811702,0.21875219629339063,0.1806978387807063,0.2353692222228932,Q→R
313,62,S,52411,52406,52424,18,-0.09888200000000003,896,142.60282901033824,-0.003703417897989787,-0.007537183136276753,-0.1656125223861068,-0.22628937942966737,R→S
314,62,T,52651,52502,52716,214,0.37495999999999996,896,142.60282901033824,-0.19759738765556853,0.11861188760316914,-0.19389396975757875,0.1261490707394459,S→T
315,63,P,53150,53120,53179,59,0.18849649999999998,898,142.92113889652202,0.036250073804909945,7.754797130770513e-05,0.23384746146047847,-0.11853433963186144,T→P
316,63,Q,53252,53236,53261,25,-0.19023650000000003,898,142.92113889652202,-0.015818719067838074,-0.013339567099668728,-0.052068792872748015,-0.013417115070976433,P→Q
317,63,R,53281,53261,53298,37,1.6662504999999999,898,142.92113889652202,0.16945927124311758,0.21597847524077896,0.18527799031095565,0.22931804234044767,Q→R
318,63,S,53303,53298,53310,12,-0.16471050000000004,898,142.92113889652202,-0.004198004170946381,-0.007684152187003202,-0.17365727541406395,-0.22366262742778215,R→S
319,63,T,53550,53400,53638,238,0.4401965,898,142.92113889652202,-0.2729326739606647,0.16392919765209457,-0.2687346697897183,0.17161334983909776,S→T
320,64,P,54048,54003,54077,74,0.198652,839,133.53099725410019,0.049441669852605626,-0.002672841264091515,0.3223743438132703,-0.16660203891618608,T→P
321,64,Q,54142,54133,54151,18,-0.23516299999999998,839,133.53099725410019,-0.014134548476126801,-0.011914901390613962,-0.06357621832873242,-0.009242060126522447,P→Q
322,64,R,54171,54151,54192,41,1.75472,839,133.53099725410019,0.1825239352213428,0.23846397954877546,0.1966584836974696,0.2503788809393894,Q→R
323,64,S,54196,54192,54203,11,-0.11452999999999999,839,133.53099725410019,-0.002486472120079428,-0.005060674654137774,-0.18501040734142224,-0.24352465420291325,R→S
324,64,T,54448,54298,54516,218,0.42482600000000004,839,133.53099725410019,-0.2992338279471341,0.13484694550492207,-0.2967473558270547,0.13990762015905986,S→T
325,65,P,54887,54843,54915,72,0.18095100000000003,763,121.43522157911615,0.0412132086687114,-0.0014478631589205666,0.3404470366158455,-0.13629480866384264,T→P
326,65,Q,54984,54972,54995,23,-0.25922799999999996,763,121.43522157911615,-0.019605248087944564,-0.01987089933016621,-0.06081845675665597,-0.018423036171245646,P→Q
327,65,R,55008,54995,55034,39,1.651787,763,121.43522157911615,0.15844785153374533,0.2665493700495787,0.1780530996216899,0.2864202693797449,Q→R
328,65,S,55039,55034,55045,11,-0.107298,763,121.43522157911615,-0.002262000786699317,-0.006844948494310212,-0.16070985232044466,-0.2733943185438889,R→S
329,65,T,55286,55136,55335,199,0.34915700000000005,763,121.43522157911615,-0.2610966258303351,0.03768535020638414,-0.2588346250436358,0.04453029870069435,S→T
330,66,P,55650,55637,55693,56,0.15080149999999998,695,110.61268544886727,0.03302135141031441,0.003035925046273064,0.29411797724064953,-0.034649425160111075,T→P
331,66,Q,55753,55731,55761,30,-0.2806835000000001,695,110.61268544886727,-0.020993374666705734,-0.026369673489426378,-0.054014726077020146,-0.02940559853569944,P→Q
332,66,R,55775,55761,55800,39,1.6250775,695,110.61268544886727,0.14012792414057698,0.3272716725237965,0.1611212988072827,0.3536413460132229,Q→R
333,66,S,55814,55806,55817,11,-0.024359500000000006,695,110.61268544886727,-0.0001623302631152576,-0.0014211061242059926,-0.14029025440369225,-0.3286927786480025,R→S
334,66,T,56045,55895,56113,218,0.3706125,695,110.61268544886727,-0.31181859541859863,-0.04986241189458499,-0.3116562651554834,-0.048441305770379,S→T
335,67,P,56345,56316,56373,57,0.17168450000000002,798,127.00564458733248,0.04479011233159533,-2.801461548080111e-05,0.35660870775019393,0.049834397279104194,T→P
336,67,Q,56441,56430,56451,21,-0.2778165,798,127.00564458733248,-0.018620728382017754,-0.017204108304663922,-0.06341084071361308,-0.01717609368918312,P→Q
337,67,R,56465,56451,56491,40,1.7358535000000002,798,127.00564458733248,0.1763599615287662,0.26377290949816035,0.19498068991078396,0.28097701780282425,Q→R
338,67,S,56494,56491,56502,11,-0.11075650000000001,798,127.00564458733248,-0.0024100952915137998,-0.00596871236935349,-0.17877005682028,-0.2697416218675138,R→S
339,67,T,56724,56574,56813,239,0.39845050000000004,798,127.00564458733248,-0.3130681815880313,0.10703999394044311,-0.3106580862965175,0.1130087063097966,S→T
340,68,P,57143,57100,57171,71,0.151652,780,124.14085561167836,0.037337814101106565,-0.002081573857960283,0.3504059956891379,-0.1091215677984034,T→P
341,68,Q,57235,57225,57244,19,-0.309427,780,124.14085561167836,-0.019768805644277194,-0.01797469714223234,-0.05710661974538376,-0.015893123284272056,P→Q
342,68,R,57264,57244,57284,40,1.7466000000000002,780,124.14085561167836,0.17882405889646433,0.259448525416801,0.19859286454074151,0.27742322255903334,Q→R
343,68,S,57291,57284,57299,15,-0.137743,780,124.14085561167836,-0.00346910361984535,-0.008605913269559713,-0.18229316251630967,-0.26805443868636075,R→S
344,68,T,57523,57373,57610,237,0.407421,780,124.14085561167836,-0.3008158073037476,0.0762082350448142,-0.2973467036839022,0.08481414831437391,S→T
345,69,P,57923,57897,57969,72,0.1525405,818,130.1887434491704,0.03695768410929126,0.0021008477292227775,0.3377734914130388,-0.07410738731559141,T→P
346,69,Q,58030,58009,58038,29,-0.2783895,818,130.1887434491704,-0.0178594242272399,-0.018395305146199314,-0.05481710833653116,-0.020496152875422093,P→Q
347,69,R,58058,58038,58075,37,1.6999145,818,130.1887434491704,0.1569769671905503,0.2587608732948482,0.1748363914177902,0.2771561784410475,Q→R
348,69,S,58080,58075,58092,17,-0.1014895,818,130.1887434491704,-0.002031164574190751,-0.005424353837418434,-0.15900813176474105,-0.26418522713226666,R→S
349,69,T,58322,58172,58390,218,0.41818649999999996,818,130.1887434491704,-0.2987266696008253,0.09307283689603672,-0.29669550502663455,0.09849719073345516,S→T
350,70,P,58741,58712,58770,58,0.1664495,739,117.61550294491066,0.037859832021782905,-2.0412681387009174e-05,0.33658650162260817,-0.09309324957742374,T→P
351,70,Q,58838,58826,58851,25,-0.22330750000000002,739,117.61550294491066,-0.01992556803137194,-0.02180029071186743,-0.05778540005315484,-0.02177987803048042,P→Q
352,70,R,58864,58851,58889,38,1.6378405,739,117.61550294491066,0.15201904711716385,0.2869507411043016,0.1719446151485358,0.30875103181616903,Q→R
353,70,S,58893,58889,58900,11,-0.1026735,739,117.61550294491066,-0.0018729279878193434,-0.006724856189408666,-0.1538919751049832,-0.29367559729371023,R→S
354,70,T,59140,58990,59208,218,0.38799950000000005,739,117.61550294491066,-0.3110797368616917,0.00433588366996494,-0.30920680887387236,0.011060739859373607,S→T
355,71,P,59480,59437,59507,70,0.1638595,758,120.63944686365667,0.03892889115955077,-0.0017473026424280598,0.3500086280212425,-0.0060831863123929995,T→P
356,71,Q,59575,59564,59586,22,-0.2746165,758,120.63944686365667,-0.019938277702649585,-0.019909957631515415,-0.05886716886220035,-0.018162654989087354,P→Q
357,71,R,59600,59586,59625,39,1.6863015,758,120.63944686365667,0.1656430630139542,0.27648057235336004,0.1855813407166038,0.2963905299848755,Q→R
358,71,S,59629,59625,59638,13,-0.15106050000000001,758,120.63944686365667,-0.003070503988866313,-0.009165326393960232,-0.16871356700282053,-0.28564589874732027,R→S
359,71,T,59859,59709,59927,218,0.36976250000000005,758,120.63944686365667,-0.27864867348904343,0.05219623588544336,-0.2755781695001771,0.06136156227940359,S→T
360,72,P,60238,60210,60267,57,0.1728125,740,117.77465788800255,0.03863453700618785,9.076035256667664e-05,0.3172832104952313,-0.05210547553287668,T→P
361,72,Q,60336,60324,60348,24,-0.2116915,740,117.77465788800255,-0.018546405569021467,-0.020424159718085578,-0.05718094257520932,-0.020514920070652254,P→Q
362,72,R,60367,60348,60385,37,1.6645124999999998,740,117.77465788800255,0.15538976096672272,0.29557594639027573,0.17393616653574417,0.3160001061083613,Q→R
363,72,S,60390,60385,60397,12,-0.1624175,740,117.77465788800255,-0.00302861243636522,-0.010640269260676521,-0.15841837340308793,-0.30621621565095225,R→S
364,72,T,60637,60490,60687,197,0.3804535,740,117.77465788800255,-0.2876865311561077,0.005770583122915297,-0.2846579187197425,0.016410852383591818,S→T
365,73,P,60978,60968,61006,38,0.16530250000000002,741,117.93381283109444,0.02874940175247173,0.0018880428413447258,0.3164359329085794,-0.003882540281570571,T→P
366,73,Q,61079,61062,61089,27,-0.2122465,741,117.93381283109444,-0.020404421860907993,-0.022626953748326968,-0.04915382361337972,-0.024514996589671694,P→Q
367,73,R,61108,61089,61125,36,1.6140915,741,117.93381283109444,0.1495262419998977,0.2861208098609425,0.1699306638608057,0.3087477636092695,Q→R
368,73,S,61130,61125,61138,13,-0.1606415,741,117.93381283109444,-0.0029084544992836873,-0.010248306640995661,-0.15243469649918137,-0.2963691165019382,R→S
369,73,T,61376,61226,61425,199,0.3630665,741,117.93381283109444,-0.27548440228893417,0.01340655468690117,-0.2725759477896505,0.023654861327896834,S→T
370,74,P,61719,61692,61763,71,0.147306,855,136.0774763435705,0.032650299175214115,0.0011615943161447572,0.3081347014641483,-0.012244960370756414,T→P
371,74,Q,61825,61800,61833,33,-0.29868,855,136.0774763435705,-0.021517424290845272,-0.02003536419923687,-0.054167723466059386,-0.021196958515381628,P→Q
372,74,R,61854,61833,61870,37,1.671486,855,136.0774763435705,0.15735281282632177,0.2316288195716166,0.17887023711716704,0.2516641837708535,Q→R
373,74,S,61877,61870,61890,20,-0.09396199999999999,855,136.0774763435705,-0.0034127966157092337,-0.008138900063336275,-0.160765609442031,-0.23976771963495289,R→S
374,74,T,62116,61967,62182,215,0.387427,855,136.0774763435705,-0.23953988189682832,0.11034461240888391,-0.2361270852811191,0.11848351247222018,S→T
375,75,P,62574,62530,62602,72,0.14934,779,123.98170066858647,0.04154118126572179,-0.0030117725078058774,0.2810810631625501,-0.11335638491668978,T→P
376,75,Q,62664,62655,62674,19,-0.31,779,123.98170066858647,-0.01944147424793859,-0.017430805385020412,-0.060982655513660375,-0.014419032877214535,P→Q
377,75,R,62694,62674,62714,40,1.6549500000000001,779,123.98170066858647,0.1743794799506522,0.24522841347712687,0.1938209541985908,0.26265921886214727,Q→R
378,75,S,62722,62714,62729,15,-0.11452999999999999,779,123.98170066858647,-0.002670372621002104,-0.006579297650233752,-0.17704985257165431,-0.2518077111273606,R→S
379,75,T,62954,62805,63021,216,0.355243,779,123.98170066858647,-0.24504170479779558,0.06752188833420199,-0.24237133217679346,0.07410118598443574,S→T
380,76,P,63353,63323,63380,57,0.14993249999999997,779,123.98170066858647,0.03102796433787494,-0.0004359987247017566,0.27606966913567055,-0.06795788705890374,T→P
381,76,Q,63448,63437,63457,20,-0.28040550000000003,779,123.98170066858647,-0.018628557230724947,-0.017601102135638615,-0.049656521568599885,-0.01716510341093686,P→Q
382,76,R,63472,63457,63499,42,1.7065915,779,123.98170066858647,0.17274499516557584,0.26626453554032453,0.1913735523963008,0.2838656376759631,Q→R
383,76,S,63503,63499,63510,11,-0.09947350000000002,779,123.98170066858647,-0.0019698092754942462,-0.005316379673505959,-0.1747148044410701,-0.2715809152138305,R→S
384,76,T,63733,63583,63821,238,0.36915149999999997,779,123.98170066858647,-0.29701347482470264,0.07832831792609149,-0.2950436655492084,0.08364469759959745,S→T
385,77,P,64132,64103,64161,58,0.1771775,843,134.16761702646778,0.037736428678746006,0.00020909072976126958,0.33474990350344863,-0.07811922719633022,T→P
386,77,Q,64233,64218,64243,25,-0.19689450000000003,843,134.16761702646778,-0.01635504572769673,-0.014990791308378357,-0.05409147440644274,-0.015199882038139627,P→Q
387,77,R,64263,64243,64280,37,1.6676935,843,134.16761702646778,0.16827189164238165,0.24152061424386814,0.18462693737007838,0.2565114055522465,Q→R
388,77,S,64285,64280,64292,12,-0.1528355,843,134.16761702646778,-0.0035310686041159335,-0.007709952826271163,-0.17180296024649758,-0.2492305670701393,R→S
389,77,T,64532,64382,64599,217,0.4045355,843,134.16761702646778,-0.27245893822251793,0.12016456077300997,-0.268927869618402,0.12787451359928112,S→T
390,78,P,64975,64946,65018,72,0.1525405,895,142.44367406724632,0.0388608864680651,0.0014755509291566184,0.31131982469058306,-0.11868900984385335,T→P
391,78,Q,65080,65057,65089,32,-0.28072050000000004,895,142.44367406724632,-0.017739344945002775,-0.015622670834367783,-0.05660023141306787,-0.0170982217635244,P→Q
392,78,R,65110,65089,65127,38,1.7410875,895,142.44367406724632,0.1634220758917249,0.2199859041809214,0.18116142083672765,0.23560857501528917,Q→R
393,78,S,65132,65127,65142,15,-0.0869885,895,142.44367406724632,-0.002643955197123202,-0.005394711388813408,-0.1660660310888481,-0.2253806155697348,R→S
394,78,T,65371,65221,65499,278,0.4546975,895,142.44367406724632,-0.29933102929293126,0.16197175882667736,-0.2966870740958081,0.16736647021549075,S→T
395,79,P,65870,65841,65898,57,0.169667,802,127.64226435970006,0.034004201902626374,-7.356791575023496e-05,0.33333523119555764,-0.16204532674242758,T→P
396,79,Q,65966,65954,65979,25,-0.23573700000000003,802,127.64226435970006,-0.019566724792221005,-0.018490174624501424,-0.05357092669484738,-0.018416606708751188,P→Q
397,79,R,65992,65979,66016,37,1.62308,802,127.64226435970006,0.1598428614069549,0.24292106402724295,0.1794095861991759,0.26141123865174437,Q→R
398,79,S,66021,66016,66029,13,-0.13656000000000001,802,127.64226435970006,-0.0035038235978359427,-0.008746186261490955,-0.16334668500479083,-0.2516672502887339,R→S
399,79,T,66269,66119,66317,198,0.355815,802,127.64226435970006,-0.23600095256791703,0.06636080611782606,-0.2324971289700811,0.07510699237931702,S→T
400,80,P,66672,66641,66717,76,0.178343,855,136.0774763435705,0.049549735078923594,0.001930117635745552,0.2855506876468406,-0.06443068848208051,T→P
401,80,Q,66776,66764,66784,20,-0.22299300000000002,855,136.0774763435705,-0.011687891337014098,-0.011031536192608271,-0.06123762641593769,-0.012961653828353823,P→Q
402,80,R,66804,66784,66823,39,1.7378879999999999,855,136.0774763435705,0.17380430522308046,0.2458807506932984,0.18549219656009455,0.25691228688590667,Q→R
403,80,S,66826,66823,66829,6,-0.03451399999999999,855,136.0774763435705,-0.00036559342112352634,-0.0007704118337816371,-0.17416989864420399,-0.24665116252708003,R→S
404,80,T,67068,66918,67318,400,0.462522,855,136.0774763435705,-0.3776547061448444,0.09709836209187743,-0.3772891127237209,0.09786877392565907,S→T
405,81,P,67527,67483,67554,71,0.1508015,839,133.53099725410019,0.03931166156014689,-0.003231592749289867,0.4169663677049913,-0.1003299548411673,T→P
406,81,Q,67617,67607,67626,19,-0.3009925,839,133.53099725410019,-0.018877055477733568,-0.015093068098479356,-0.058188717037880464,-0.01186147534918949,P→Q
407,81,R,67647,67626,67664,38,1.7289174999999999,839,133.53099725410019,0.18356581436517305,0.22296298184563773,0.20244286984290663,0.23805604994411708,Q→R
408,81,S,67674,67664,67681,17,-0.11077449999999998,839,133.53099725410019,-0.003885098307403527,-0.007375720966096564,-0.18745091267257658,-0.2303387028117343,R→S
409,81,T,67907,67759,67975,216,0.40309249999999996,839,133.53099725410019,-0.24864354895385746,0.12519717068931668,-0.24475845064645393,0.13257289165541325,S→T
410,82,P,68366,68322,68394,72,0.17342200000000002,838,133.3718423110083,0.036209925687723535,-0.0015092437432747503,0.284853474641581,-0.12670641443259142,T→P
411,82,Q,68461,68450,68471,21,-0.276041,838,133.3718423110083,-0.01901722720117754,-0.01625680760842245,-0.05522715288890108,-0.014747563865147698,P→Q
412,82,R,68490,68471,68509,38,1.697602,838,133.3718423110083,0.1727983546434312,0.2306165357093675,0.19181558184460876,0.24687334331778993,Q→R
413,82,S,68514,68509,68524,15,-0.18034,838,133.3718423110083,-0.004981406988874193,-0.010376027639373663,-0.1777797616323054,-0.24099256334874117,R→S
414,82,T,68765,68616,68814,198,0.381063,838,133.3718423110083,-0.23695106848042352,0.10167442534773975,-0.23196966149154932,0.11205045298711341,S→T
415,83,P,69204,69162,69232,70,0.16530199999999998,780,124.14085561167836,0.03771625236692103,-0.0022335991847130007,0.2746673208473446,-0.10390802453245275,T→P
416,83,Q,69298,69288,69308,20,-0.300993,780,124.14085561167836,-0.020528765331993427,-0.019317646442485792,-0.05824501769891445,-0.01708404725777279,P→Q
417,83,R,69325,69308,69349,41,1.654672,780,124.14085561167836,0.1670227013441777,0.25300013147576683,0.18755146667617115,0.2723177779182526,Q→R
418,83,S,69354,69349,69362,13,-0.12586800000000004,780,124.14085561167836,-0.002563100437236199,-0.006911282222977351,-0.16958580178141391,-0.2599114136987442,R→S
419,83,T,69604,69454,69672,218,0.363066,780,124.14085561167836,-0.28126580327010314,0.05784507237631942,-0.27870270283286697,0.06475635459929677,S→T
420,84,P,69984,69954,70013,59,0.1678735,821,130.66620827844608,0.03715620443276994,0.00016168422690981986,0.3184220077028731,-0.0576833881494096,T→P
421,84,Q,70085,70068,70095,27,-0.2061985,821,130.66620827844608,-0.018618751673363,-0.01769018921220688,-0.05577495610613294,-0.0178518734391167,P→Q
422,84,R,70114,70095,70132,37,1.6613125000000002,821,130.66620827844608,0.16604751779702984,0.25091410324436014,0.18466626947039283,0.26860429245656703,Q→R
423,84,S,70137,70132,70144,12,-0.15688649999999998,821,130.66620827844608,-0.003602715179724169,-0.008552163065505287,-0.169650232976754,-0.2594662663098654,R→S
424,84,T,70383,70233,70450,217,0.4097325,821,130.66620827844608,-0.2799015206668742,0.09238450504916688,-0.27629880548715,0.10093666811467217,S→T
425,85,P,70805,70775,70834,59,0.1644155,876,139.41973014850032,0.033975689676511496,-2.246390412188465e-05,0.31387721034338567,-0.09240696895328877,T→P
426,85,Q,70909,70888,70918,30,-0.26070650000000006,876,139.41973014850032,-0.019964358401206018,-0.017621892304630057,-0.05394004807771752,-0.017599428400508172,P→Q
427,85,R,70937,70918,70954,36,1.6676944999999999,876,139.41973014850032,0.16574481673037986,0.2246957252921829,0.18570917513158589,0.24231761759681297,Q→R
428,85,S,70959,70954,70974,20,-0.13252650000000002,876,139.41973014850032,-0.0033809850006502923,-0.006893005895562418,-0.16912580173103015,-0.2315887311877453,R→S
429,85,T,71202,71052,71270,218,0.3998745,876,139.41973014850032,-0.22824948186822613,0.11799097987026096,-0.22486849686757585,0.12488398576582338,S→T
430,86,P,71681,71637,71709,72,0.17427299999999998,859,136.7140961159381,0.03860698686718592,-0.0018844130179993897,0.2668564687354121,-0.11987539288826035,T→P
431,86,Q,71776,71766,71786,20,-0.268235,859,136.7140961159381,-0.017248011991433936,-0.01425466106596187,-0.05585499885861986,-0.01237024804796248,P→Q
432,86,R,71805,71786,71826,40,1.712362,859,136.7140961159381,0.17629593111796854,0.2241777049698555,0.19354394310940248,0.23843236603581738,Q→R
433,86,S,71830,71826,71838,12,-0.148194,859,136.7140961159381,-0.0036060695720615205,-0.0070171226243156285,-0.17990200069003007,-0.23119482759417115,R→S
434,86,T,72081,71931,72169,238,0.417871,859,136.7140961159381,-0.2878951875853645,0.13929579893642247,-0.284289118013303,0.1463129215607381,S→T
435,87,P,72540,72510,72568,58,0.17166549999999997,839,133.53099725410019,0.032595711849475524,2.3331598200324996e-05,0.32049089943484,-0.13927246733822213,T→P
436,87,Q,72637,72625,72649,24,-0.2551955,839,133.53099725410019,-0.01921206873791393,-0.017023729712533197,-0.051807780587389454,-0.01704706131073352,P→Q
437,87,R,72662,72649,72687,38,1.6465334999999999,839,133.53099725410019,0.16506695064647955,0.22850851585749413,0.18427901938439348,0.2455322455700273,Q→R
438,87,S,72691,72687,72699,12,-0.1136605,839,133.53099725410019,-0.003042366736680267,-0.006625765838889631,-0.16810931738315982,-0.23513428169638376,R→S
439,87,T,72939,72789,73007,218,0.36942949999999997,839,133.53099725410019,-0.24517758843732895,0.10108082606130192,-0.2421352217006487,0.10770659190019155,S→T
440,88,P,73379,73352,73407,55,0.1557405,879,139.897194977776,0.029528342158409774,0.0003572684387116469,0.2747059305957387,-0.10072355762259028,T→P
441,88,Q,73485,73462,73494,32,-0.25721150000000004,879,139.897194977776,-0.020404597082164647,-0.018266398140425095,-0.04993293924057442,-0.018623666579136743,P→Q
442,88,R,73513,73494,73530,36,1.6596104999999999,879,139.897194977776,0.16264142015741173,0.22563278517587493,0.18304601723957636,0.24389918331630003,Q→R
443,88,S,73535,73530,73544,14,-0.12670050000000002,879,139.897194977776,-0.003018020309444577,-0.006233171551861327,-0.1656594404668563,-0.23186595672773624,R→S
444,88,T,73779,73629,73847,218,0.4393275,879,139.897194977776,-0.27189165141770305,0.14621587668357602,-0.26887363110825846,0.15244904823543734,S→T
445,89,P,74258,74232,74305,73,0.1653215,898,142.92113889652202,0.03606720626269862,0.0013453244753196328,0.30795885768040165,-0.1448705522082564,T→P
446,89,Q,74365,74344,74373,29,-0.2441525,898,142.92113889652202,-0.017309177628018802,-0.015312052330398477,-0.053376383890717416,-0.016657376805718112,P→Q
447,89,R,74392,74373,74409,36,1.6720774999999999,898,142.92113889652202,0.16427919261586624,0.21910811420018417,0.18158837024388505,0.23442016653058265,Q→R
448,89,S,74414,74409,74423,14,-0.12063349999999999,898,142.92113889652202,-0.0027494200212599272,-0.005359652283236527,-0.16702861263712618,-0.2244677664834207,R→S
449,89,T,74657,74507,74725,218,0.4280445,898,142.92113889652202,-0.2480970837878624,0.14668788086165896,-0.24534766376660247,0.1520475331448955,S→T
450,90,P,75156,75114,75183,69,0.1638415,799,127.16479953042438,0.03254873149132477,-0.001378483338106286,0.2806458152791872,-0.14806636419976524,T→P
451,90,Q,75249,75239,75259,20,-0.3024535,799,127.16479953042438,-0.02045775149636934,-0.018232048351075336,-0.053006482987694115,-0.01685356501296905,P→Q
452,90,R,75276,75259,75300,41,1.6242085,799,127.16479953042438,0.1685089967815373,0.23838722523744996,0.18896674827790663,0.2566192735885253,Q→R
453,90,S,75305,75300,75313,13,-0.12440650000000003,799,127.16479953042438,-0.0027305827352721236,-0.006615648160584186,-0.17123957951680943,-0.24500287339803414,R→S
454,90,T,75556,75406,75623,217,0.3761065,799,127.16479953042438,-0.2705566271953715,0.07524659220805166,-0.2678260444600994,0.08186224036863585,S→T
455,91,P,75955,75926,76002,76,0.176326,839,133.53099725410019,0.04080104557606359,0.0018014632933974382,0.31135767277143506,-0.07344512891465423,T→P
456,91,Q,76058,76042,76067,25,-0.20240699999999998,839,133.53099725410019,-0.015283338720089582,-0.0144368691212488,-0.05608438429615317,-0.01623833241464624,P→Q
457,91,R,76081,76067,76106,39,1.689482,839,133.53099725410019,0.17009813464579063,0.250688324196479,0.1853814733658802,0.2651251933177278,Q→R
458,91,S,76110,76106,76114,8,-0.05510100000000001,839,133.53099725410019,-0.0008507437709485273,-0.0019547974177483362,-0.17094887841673914,-0.25264312161422736,R→S
459,91,T,76355,76205,76605,400,0.45643599999999995,839,133.53099725410019,-0.3914868455646484,0.042402085012191164,-0.3906361017936999,0.0443568824299395,S→T
460,92,P,76794,76766,76823,57,0.1667265,879,139.897194977776,0.030759632357751313,0.0001508190194371207,0.4222464779223997,-0.04225126599275404,T→P
461,92,Q,76896,76878,76905,27,-0.20849149999999997,879,139.897194977776,-0.018304450130503688,-0.0157212591931249,-0.049064082488255,-0.01587207821256202,P→Q
462,92,R,76925,76905,76942,37,1.6775895,879,139.897194977776,0.1706809647500975,0.22566445410796435,0.1889854148806012,0.24138571330108924,Q→R
463,92,S,76947,76942,76954,12,-0.1684655,879,139.897194977776,-0.004259372317114348,-0.008254812109886975,-0.17494033706721185,-0.2339192662178513,R→S
464,92,T,77193,77043,77260,217,0.41901849999999996,879,139.897194977776,-0.2454531591838809,0.1343462558381611,-0.24119378686676654,0.14260106794804805,S→T
465,93,P,77673,77629,77700,71,0.16502499999999998,858,136.5549411728462,0.03475898584120717,-0.0016819335062771281,0.28021214502508807,-0.13602818934443822,T→P
466,93,Q,77768,77756,77778,22,-0.27286,858,136.5549411728462,-0.018293133487113162,-0.015038276602149379,-0.05305211932832034,-0.01335634309587225,P→Q
467,93,R,77797,77778,77816,38,1.718762,858,136.5549411728462,0.17634822132302203,0.22422188869437334,0.1946413548101352,0.23926016529652272,Q→R
468,93,S,77821,77816,77830,14,-0.18585200000000002,858,136.5549411728462,-0.0050362407272992555,-0.009736937909005577,-0.18138446205032127,-0.2339588266033789,R→S
469,93,T,78072,77922,78126,204,0.412655,858,136.5549411728462,-0.2441822528692474,0.1270217720843446,-0.23914601214194817,0.13675870999335016,S→T
470,94,P,78531,78489,78559,70,0.154278,799,127.16479953042438,0.03696972025746704,-0.0020410190659983043,0.28115197312671447,-0.1290627911503429,T→P
471,94,Q,78624,78614,78633,19,-0.305062,799,127.16479953042438,-0.01998481250925003,-0.017821100141147586,-0.05695453276671707,-0.01578008107514928,P→Q
472,94,R,78651,78633,78675,42,1.648864,799,127.16479953042438,0.17122477816165652,0.24106173704612127,0.19120959067090654,0.25888283718726884,Q→R
473,94,S,78680,78675,78688,13,-0.130493,799,127.16479953042438,-0.003065345038787653,-0.007377209741240333,-0.17429012320044418,-0.24843894678736161,R→S
474,94,T,78931,78781,78980,199,0.375237,799,127.16479953042438,-0.262456801833645,0.07647131412962783,-0.25939145679485737,0.08384852387086816,S→T
475,95,P,79330,79285,79359,74,0.168761,839,133.53099725410019,0.04123320266276237,-0.0014890761221431714,0.3036900044964074,-0.07796039025177101,T→P
476,95,Q,79426,79415,79436,21,-0.24186,839,133.53099725410019,-0.016299361247902152,-0.014154886452885812,-0.057532563910664525,-0.012665810330742641,P→Q
477,95,R,79456,79436,79476,40,1.71325,839,133.53099725410019,0.1766425856504356,0.24120201737123634,0.19294194689833777,0.25535690382412213,Q→R
478,95,S,79480,79476,79487,11,-0.146751,839,133.53099725410019,-0.0034285613726236144,-0.007265676566753334,-0.18007114702305924,-0.24846769393798968,R→S
479,95,T,79729,79579,79798,219,0.442508,839,133.53099725410019,-0.3119565727074199,0.13587399024787153,-0.3085280113347963,0.14313966681462487,S→T
480,96,P,80169,80123,80197,74,0.187036,842,134.0084620833759,0.04541870320031549,-0.0020504844754413915,0.3573752759077354,-0.13792447472331293,T→P
481,96,Q,80264,80254,80274,20,-0.243302,842,134.0084620833759,-0.015431218961049584,-0.013131371548739565,-0.060849922161365075,-0.011080887073298174,P→Q
482,96,R,80294,80274,80314,40,1.737333,842,134.0084620833759,0.17903837783099905,0.23863942067627333,0.19446959679204862,0.2517707922250129,Q→R
483,96,S,80317,80314,80326,12,-0.158626,842,134.0084620833759,-0.0037253845823203863,-0.007652661446995499,-0.18276376241331943,-0.24629208212326884,R→S
484,96,T,80568,80418,80636,218,0.43584999999999996,842,134.0084620833759,-0.3008183950580007,0.1357020934545612,-0.29709301047568026,0.1433547549015567,S→T
485,97,P,81011,80982,81054,72,0.1473245,796,126.68733470114869,0.04029142276642395,0.0008359556320908295,0.3411098178244246,-0.13486613782247037,T→P
486,97,Q,81115,81093,81123,30,-0.28649149999999995,796,126.68733470114869,-0.019177686536458155,-0.019745238610339395,-0.05946910930288211,-0.020581194242430226,P→Q
487,97,R,81144,81123,81163,40,1.6204535,796,126.68733470114869,0.1569310350167204,0.26117149124539946,0.17610872155317855,0.28091672985573884,Q→R
488,97,S,81175,81163,81179,16,-0.0272455,796,126.68733470114869,-0.0008268189145236163,-0.0025345371696211,-0.157757853931244,-0.26370602841502055,R→S
489,97,T,81407,81257,81476,219,0.3984685,796,126.68733470114869,-0.3076648302473454,0.07699780952191684,-0.3068380113328218,0.07953234669153794,S→T
490,98,P,81807,81779,81854,75,0.1687615,842,134.0084620833759,0.040688272166196485,0.0016144058244221052,0.3483531024135419,-0.07538340369749474,T→P
491,98,Q,81911,81893,81919,26,-0.20009449999999998,842,134.0084620833759,-0.014764377430494632,-0.014026044582342148,-0.05545264959669112,-0.015640450406764254,P→Q
492,98,R,81939,81919,81958,39,1.7045195,842,134.0084620833759,0.1702052988930858,0.2519837352803668,0.18496967632358044,0.26600977986270896,Q→R
493,98,S,81962,81958,81968,10,-0.0881545,842,134.0084620833759,-0.0015460373265769605,-0.003505012186681341,-0.17175133621966276,-0.2554887474670482,R→S
494,98,T,82206,82056,82275,219,0.4431005,842,134.0084620833759,-0.3082982868647449,0.13154611923521692,-0.30675224953816793,0.13505113142189826,S→T
495,99,P,82649,82619,82691,72,0.14615899999999998,855,136.0774763435705,0.03426324858223584,0.0007574334448288607,0.34256153544698076,-0.13078868579038805,T→P
496,99,Q,82753,82730,82763,33,-0.295758,855,136.0774763435705,-0.0209283935802652,-0.019276458666455887,-0.05519164216250104,-0.020033892111284746,P→Q
497,99,R,82784,82763,82799,36,1.700488,855,136.0774763435705,0.16173063279152577,0.2340574440376949,0.182659026371791,0.2533339027041508,Q→R
498,99,S,82804,82799,82819,20,-0.111348,855,136.0774763435705,-0.003914669541076109,-0.008913342013031974,-0.16564530233260188,-0.2429707860507269,R→S
499,99,T,83045,82897,83111,214,0.380472,855,136.0774763435705,-0.22658753529462705,0.09850629885111052,-0.22267286575355094,0.10741964086414249,S→T
500,100,P,83504,83477,83532,55,0.16789199999999999,779,123.98170066858647,0.03187098024052947,0.00024139826586191227,0.25845851553515653,-0.09826490058524862,T→P
501,100,Q,83605,83586,83615,29,-0.23692100000000002,779,123.98170066858647,-0.022781288576599487,-0.023195662838775503,-0.05465226881712896,-0.023437061104637415,P→Q
502,100,R,83628,83615,83651,36,1.609134,779,123.98170066858647,0.15421684631971375,0.2599302516197631,0.17699813489631322,0.2831259144585386,Q→R
503,100,S,83657,83651,83666,15,-0.166154,779,123.98170066858647,-0.0036255341727093626,-0.010452296704868694,-0.1578423804924231,-0.27038254832463177,R→S
504,100,T,83904,83754,83952,198,0.365101,779,123.98170066858647,-0.23955881124660322,0.03745574567463181,-0.23593327707389386,0.0479080423795005,S→T
505,101,P,84283,84239,84310,71,0.1638235,798,127.00564458733248,0.038348274692719536,-0.0020203706782899707,0.2779070859393228,-0.03947611635292178,T→P
506,101,Q,84376,84366,84386,20,-0.29026450000000004,798,127.00564458733248,-0.019556353160814173,-0.01756398576646482,-0.05790462785353371,-0.01554361508817485,P→Q
507,101,R,84403,84386,84428,42,1.6966964999999998,798,127.00564458733248,0.17649119400018523,0.2529290475524288,0.1960475471609994,0.2704930333188936,Q→R
508,101,S,84431,84428,84439,11,-0.1139565,798,127.00564458733248,-0.0024859335984633367,-0.0060203656613749094,-0.17897712759864856,-0.2589494132138037,R→S
509,101,T,84663,84513,84750,237,0.3871115,798,127.00564458733248,-0.2918324532495642,0.09848209373570249,-0.28934651965110086,0.1045024593970774,S→T
510,102,P,85081,85039,85108,69,0.14122,800,127.32395447351627,0.031940220857490764,-0.002145077062260006,0.32377267410705496,-0.1006271707979625,T→P
511,102,Q,85173,85162,85182,20,-0.306504,800,127.32395447351627,-0.01998640569195616,-0.017577938264108074,-0.05192662654944692,-0.015432861201848067,P→Q
512,102,R,85202,85182,85220,38,1.737314,800,127.32395447351627,0.17757142578651583,0.2452556291145298,0.197557831478472,0.2628335673786379,Q→R
513,102,S,85229,85220,85237,17,-0.152836,800,127.32395447351627,-0.00466158083512044,-0.010542480630043071,-0.18223300662163627,-0.2557981097445729,R→S
514,102,T,85461,85313,85529,216,0.40164999999999995,800,127.32395447351627,-0.2809985026134784,0.09335721761288841,-0.276336921778358,0.10389969824293148,S→T
515,103,P,85881,85872,85909,37,0.1623805,819,130.3478983922623,0.021996535030623487,0.001272377471572967,0.3029950376441019,-0.09208484014131545,T→P
516,103,Q,85983,85961,85993,32,-0.2435795,819,130.3478983922623,-0.022499127029111755,-0.021672911737101404,-0.04449566205973524,-0.02294528920867437,P→Q
517,103,R,86013,85993,86029,36,1.6697285,819,130.3478983922623,0.16178763728010953,0.25062052767907733,0.18428676430922128,0.27229343941617873,Q→R
518,103,S,86034,86029,86043,14,-0.1629715,819,130.3478983922623,-0.003783575786641888,-0.009195081636598388,-0.16557121306675143,-0.2598156093156757,R→S
519,103,T,86280,86130,86329,199,0.3851145,819,130.3478983922623,-0.2439133008548583,0.08122102692024029,-0.2401297250682164,0.09041610855683868,S→T
520,104,P,86700,86672,86728,56,0.16356349999999997,798,127.00564458733248,0.032945187884028775,0.0001265425546719733,0.2768584887388871,-0.08109448436556832,T→P
521,104,Q,86803,86783,86813,30,-0.2534195,798,127.00564458733248,-0.023277020242658382,-0.02344510704594436,-0.056222208126687157,-0.02357164960061633,P→Q
522,104,R,86825,86813,86849,36,1.6053605,798,127.00564458733248,0.15437392774188857,0.25277888574302293,0.17765094798454695,0.2762239927889673,Q→R
523,104,S,86856,86849,86863,14,-0.0904665,798,127.00564458733248,-0.001916257146411028,-0.005262723436478269,-0.1562901848882996,-0.2580416091795012,R→S
524,104,T,87099,86952,87166,214,0.3625115,798,127.00564458733248,-0.25062757036116423,0.05353670085767217,-0.2487113132147532,0.058799424294150436,S→T
525,105,P,87498,87468,87526,58,0.17371899999999998,839,133.53099725410019,0.03585295085293885,-4.6299034204737714e-05,0.28648052121410306,-0.053582999891876905,T→P
526,105,Q,87599,87584,87609,25,-0.19632100000000002,839,133.53099725410019,-0.016330197669928468,-0.014955007255256416,-0.05218314852286732,-0.014908708221051678,P→Q
527,105,R,87622,87609,87646,37,1.660758,839,133.53099725410019,0.16897698984057144,0.24309414388952708,0.1853071875104999,0.2580491511447835,Q→R
528,105,S,87651,87646,87657,11,-0.12962300000000004,839,133.53099725410019,-0.0030408034372249536,-0.0067198192806442745,-0.1720177932777964,-0.24981396317017135,R→S
529,105,T,87898,87748,87966,218,0.42889499999999997,839,133.53099725410019,-0.2970484937809147,0.124063792782733,-0.29400769034368973,0.13078361206337727,S→T
530,106,P,88337,88308,88366,58,0.1745885,839,133.53099725410019,0.03552140574670382,0.00018287588487579505,0.3325698995276185,-0.1238809168978572,T→P
531,106,Q,88439,88421,88449,28,-0.21805449999999998,839,133.53099725410019,-0.01874223729823532,-0.017506674040711465,-0.05426364304493914,-0.017689549925587262,P→Q
532,106,R,88469,88449,88485,36,1.6714675,839,133.53099725410019,0.1652523827661613,0.2422424117223909,0.18399462006439662,0.25974908576310235,Q→R
533,106,S,88491,88485,88498,13,-0.15601749999999998,839,133.53099725410019,-0.00390373489272129,-0.008748282357693794,-0.16915611765888258,-0.2509906940800847,R→S
534,106,T,88737,88587,88804,217,0.4111945,839,133.53099725410019,-0.2772647551266383,0.10807375365029852,-0.273361020233917,0.11682203600799232,S→T
535,107,P,89176,89145,89207,62,0.19169699999999998,778,123.82254572549458,0.04063940130393141,5.738646097608521e-06,0.3179041564305697,-0.1080680150042009,T→P
536,107,Q,89277,89262,89286,24,-0.203276,778,123.82254572549458,-0.016928889616524917,-0.017200109670843095,-0.05756829092045633,-0.017205848316940702,P→Q
537,107,R,89299,89286,89325,39,1.6717819999999999,778,123.82254572549458,0.16064994728059734,0.2681621066974895,0.17757883689712226,0.2853622163683326,Q→R
538,107,S,89329,89325,89335,10,-0.06525500000000001,778,123.82254572549458,-0.0011385785651218357,-0.003297897807383421,-0.16178852584571918,-0.27146000450487295,R→S
539,107,T,89575,89425,89644,219,0.41728,778,123.82254572549458,-0.336396258170426,0.06481998967140978,-0.33525767960530417,0.0681178874787932,S→T
540,108,P,89954,89910,89983,73,0.18414999999999998,819,130.3478983922623,0.04371972698234457,-0.0010971327260965939,0.38011598515277056,-0.06591712239750638,T→P
541,108,Q,90052,90040,90063,23,-0.22184700000000002,819,130.3478983922623,-0.01652434204609614,-0.015413462274908784,-0.060244069028440705,-0.014316329548812191,P→Q
542,108,R,90081,90063,90102,39,1.691498,819,130.3478983922623,0.17239640098563064,0.25676118848183793,0.1889207430317268,0.27217465075674674,Q→R
543,108,S,90106,90102,90112,10,-0.11105300000000001,819,130.3478983922623,-0.002313948817011897,-0.005463777339880594,-0.17471034980264252,-0.2622249658217185,R→S
544,108,T,90354,90204,90421,217,0.405109,819,130.3478983922623,-0.28734565315446875,0.1086863483416617,-0.28503170433745684,0.1141501256815423,S→T
545,109,P,90773,90729,90801,72,0.1565915,879,139.897194977776,0.0339469842134179,-0.001465160287504124,0.32129263736788666,-0.11015150862916583,T→P
546,109,Q,90869,90857,90881,24,-0.26098449999999995,879,139.897194977776,-0.019071884532584446,-0.015609207977401458,-0.05301886874600235,-0.014144047689897334,P→Q
547,109,R,90899,90881,90919,38,1.6917945,879,139.897194977776,0.17371234898301086,0.21899736754878382,0.19278423351559532,0.23460657552618527,Q→R
548,109,S,90923,90919,90931,12,-0.1704995,879,139.897194977776,-0.004499909568701102,-0.00841752896309638,-0.17821225855171197,-0.2274148965118802,R→S
549,109,T,91172,91022,91241,219,0.4216445,879,139.897194977776,-0.2550694895895791,0.14495368994584026,-0.250569580020878,0.15337121890893665,S→T
550,110,P,91652,91609,91660,51,0.125849,779,123.98170066858647,0.026682533345146905,-0.003192626539563651,0.281752022934726,-0.1481463164854039,T→P
551,110,Q,91741,91696,91751,55,-0.340446,779,123.98170066858647,-0.03912344870449598,-0.029269800738700617,-0.06580598204964289,-0.026077174199136965,P→Q
552,110,R,91771,91751,91787,36,1.609411,779,123.98170066858647,0.17297266152672316,0.23590175356332058,0.21209611023121916,0.2651715543020212,Q→R
553,110,S,91799,91787,91809,22,-0.11715700000000001,779,123.98170066858647,-0.004312123360735274,-0.010191170479294074,-0.17728478488745844,-0.24609292404261465,R→S
554,110,T,92031,91921,92081,160,0.31898899999999997,779,123.98170066858647,-0.19772652523039635,0.04269800388160007,-0.19341440186966108,0.052889174360894145,S→T
555,111,P,92431,92401,92461,60,0.17255350000000003,818,130.1887434491704,0.03905762461449677,0.00014570776822979032,0.23678414984489313,-0.04255229611337028,T→P
556,111,Q,92532,92517,92542,25,-0.21139549999999996,818,130.1887434491704,-0.01732524194601239,-0.01659812337238474,-0.056382866560509164,-0.01674383114061453,P→Q
557,111,R,92555,92542,92580,38,1.6769785,818,130.1887434491704,0.16798196599314674,0.25562260662575614,0.18530720793915914,0.2722207299981409,Q→R
558,111,S,92585,92580,92590,10,-0.07918349999999996,818,130.1887434491704,-0.0015230922903327526,-0.0037034783123279123,-0.1695050582834795,-0.25932608493808407,R→S
559,111,T,92830,92680,93080,400,0.42366050000000005,818,130.1887434491704,-0.37491899704063053,0.017810729905642895,-0.37339590475029777,0.021514208217970808,S→T
560,112,P,93249,93206,93277,71,0.1786195,839,133.53099725410019,0.03870019898833072,-0.001573216916461477,0.41361919602896124,-0.019383946822104373,T→P
561,112,Q,93344,93334,93353,19,-0.2557875,839,133.53099725410019,-0.016189169318214913,-0.013856487035997542,-0.05488936830654563,-0.012283270119536066,P→Q
562,112,R,93374,93353,93393,40,1.7433815000000001,839,133.53099725410019,0.17798414472901627,0.2380434362633511,0.19417331404723118,0.2518999232993486,Q→R
563,112,S,93398,93393,93406,13,-0.16877950000000003,839,133.53099725410019,-0.004097755212769132,-0.008476790354672647,-0.18208189994178542,-0.24652022661802372,R→S
564,112,T,93629,93479,93698,219,0.4042395,839,133.53099725410019,-0.27093652851707206,0.13182387772981452,-0.26683877330430295,0.14030066808448716,S→T
565,113,P,94088,94045,94098,53,0.1429595,782,124.45916549786216,0.02788618856194012,-0.002860219848713795,0.2988227170790122,-0.1346840975785283,T→P
566,113,Q,94181,94170,94191,21,-0.3065045,782,124.45916549786216,-0.02145727646132943,-0.019768988462839858,-0.04934346502326955,-0.016908768614126064,P→Q
567,113,R,94211,94191,94230,39,1.6561154999999999,782,124.45916549786216,0.16668649703861282,0.2469695106448327,0.18814377349994227,0.26673849910767256,Q→R
568,113,S,94237,94230,94246,16,-0.17081449999999998,782,124.45916549786216,-0.004648304571700982,-0.01186696976086387,-0.1713348016103138,-0.25883648040569657,R→S
569,113,T,94487,94359,94533,174,0.3198585,782,124.45916549786216,-0.20314404290013618,0.04008233749842868,-0.1984957383284352,0.05194930725929255,S→T
570,114,P,94870,94840,94898,58,0.154556,796,126.68733470114869,0.03329731717268693,-2.4404111518014372e-05,0.23644136007282313,-0.0401067416099467,T→P
571,114,Q,94972,94949,94981,32,-0.266497,796,126.68733470114869,-0.02299038068077015,-0.022787143658550325,-0.05628769785345708,-0.02276273954703231,P→Q
572,114,R,95001,94981,95019,38,1.606822,796,126.68733470114869,0.15985384830875615,0.2588382690547328,0.1828442289895263,0.2816254127132831,Q→R
573,114,S,95022,95019,95038,19,-0.075096,796,126.68733470114869,-0.001739327283909758,-0.0048152738508062095,-0.16159317559266592,-0.263653542905539,R→S
574,114,T,95267,95117,95334,217,0.37495900000000004,796,126.68733470114869,-0.27741178631882996,0.06796406155845978,-0.2756724590349202,0.072779335409266,S→T
575,115,P,95666,95621,95695,74,0.1800995,818,130.1887434491704,0.04718273572310593,-0.002251045941500923,0.3245945220419359,-0.07021510749996071,T→P
576,115,Q,95761,95751,95771,20,-0.23632950000000003,818,130.1887434491704,-0.015720117150592083,-0.014040280138621113,-0.06290285287369801,-0.01178923419712019,P→Q
577,115,R,95791,95771,95811,40,1.7251435,818,130.1887434491704,0.17705792526835457,0.25149378731499983,0.19277804241894664,0.26553406745362096,Q→R
578,115,S,95815,95811,95823,12,-0.15805249999999998,818,130.1887434491704,-0.0037462347902396773,-0.008408941169303297,-0.18080416005859423,-0.2599027284843031,R→S
579,115,T,96065,95915,96134,219,0.4463005,818,130.1887434491704,-0.3281708458917752,0.11824441199440734,-0.32442461110153553,0.12665335316371062,S→T
580,116,P,96484,96440,96493,53,0.133988,759,120.79860180674856,0.03331370738516449,-0.004270636557081271,0.3614845532769397,-0.12251504855148862,T→P
581,116,Q,96574,96546,96584,38,-0.325352,759,120.79860180674856,-0.028772856220637827,-0.02488660304337508,-0.062086563605802315,-0.02061596648629381,P→Q
582,116,R,96604,96584,96623,39,1.674371,759,120.79860180674856,0.17430414168828465,0.25768441518880525,0.20307699790892247,0.28257101823218034,Q→R
583,116,S,96632,96623,96640,17,-0.126442,759,120.79860180674856,-0.0036999263645483517,-0.009919130369891992,-0.178004068052833,-0.26760354555869725,R→S
584,116,T,96864,96734,96930,196,0.357277,759,120.79860180674856,-0.2535121272704702,0.042432007937221156,-0.24981220090592182,0.052351138307113146,S→T
585,117,P,97243,97200,97270,70,0.15137499999999998,780,124.14085561167836,0.03854682308265513,-0.0028004099472679475,0.2920589503531253,-0.045232417884489104,T→P
586,117,Q,97334,97323,97343,20,-0.308557,780,124.14085561167836,-0.0201854791595193,-0.01804575907878807,-0.058732302242174426,-0.015245349131520123,P→Q
587,117,R,97363,97343,97385,42,1.723683,780,124.14085561167836,0.18281279051878435,0.2597218325968865,0.20299826967830364,0.2777675916756746,Q→R
588,117,S,97391,97385,97397,12,-0.106132,780,124.14085561167836,-0.0021912978310443237,-0.005427920239715986,-0.18500408834982868,-0.2651497528366025,R→S
589,117,T,97623,97473,97711,238,0.413507,780,124.14085561167836,-0.3239132013528675,0.09375301205344459,-0.32172190352182317,0.09918093229316058,S→T
590,118,P,98023,97994,98069,75,0.169945,858,136.5549411728462,0.0448828523997835,0.00184185758435125,0.368796053752651,-0.09191115446909334,T→P
591,118,Q,98129,98108,98138,30,-0.252884,858,136.5549411728462,-0.017293041095263063,-0.016315697555820952,-0.06217589349504656,-0.018157555140172203,P→Q
592,118,R,98158,98138,98175,37,1.709773,858,136.5549411728462,0.16428490961787864,0.24161922929586716,0.1815779507131417,0.2579349268516881,Q→R
593,118,S,98179,98175,98188,13,-0.113679,858,136.5549411728462,-0.002315244306305696,-0.00516561294323682,-0.16660015392418434,-0.24678484223910396,R→S
594,118,T,98421,98271,98510,239,0.44310000000000005,858,136.5549411728462,-0.30212175916683653,0.13428565014569896,-0.29980651486053084,0.13945126308893577,S→T
595,119,P,98881,98837,98909,72,0.1774735,861,137.0324060021219,0.0394869004828598,-0.0014920965625023507,0.34160865964969633,-0.1357777467082013,T→P
596,119,Q,98977,98966,98989,23,-0.2459095,861,137.0324060021219,-0.017448496051661697,-0.01466319146984916,-0.056935396534521496,-0.01317109490734681,P→Q
597,119,R,99007,98989,99026,37,1.6900374999999999,861,137.0324060021219,0.17448899605010804,0.22734521504999347,0.19193749210176975,0.24200840651984262,Q→R
598,119,S,99030,99026,99039,13,-0.1734035,861,137.0324060021219,-0.004540837927597043,-0.008904725241946715,-0.17902983397770508,-0.23624994029194019,R→S
599,119,T,99280,99130,99333,203,0.39669350000000003,861,137.0324060021219,-0.24066140620925955,0.12585796259566148,-0.2361205682816625,0.1347626878376082,S→T
600,120,P,99742,99712,99786,74,0.171647,819,130.3478983922623,0.041626604963286726,0.0011290235058278668,0.28228801117254626,-0.12472893908983361,T→P
601,120,Q,99846,99824,99854,30,-0.240121,819,130.3478983922623,-0.019663642766945773,-0.019005619061324405,-0.0612902477302325,-0.02013464256715227,P→Q
602,120,R,99874,99854,99892,38,1.58507,819,130.3478983922623,0.15850568915709987,0.24389524305063806,0.17816933192404563,0.26290086211196245,Q→R
603,120,S,99896,99892,99905,13,-0.06381300000000001,819,130.3478983922623,-0.00134156941084374,-0.003331479743547445,-0.1598472585679436,-0.2472267227941855,R→S
604,120,T,100139,99989,100206,217,0.376957,819,130.3478983922623,-0.26616874772401805,0.08640502868012599,-0.2648271783131743,0.08973650842367344,S→T
605,121,P,100561,100530,100606,76,0.16761500000000001,856,136.2366312866624,0.047425349555449456,0.0016639934707692082,0.3135940972794675,-0.08474103520935679,T→P
606,121,Q,100666,100645,100675,30,-0.262168,856,136.2366312866624,-0.014967974712347811,-0.014252304394998012,-0.06239332426779727,-0.01591629786576722,P→Q
607,121,R,100696,100675,100713,38,1.723091,856,136.2366312866624,0.16501449362641193,0.24160754817490934,0.17998246833875975,0.25585985256990734,Q→R
608,121,S,100717,100713,100728,15,-0.060335000000000014,856,136.2366312866624,-0.001574716437463772,-0.003613475286675249,-0.1665892100638757,-0.2452210234615846,R→S
609,121,T,100958,100808,101026,218,0.429746,856,136.2366312866624,-0.2947528250910454,0.14219185323240935,-0.2931781086535816,0.1458053285190846,S→T
610,122,P,101417,101372,101445,73,0.19166,859,136.7140961159381,0.043018049336526906,-0.001805915230341348,0.3377708744275723,-0.1439977684627507,T→P
611,122,Q,101511,101502,101521,19,-0.24792599999999998,859,136.7140961159381,-0.016007374079937558,-0.01313776520316604,-0.05902542341646447,-0.011331849972824692,P→Q
612,122,R,101541,101521,101561,40,1.744251,859,136.7140961159381,0.1811135764954597,0.22960635254736492,0.19712095057539725,0.24274411775053095,Q→R
613,122,S,101565,101561,101573,12,-0.144124,859,136.7140961159381,-0.003493389255552778,-0.006717755665455225,-0.1846069657510125,-0.23632410821282016,R→S
614,122,T,101798,101648,101884,236,0.418464,859,136.7140961159381,-0.27983390640615013,0.1613251630541798,-0.2763405171505974,0.16804291871963503,S→T
615,123,P,102276,102234,102303,69,0.178324,779,123.98170066858647,0.03755680165418677,-0.0016025392569742486,0.3173907080603369,-0.16292770231115405,T→P
616,123,Q,102370,102359,102380,21,-0.270547,779,123.98170066858647,-0.018408124674769707,-0.017213904128723128,-0.05596492632895647,-0.015611364871748879,P→Q
617,123,R,102396,102380,102421,41,1.653193,779,123.98170066858647,0.1687957871141054,0.2556765693256958,0.1872039117888751,0.27289047345441897,Q→R
618,123,S,102424,102421,102433,12,-0.126164,779,123.98170066858647,-0.0026714441811020533,-0.007055758503143897,-0.17146723129520744,-0.2627323278288397,R→S
619,123,T,102675,102525,102724,199,0.35174700000000003,779,123.98170066858647,-0.2662582783849763,0.060811724289148654,-0.26358683420387424,0.06786748279229254,S→T
620,124,P,103055,103011,103102,91,0.172257,799,127.16479953042438,0.04876400045013111,-0.00043180833116633616,0.3150222788351074,-0.06124353262031499,T→P
621,124,Q,103150,103140,103161,21,-0.23718,799,127.16479953042438,-0.01615458369303209,-0.014948264412995526,-0.0649185841431632,-0.01451645608182919,P→Q
622,124,R,103180,103161,103201,40,1.724256,799,127.16479953042438,0.1768586884423637,0.26469710109581795,0.19301327213539576,0.27964536550881347,Q→R
623,124,S,103204,103201,103212,11,-0.10382000000000001,799,127.16479953042438,-0.002111228394522275,-0.005190494751006394,-0.17896991683688596,-0.26988759584682437,R→S
624,124,T,103454,103304,103704,400,0.439642,799,127.16479953042438,-0.3776516921822318,0.0450142624433356,-0.37554046378770956,0.05020475719434199,S→T
625,125,P,103854,103826,103900,74,0.1653025,839,133.53099725410019,0.042324852901071505,0.001693732484452244,0.41997654508330334,-0.04332052995888335,T→P
626,125,Q,103960,103935,103969,34,-0.27258249999999995,839,133.53099725410019,-0.022264497690544127,-0.02134792640022944,-0.06458935059161564,-0.023041658884681685,P→Q
627,125,R,103988,103969,104005,36,1.6679895,839,133.53099725410019,0.15867100423574115,0.2431054189881953,0.18093550192628527,0.26445334538842474,Q→R
628,125,S,104010,104005,104025,20,-0.1554255,839,133.53099725410019,-0.004073766369705979,-0.009931699037952844,-0.16274477060544712,-0.25303711802614814,R→S
629,125,T,104253,104123,104305,182,0.36828249999999996,839,133.53099725410019,-0.21672800077215865,0.07390267550759923,-0.21265423440245268,0.08383437454555207,S→T
630,126,P,104693,104662,104719,57,0.1716655,801,127.48310941660817,0.030888582098034363,-0.0005904419787412563,0.247616582870193,-0.07449311748634048,T→P
631,126,Q,104788,104775,104799,24,-0.2905605,801,127.48310941660817,-0.021062519139153257,-0.01916603765997522,-0.051951101237187616,-0.018575595681233965,P→Q
632,126,R,104812,104799,104837,38,1.6384325000000002,801,127.48310941660817,0.1670077655420048,0.24364408571689306,0.18807028468115805,0.26281012337686827,Q→R
633,126,S,104842,104837,104850,13,-0.1508015,801,127.48310941660817,-0.003979794989113134,-0.009585772151262835,-0.17098756053111794,-0.2532298578681559,R→S
634,126,T,105091,104943,105140,197,0.3485655,801,127.48310941660817,-0.23463980066179546,0.06516499564724997,-0.23066000567268233,0.07475076779851281,S→T
635,127,P,105494,105466,105524,58,0.1293635,776,123.50423583931078,0.03280958543685741,6.366661046623921e-05,0.2674493860986529,-0.06510132903678373,T→P
636,127,Q,105599,105575,105607,32,-0.29808850000000003,776,123.50423583931078,-0.021518741587697354,-0.023063843247335916,-0.05432832702455476,-0.023127509857802157,P→Q
637,127,R,105628,105607,105647,40,1.6082645,776,123.50423583931078,0.15163567775341982,0.27191809726579674,0.17315441934111717,0.29498194051313265,Q→R
638,127,S,105659,105651,105662,11,-0.03710350000000001,776,123.50423583931078,-0.0005025076953400909,-0.0019400327461170258,-0.15213818544875993,-0.2738581300119138,R→S
639,127,T,105890,105740,105979,239,0.3810635,776,123.50423583931078,-0.3075768717639734,0.03992065758784321,-0.3070743640686333,0.041860690333960233,S→T
640,128,P,106270,106226,106317,91,0.1806545,802,127.64226435970006,0.048786341225648136,2.8539454577204186e-05,0.35636321298962154,-0.03989211813326601,T→P
641,128,Q,106367,106356,106377,21,-0.24620650000000002,802,127.64226435970006,-0.016939084835365072,-0.015829033818479818,-0.06572542606101321,-0.01585757327305702,P→Q
642,128,R,106394,106377,106417,40,1.7123815,802,127.64226435970006,0.17477039489978569,0.26363900349863306,0.19170947973515076,0.2794680373171129,Q→R
643,128,S,106420,106417,106427,10,-0.1290495,802,127.64226435970006,-0.0026613955810915265,-0.006538993623906796,-0.1774317904808772,-0.27017799712253987,R→S
644,128,T,106669,106519,106919,400,0.42946850000000003,802,127.64226435970006,-0.37250380335038685,0.0107403030955332,-0.36984240776929533,0.017279296719439997,S→T
645,129,P,107072,107042,107116,74,0.143532,855,136.0774763435705,0.04022698335845456,0.0014632494468451503,0.4127307867088414,-0.00927705364868805,T→P
646,129,Q,107177,107169,107186,17,-0.273451,855,136.0774763435705,-0.01394121842780704,-0.013627268377032023,-0.0541682017862616,-0.015090517823877174,P→Q
647,129,R,107207,107186,107224,38,1.762229,855,136.0774763435705,0.1661443049317858,0.2456574350061439,0.18008552335959285,0.25928470338317594,Q→R
648,129,S,107230,107224,107238,14,-0.073394,855,136.0774763435705,-0.001792186639341449,-0.0041704337714563834,-0.16793649157112725,-0.24982786877760027,R→S
649,129,T,107468,107318,107556,238,0.442805,855,136.0774763435705,-0.3047932269536299,0.13984260911716587,-0.3030010403142885,0.14401304288862224,S→T
650,130,P,107927,107885,107954,69,0.1528355,779,123.98170066858647,0.030178561605421875,-0.0016377534755501887,0.3349717885590518,-0.14148036259271607,T→P
651,130,Q,108021,107970,108032,62,-0.31985949999999996,779,123.98170066858647,-0.035625155923625806,-0.02855399001803584,-0.06580371752904768,-0.026916236542485653,P→Q
652,130,R,108051,108032,108070,38,1.6288505,779,123.98170066858647,0.16247150055202617,0.24715046389096623,0.19809665647565197,0.27570445390900206,Q→R
653,130,S,108076,108070,108085,15,-0.1806555,779,123.98170066858647,-0.004891981638257777,-0.012945710477979924,-0.16736348219028394,-0.26009617436894616,R→S
654,130,T,108327,108199,108373,174,0.32045049999999997,779,123.98170066858647,-0.21098784536001342,0.036747107158570595,-0.20609586372175565,0.04969281763655052,S→T
655,131,P,108706,108676,108735,59,0.18239350000000001,799,127.16479953042438,0.036054515969669444,0.0003613187146844142,0.24704236132968285,-0.03638578844388618,T→P
656,131,Q,108808,108792,108817,25,-0.22415849999999998,799,127.16479953042438,-0.018475950218244774,-0.01837751597890174,-0.05453046618791422,-0.018738834693586157,P→Q
657,131,R,108831,108817,108856,39,1.6781255,799,127.16479953042438,0.1639398098974742,0.26438719861735105,0.18241576011571897,0.2827647145962528,Q→R
658,131,S,108861,108856,108866,10,-0.07163649999999999,799,127.16479953042438,-0.0012147788771123015,-0.0032566467144907875,-0.1651545887745865,-0.2676438453318418,R→S
659,131,T,109105,108955,109174,219,0.3882585,799,127.16479953042438,-0.302587700814983,0.0852608772427416,-0.3013729219378707,0.08851752395723239,S→T
660,132,P,109505,109462,109532,70,0.15370499999999998,819,130.3478983922623,0.03498098098211582,-0.001987539749173194,0.3375686817970988,-0.0872484169919148,T→P
661,132,Q,109598,109586,109608,22,-0.30215800000000004,819,130.3478983922623,-0.02052320467335531,-0.017634509474223348,-0.05550418565547113,-0.015646969725050155,P→Q
662,132,R,109628,109608,109646,38,1.724866,819,130.3478983922623,0.1764045714593535,0.23826160304394609,0.19692777613270881,0.25589611251816946,Q→R
663,132,S,109654,109646,109661,15,-0.178639,819,130.3478983922623,-0.005029079507170878,-0.010837445406735273,-0.1814336509665244,-0.24909904845068137,R→S
664,132,T,109885,109755,109951,196,0.36075399999999996,819,130.3478983922623,-0.22704146399009373,0.08544220388094916,-0.22201238448292285,0.09627964928768443,S→T
665,133,P,110324,110297,110353,56,0.15977199999999997,819,130.3478983922623,0.0317208779306703,0.0002842478285192069,0.258762341920764,-0.08515795605242994,T→P
666,133,Q,110428,110408,110437,29,-0.22994800000000004,819,130.3478983922623,-0.020631184179037126,-0.020243399376892155,-0.05235206210970743,-0.02052764720541136,P→Q
667,133,R,110456,110437,110473,36,1.674667,819,130.3478983922623,0.16100053127310998,0.25288586038583033,0.1816317154521471,0.2731292597627225,Q→R
668,133,S,110479,110473,110487,14,-0.15744200000000003,819,130.3478983922623,-0.0035702624949635366,-0.008857575336906726,-0.16457079376807351,-0.26174343572273706,R→S
669,133,T,110723,110573,110790,217,0.380768,819,130.3478983922623,-0.24993735057169225,0.07563529832218407,-0.24636708807672872,0.0844928736590908,S→T
670,134,P,111143,111118,111171,53,0.14527099999999998,778,123.82254572549458,0.031366897355660735,0.0004149846479338137,0.281304247927353,-0.07522031367425026,T→P
671,134,Q,111247,111225,111257,32,-0.264166,778,123.82254572549458,-0.021805318098796274,-0.023358388109166392,-0.05317221545445701,-0.023773372757100206,P→Q
672,134,R,111277,111257,111295,38,1.5743420000000001,778,123.82254572549458,0.14781866194074375,0.26424535486961737,0.16962398003954002,0.28760374297878377,Q→R
673,134,S,111300,111295,111307,12,-0.07975700000000002,778,123.82254572549458,-0.0014207951946089987,-0.004555300992278525,-0.14923945713535275,-0.2688006558618959,R→S
674,134,T,111543,111393,111609,216,0.349434,778,123.82254572549458,-0.25339170985197235,0.03839251426435109,-0.2519709146573633,0.04294781525662962,S→T
675,135,P,111921,111876,111950,74,0.15949449999999998,780,124.14085561167836,0.05020672578512986,-0.003683341507233931,0.3035984356371022,-0.04207585577158502,T→P
676,135,Q,112011,111988,112019,31,-0.28996849999999996,780,124.14085561167836,-0.019443387963922244,-0.01653446055139362,-0.0696501137490521,-0.012851119044159687,P→Q
677,135,R,112040,112019,112063,44,1.7155624999999999,780,124.14085561167836,0.1906251239565252,0.26237190127553023,0.21006851192044745,0.27890636182692385,Q→R
678,135,S,112069,112063,112072,9,-0.04348450000000004,780,124.14085561167836,-0.000758855869507089,-0.001844263092688964,-0.19138397982603228,-0.2642161643682192,R→S
679,135,T,112301,112151,112390,239,0.42687949999999997,780,124.14085561167836,-0.3527375507441652,0.11039934202696798,-0.3519786948746581,0.11224360511965695,S→T
680,136,P,112701,112657,112748,91,0.1879055,819,130.3478983922623,0.051463981230141856,0.00037250862803851726,0.404201531974307,-0.11002683339892946,T→P
681,136,Q,112799,112788,112810,22,-0.1734035,819,130.3478983922623,-0.01265877813578201,-0.011883830572627513,-0.06412275936592386,-0.01225633920066603,P→Q
682,136,R,112830,112810,112848,38,1.7149705000000002,819,130.3478983922623,0.1765012115361293,0.26268400050525725,0.1891599896719113,0.27456783107788474,Q→R
683,136,S,112853,112848,112859,11,-0.11018249999999996,819,130.3478983922623,-0.002257448598858378,-0.005246525410603902,-0.17875866013498767,-0.26793052591586114,R→S
684,136,T,113100,112950,113350,400,0.49413250000000003,819,130.3478983922623,-0.4381441040920525,0.023262639441821824,-0.4358866554931941,0.028509164852425724,S→T
685,137,P,113520,113489,113545,56,0.1360045,778,123.82254572549458,0.022884764462307416,-0.000686609628017682,0.4610288685543599,-0.023949249069839505,T→P
686,137,Q,113614,113561,113625,64,-0.3123125,778,123.82254572549458,-0.038091184395876485,-0.030005878910464977,-0.0609759488581839,-0.029319269282447297,P→Q
687,137,R,113643,113625,113663,38,1.6456835,778,123.82254572549458,0.1643126487909631,0.25083410498043746,0.20240383318683958,0.2808399838909024,Q→R
688,137,S,113668,113663,113678,15,-0.17081449999999998,778,123.82254572549458,-0.004360800105859639,-0.011479747086766318,-0.16867344889682276,-0.26231385206720376,R→S
689,137,T,113899,113790,113966,176,0.3163815,778,123.82254572549458,-0.21233067468548902,0.03573541832804091,-0.20796987457962937,0.047215165414807234,S→T
690,138,P,114298,114255,114325,70,0.170241,799,127.16479953042438,0.03865924346554923,-0.0016655577029187731,0.25098991815103827,-0.03740097603095968,T→P
691,138,Q,114392,114382,114401,19,-0.29143,799,127.16479953042438,-0.01898081749660183,-0.01707981163284546,-0.05764006096215106,-0.015414253929926687,P→Q
692,138,R,114418,114401,114443,42,1.6955680000000002,799,127.16479953042438,0.1767611852064665,0.2537239928849633,0.19574200270306832,0.2708038045178087,Q→R
693,138,S,114447,114443,114454,11,-0.112236,799,127.16479953042438,-0.00233928253413573,-0.0056424687885036845,-0.17910046774060223,-0.25936646167346694,R→S
694,138,T,114678,114528,114767,239,0.394677,799,127.16479953042438,-0.31459764951690367,0.1035135848837518,-0.31225836698276793,0.10915605367225549,S→T
695,139,P,115097,115053,115125,72,0.173977,840,133.69015219719208,0.04141860179372149,-0.0015695214369257243,0.35601625131062514,-0.10508310632067752,T→P
696,139,Q,115194,115183,115206,23,-0.21748100000000004,840,133.69015219719208,-0.01599197098818468,-0.014328373559667531,-0.05741057278190617,-0.012758852122741807,P→Q
697,139,R,115223,115206,115244,38,1.689464,840,133.69015219719208,0.1729752207001543,0.24300015398657654,0.18896719168833898,0.2573285275462441,Q→R
698,139,S,115249,115244,115255,11,-0.146714,840,133.69015219719208,-0.003662684168302554,-0.007891937641895653,-0.17663790486845687,-0.2508920916284722,R→S
699,139,T,115497,115347,115565,218,0.417575,840,133.69015219719208,-0.2877438399850928,0.12275087483789453,-0.2840811558167902,0.13064281247979018,S→T
700,140,P,115937,115907,115966,59,0.18355899999999997,817,130.02958850607848,0.039773811385847305,-7.611751264262865e-05,0.3275176513709401,-0.12282699235053715,T→P
701,140,Q,116040,116022,116049,27,-0.23168600000000003,817,130.02958850607848,-0.019552076843400743,-0.019079369222826364,-0.059325888229248044,-0.019003251710183734,P→Q
702,140,R,116068,116049,116085,36,1.6340860000000001,817,130.02958850607848,0.16055031678850307,0.24867474021064148,0.1801023936319038,0.26775410943346784,Q→R
703,140,S,116091,116085,116099,14,-0.14874800000000002,817,130.02958850607848,-0.003281286896400351,-0.008046702379425856,-0.1638316036849034,-0.25672144259006735,R→S
704,140,T,116336,116186,116385,199,0.360459,817,130.02958850607848,-0.23479420471739137,0.07570128571864464,-0.23151291782099104,0.08374798809807049,S→T
705,141,P,116754,116712,116782,70,0.16556149999999997,800,127.32395447351627,0.04030169652487385,-0.0022623768824976682,0.27509590124226524,-0.0779636626011423,T→P
706,141,Q,116848,116838,116857,19,-0.2885255,800,127.32395447351627,-0.0183042654954073,-0.01644598082248814,-0.05860596202028115,-0.01418360393999047,P→Q
707,141,R,116878,116857,116900,43,1.6746855,800,127.32395447351627,0.17686682947836127,0.2523144471063382,0.19517109497376856,0.2687604279288264,Q→R
708,141,S,116904,116900,116910,10,-0.09250050000000004,800,127.32395447351627,-0.0016520951158332435,-0.004019020435482956,-0.17851892459419452,-0.2563334675418212,R→S
709,141,T,117135,116985,117385,400,0.39525049999999995,800,127.32395447351627,-0.35879723534804014,0.036077721426496026,-0.3571451402322069,0.04009674186197898,S→T
710,142,P,117554,117510,117601,91,0.1780465,819,130.3478983922623,0.04856198715037361,6.887814999564617e-05,0.4073592224984138,-0.03600884327650038,T→P
711,142,Q,117655,117640,117664,24,-0.19602550000000002,819,130.3478983922623,-0.016101742193913,-0.01531582988201699,-0.0646637293442866,-0.015384708032012636,P→Q
712,142,R,117684,117664,117702,38,1.6871335,819,130.3478983922623,0.16908339818493265,0.255951592949644,0.18518514037884565,0.27126742283166094,Q→R
713,142,S,117707,117702,117713,11,-0.1397585,819,130.3478983922623,-0.003060839043932049,-0.007254707702682199,-0.1721442372288647,-0.2632063006523262,R→S
714,142,T,117953,117803,118021,218,0.4268605,819,130.3478983922623,-0.31047195922448284,0.1064217119941995,-0.3074111201805508,0.1136764196968817,S→T
715,143,P,118373,118344,118419,75,0.164988,802,127.64226435970006,0.04082920964025735,0.0014070728666165312,0.35130116886474017,-0.10501463912758296,T→P
716,143,Q,118478,118458,118487,29,-0.22765400000000002,802,127.64226435970006,-0.017876311909160825,-0.01842257576602105,-0.058705521549418174,-0.01982964863263758,P→Q
717,143,R,118506,118487,118523,36,1.680474,802,127.64226435970006,0.15893686825987338,0.26441218482821477,0.17681318016903422,0.28283476059423585,Q→R
718,143,S,118528,118523,118536,13,-0.136023,802,127.64226435970006,-0.002562931848443492,-0.006960626268453413,-0.16149980010831688,-0.27137281109666817,R→S
719,143,T,118772,118622,118839,217,0.38946,802,127.64226435970006,-0.2841904112951253,0.07415308566155206,-0.2816274794466818,0.08111371193000547,S→T
720,144,P,119175,119146,119218,72,0.1617885,758,120.63944686365667,0.04224723707151252,0.0014982035455943193,0.3264376483666378,-0.07265488211595773,T→P
721,144,Q,119278,119257,119286,29,-0.2638885,758,120.63944686365667,-0.018500269780101056,-0.020329098197610262,-0.06074750685161358,-0.02182730174320458,P→Q
722,144,R,119307,119286,119327,41,1.6239315,758,120.63944686365667,0.15437257565389784,0.28325405821008737,0.1728728454339989,0.3035831564076976,Q→R
723,144,S,119334,119327,119337,10,-0.01681350000000001,758,120.63944686365667,-0.00021976518169569838,-0.0007779228766676978,-0.15459234083559353,-0.2840319810867551,R→S
724,144,T,119571,119421,119639,218,0.3781225,758,120.63944686365667,-0.3225859168356254,0.04099036460911604,-0.3223661516539297,0.041768287485783734,S→T
725,145,P,119933,119904,119976,72,0.145844,799,127.16479953042438,0.038677003773894006,0.0009850306340488102,0.36126292060951937,-0.040005333975067225,T→P
726,145,Q,120038,120016,120047,31,-0.287971,799,127.16479953042438,-0.018118930340715565,-0.018831242580425286,-0.05679593411460957,-0.019816273214474097,P→Q
727,145,R,120068,120047,120086,39,1.704243,799,127.16479953042438,0.16012530168221867,0.2718819501694273,0.17824423202293424,0.2907131927498526,Q→R
728,145,S,120095,120086,120100,14,-0.04089599999999999,799,127.16479953042438,-0.0009489920413073344,-0.0029370788217198346,-0.161074293723526,-0.27481902899114713,R→S
729,145,T,120329,120179,120418,239,0.416114,799,127.16479953042438,-0.3300781572890513,0.08530314221179694,-0.329129165247744,0.08824022103351678,S→T
730,146,P,120732,120705,120757,52,0.132231,855,136.0774763435705,0.027214074908000912,5.1091309979627086e-05,0.35729223219705225,-0.08525205090181731,T→P
731,146,Q,120837,120813,120846,33,-0.299846,855,136.0774763435705,-0.022013535002196535,-0.020318470958146317,-0.04922760991019745,-0.020369562268125946,P→Q
732,146,R,120867,120846,120883,37,1.705723,855,136.0774763435705,0.16114408979591047,0.23605403173720657,0.183157624798107,0.2563725026953529,Q→R
733,146,S,120888,120883,120901,18,-0.10034299999999999,855,136.0774763435705,-0.003326303922303655,-0.007718563889766944,-0.16447039371821412,-0.2437725956269735,R→S
734,146,T,121128,120978,121195,217,0.383376,855,136.0774763435705,-0.23935309842685631,0.10782915028777436,-0.23602679450455266,0.1155477141775413,S→T
735,147,P,121587,121557,121615,58,0.1713695,879,139.897194977776,0.030603480101704404,-0.00017229188421751969,0.2699565785285607,-0.10800144217199188,T→P
736,147,Q,121684,121672,121695,23,-0.26303750000000004,879,139.897194977776,-0.018712946723981848,-0.015493007790473606,-0.04931642682568625,-0.015320715906256086,P→Q
737,147,R,121713,121695,121733,38,1.6793095,879,139.897194977776,0.17223481432232116,0.2183673928358252,0.190947761046303,0.23386040062629881,Q→R
738,147,S,121737,121733,121746,13,-0.1777695,879,139.897194977776,-0.004721453694534916,-0.008880734725073499,-0.17695626801685607,-0.2272481275608987,R→S
739,147,T,121987,121837,122035,198,0.37494150000000004,879,139.897194977776,-0.2205332625473055,0.13025147316654206,-0.21581180885277057,0.13913220789161557,S→T
740,148,P,122466,122424,122492,68,0.14094199999999998,799,127.16479953042438,0.03060768689074005,-0.0021010088798392953,0.25114094943804555,-0.13235248204638136,T→P
741,148,Q,122558,122530,122567,37,-0.313774,799,127.16479953042438,-0.02523922155334084,-0.020907901736083156,-0.05584690844408089,-0.01880689285624386,P→Q
742,148,R,122587,122567,122608,41,1.630312,799,127.16479953042438,0.17288865914759735,0.23731861449272115,0.1981278807009382,0.2582265162288043,Q→R
743,148,S,122615,122608,122622,14,-0.12525799999999998,799,127.16479953042438,-0.0028779768080176493,-0.006737730973768722,-0.175766635955615,-0.24405634546648988,R→S
744,148,T,122845,122716,122913,197,0.33349,799,127.16479953042438,-0.2392090334930994,0.07718078027169174,-0.23633105668508175,0.08391851124546046,S→T
745,149,P,123265,123235,123294,59,0.17051850000000002,819,130.3478983922623,0.03589023647828106,0.00017754651971880876,0.27509926997138046,-0.07700323375197293,T→P
746,149,Q,123362,123352,123373,21,-0.2163155,819,130.3478983922623,-0.015655463460286102,-0.014491575824763629,-0.05154569993856716,-0.014669122344482437,P→Q
747,149,R,123388,123373,123414,41,1.7329495,819,130.3478983922623,0.1747810377207208,0.2570807316853801,0.19043650118100688,0.2715723075101437,Q→R
748,149,S,123418,123414,123422,8,-0.04870050000000001,819,130.3478983922623,-0.0008163013332510275,-0.0019199117699738118,-0.17559733905397182,-0.2590006434553539,R→S
749,149,T,123664,123514,123914,400,0.4401965,819,130.3478983922623,-0.3953543518996725,0.027357664584656334,-0.3945380505664215,0.029277576354630144,S→T
750,150,P,124084,124056,124131,75,0.1597905,859,136.7140961159381,0.03525140392967983,0.001466577853515783,0.43060575582935234,-0.02589108673114055,T→P
751,150,Q,124188,124168,124197,29,-0.23399850000000003,859,136.7140961159381,-0.019666653456562423,-0.018017936242880245,-0.05491805738624225,-0.019484514096396028,P→Q
752,150,R,124217,124197,124234,37,1.6903335,859,136.7140961159381,0.16551221966442398,0.23648336727054184,0.1851788731209864,0.2545013035134221,Q→R
753,150,S,124239,124234,124246,12,-0.1446975,859,136.7140961159381,-0.0031743117383568414,-0.006788908263011224,-0.1686865314027808,-0.24327227553355307,R→S
754,150,T,124483,124333,124551,218,0.4283215,859,136.7140961159381,-0.26955759096913556,0.12671401429121273,-0.2663832792307787,0.13350292255422397,S→T
755,151,P,124943,124914,124976,62,0.17370000000000002,881,140.2155048639598,0.03593968317247911,0.0002624368896517293,0.30549727414161465,-0.12645157740156102,T→P
756,151,Q,125045,125028,125055,27,-0.207918,881,140.2155048639598,-0.0168467466052164,-0.014635746789893229,-0.05278642977769551,-0.014898183679544957,P→Q
757,151,R,125074,125055,125091,36,1.676979,881,140.2155048639598,0.17078575362692155,0.2262537405249948,0.18763250023213796,0.24088948731488805,Q→R
758,151,S,125096,125091,125103,12,-0.137743,881,140.2155048639598,-0.0030513338822157916,-0.005928605901907992,-0.17383708750913734,-0.2321823464269028,R→S
759,151,T,125341,125191,125409,218,0.412637,881,140.2155048639598,-0.2565003850218151,0.14663248899903056,-0.2534490511395993,0.15256109490093855,S→T
760,152,P,125824,125795,125868,73,0.14878550000000001,856,136.2366312866624,0.03940797884503972,0.0015145219005551287,0.2959083638668548,-0.14511796709847544,T→P
761,152,Q,125929,125906,125938,32,-0.2873605,856,136.2366312866624,-0.01857991598750892,-0.017521274288777793,-0.05798789483254864,-0.01903579618933292,P→Q
762,152,R,125959,125938,125976,38,1.7257175,856,136.2366312866624,0.1620271353186361,0.23763307481495033,0.18060705130614502,0.25515434910372814,Q→R
763,152,S,125981,125976,125992,16,-0.062332499999999985,856,136.2366312866624,-0.0019983331500690116,-0.004675805840564547,-0.1640254684687051,-0.24230888065551487,R→S
764,152,T,126220,126070,126288,218,0.40163150000000003,856,136.2366312866624,-0.2591892079270371,0.11543520315329081,-0.25719087477696806,0.12011100899385535,S→T
765,153,P,126680,126650,126706,56,0.14062850000000002,778,123.82254572549458,0.026429896206182146,-0.00041295864379064346,0.2856191041332192,-0.11584816179708145,T→P
766,153,Q,126775,126762,126785,23,-0.29840350000000004,778,123.82254572549458,-0.02185478326687587,-0.020729726561522527,-0.04828467947305802,-0.020316767917731883,P→Q
767,153,R,126799,126785,126825,40,1.6468295,778,123.82254572549458,0.16259809412203718,0.25125693968430657,0.18445287738891306,0.2719866662458291,Q→R
768,153,S,126830,126825,126838,13,-0.1220955,778,123.82254572549458,-0.003100536952787392,-0.008431339588913612,-0.16569863107482458,-0.2596882792732202,R→S
769,153,T,127078,126930,127127,197,0.33957550000000003,778,123.82254572549458,-0.23346969793376607,0.04601807656743679,-0.23036916098097868,0.054449416156350405,S→T
770,154,P,127458,127415,127485,70,0.154834,759,120.79860180674856,0.032378181904331435,-0.0012097971264122822,0.2658478798380975,-0.04722787369384907,T→P
771,154,Q,127554,127542,127564,22,-0.287675,759,120.79860180674856,-0.020422078223687315,-0.020413258971077142,-0.05280026012801875,-0.01920346184466486,P→Q
772,154,R,127578,127564,127605,41,1.7213699999999998,759,120.79860180674856,0.1679138692246734,0.2807618729677276,0.18833594744836074,0.30117513193880474,Q→R
773,154,S,127610,127605,127615,10,-0.09279700000000002,759,120.79860180674856,-0.0018272183551167865,-0.005554126604543588,-0.1697410875797902,-0.28631599957227116,R→S
774,154,T,127841,127691,127930,239,0.379861,759,120.79860180674856,-0.3409520057265826,0.061265360393085236,-0.3391247873714658,0.06681948699762882,S→T
775,155,P,128217,128187,128245,58,0.17049999999999998,802,127.64226435970006,0.03352487800116773,-0.00012289169972330675,0.3744768837277503,-0.06138825209280854,T→P
776,155,Q,128314,128302,128326,24,-0.230836,802,127.64226435970006,-0.017345256496930105,-0.016554892802876236,-0.05087013449809783,-0.01643200110315293,P→Q
777,155,R,128340,128326,128364,38,1.680771,802,127.64226435970006,0.1699403859706588,0.26186544295440983,0.18728564246758891,0.2784203357572861,Q→R
778,155,S,128368,128364,128375,11,-0.138612,802,127.64226435970006,-0.0031818958089288355,-0.007969366692221874,-0.17312228177958763,-0.2698348096466317,R→S
779,155,T,128616,128466,128684,218,0.38568800000000003,802,127.64226435970006,-0.2868019112099646,0.08777856520028396,-0.28362001540103576,0.09574793189250583,S→T
