record_id,input,event,transition,event_index,k,peak,value_cos,value_sin,value_return,x_input,rr,knowledge,decision,decision_norm,entropy,delta_t,cosine_similarity,delta_h_over_delta_d,frobenius_norm,matrix_size,timestamp,scale,P,zdot,zdot_back
0275,cdot_cos,Q,P-Q,1,0,1360,-0.05458061944793949,-0.0717433309974203,-0.07301993282934072,0.03243869218616446,679.0,0.0001611275751404277,0.500040281893698,0.500040281893698,,,1.0,,0.004967141530112327,1,2026-10-07 20:46:17.444243,46.5,,,
0275,cdot_cos,R,Q-R,2,0,1383,0.029658332095272886,0.2086878766197996,0.08423895154321237,0.9804897313203611,679.0,0.007115415907888328,0.5012578370563915,0.7088856314109518,-9.125562113259468e-06,,0.9999999999999998,,0.009934283060224654,2,2026-10-07 20:46:17.467244,46.5,,,
0275,cdot_cos,S,R-S,3,0,1438,0.05631883602263048,-0.07225714350123269,0.026660503927357592,0.7755141291301959,679.0,0.015386582030854253,0.5022208472144106,0.8698720239956457,-3.356323455134268e-05,0.055,0.9999999999999999,-0.025376339215725612,0.014901424602021048,3,2026-10-07 20:46:17.522244,46.5,0.4828214400497402,0.09684476347312163,0.15038483859938045
0275,cdot_cos,T,S-T,4,0,1628,-0.13368687948322366,-0.20624729676252904,-0.19000571550585416,0.00014548882616290947,679.0,0.017768339889931706,0.5022210278767436,1.0044420557554639,-1.4240380668952544e-05,0.19,1.0,106.95563133383652,0.019868566209391945,4,2026-10-07 20:46:17.712243,46.5,0.25745618908820816,0.041013069140120345,0.012535567679355018
0275,cdot_cos,P,T-P,5,1,1910,0.06829888931097261,-0.00481026498433975,0.20198576879419627,0.9999166466373431,674.0,0.030971548304099983,0.5034626690023121,1.1257767520405904,-0.00011604534657298557,0.282,0.9999999999999998,-0.08199226314884157,0.024835707920944285,5,2026-10-07 20:46:17.994244,46.5,0.41591013285209044,0.028946669684249787,0.04681988799350453
0275,cdot_cos,Q,P-Q,6,1,2037,-0.023677726779716964,-0.03908838699095495,-0.09197661609068958,0.013695299685752914,674.0,0.034094261591848585,0.503479674805616,1.2332682991817785,-3.6639409750004244e-05,0.127,1.0,4.669343482577728,0.029802849552424994,6,2026-10-07 20:46:18.121243,46.5,0.11449461224671219,0.07195419214193459,0.0245882936043197
0275,cdot_cos,R,Q-R,7,1,2059,0.03757123839338432,0.252476513178211,0.061248965173101286,0.9452191891200064,674.0,0.04924791310815137,0.504653355999135,1.3351872783342447,-0.00022773462083049554,0.022,1.0,-0.16281696608559926,0.034769991064596724,7,2026-10-07 20:46:18.143244,46.5,0.43209337352217864,0.4810777787767526,0.6888023416501265
0275,cdot_cos,S,R-S,8,1,2100,0.0058277342383535845,-0.014126121206911054,-0.03174350415503073,0.18602131091557564,674.0,0.0552616838580257,0.5048843335263941,1.4280285438723515,-0.00011333032858527782,0.041,1.0,0.49530486191796824,0.03973713264442994,8,2026-10-07 20:46:18.184243,46.5,0.3644097341332216,0.11421975698858268,0.14667733536278854
0275,cdot_cos,T,S-T,9,1,2307,-0.25925770113561375,-0.11621239217287714,-0.26508543537396734,4.4328086071112134e-06,674.0,0.05861393318121515,0.5048843390304657,1.5146530171704395,-6.883513389620874e-05,0.207,1.0000000000000002,8084.050785646809,0.044704274635468035,9,2026-10-07 20:46:18.391244,46.5,0.5239272791619825,0.05369634952347054,0.016194441174828256
0275,cdot_cos,P,T-P,10,2,2584,0.03380306707865357,-0.0003700375782699369,0.2930607682142673,0.9999987929448547,665.0,0.0774919725607425,0.5061259717379835,1.6005108538247845,-0.00046329030572260174,0.277,0.9999999999999999,-0.3176907063079692,0.04967141694004941,10,2026-10-07 20:46:18.668243,46.5,0.4268079362344073,0.041831319669224876,0.06815176671309513
0275,cdot_cos,Q,P-Q,11,2,2704,-0.040071993649828774,-0.046217990155546826,-0.07387506072848235,0.031213597974121574,665.0,0.08178848427796573,0.5061647264724408,1.6787584801126612,-0.00012339484609535028,0.12,1.0,8.770424165884556,0.0546385587966536,11,2026-10-07 20:46:18.788243,46.5,0.06363858553611076,0.10362679410741987,0.03580426431019357
0275,cdot_cos,R,Q-R,12,2,2727,0.048969945228637644,0.26263357820605765,0.08904193887846643,0.9843336552914996,665.0,0.10236240314652327,0.5073868325334309,1.7576395464355101,-0.0006830941891467706,0.023,1.0000000000000002,-0.45797935295239367,0.05960570027391195,12,2026-10-07 20:46:18.811244,46.5,0.4407140801978688,0.6048182484084786,0.8945182116764149
0275,cdot_cos,S,R-S,13,2,2781,0.01506878612330614,-0.023854244168557595,-0.03390115910533151,0.1713053807970429,665.0,0.10961012370475574,0.5075995092721496,1.8301760584403977,-0.0002769907277132096,0.054,1.0,1.909486970131987,0.06457284198024871,13,2026-10-07 20:46:18.865243,46.5,0.23081781595211587,0.10542504448158332,0.13421704737467544
0275,cdot_cos,T,S-T,14,2,2967,-0.2109463842123258,-0.09295873926484416,-0.22601517033563195,2.7269745582517088e-05,665.0,0.11374830795053427,0.5075995431274982,1.899263580468839,-0.00016664657318455256,0.186,1.0,3259.2827714221785,0.06953998451378654,14,2026-10-07 20:46:19.051244,46.5,0.5157440024276201,0.07356958629989482,0.02224830239665874
0275,cdot_cos,P,T-P,15,3,3249,0.024910003221745473,0.001448743263698933,0.23585638743407128,0.99998274380368,699.0,0.13697800980831662,0.508840970805934,1.9707326063980777,-0.0010500072711585,0.282,1.0000000000000002,-0.7115683928418329,0.07450712788276696,15,2026-10-07 20:46:19.333244,46.5,0.43115394271746665,0.05016665763642789,0.08237482928291615
0275,cdot_cos,Q,P-Q,16,3,3375,-0.050756766389983145,-0.060173729665091415,-0.07566676961172862,0.028790274725670865,699.0,0.1420423028574796,0.508876710925305,2.0355068446122746,-0.00025474302244957083,0.126,1.0,22.251303652786785,0.07947427017670426,16,2026-10-07 20:46:19.459244,46.5,0.044076462563320234,0.11794855922955276,0.04019280197748394
0275,cdot_cos,R,Q-R,17,3,3398,0.049367828125115136,0.24054916869967952,0.10012459451509828,0.9905831544084652,699.0,0.16670104673416392,0.5101063587136881,2.1032223983427443,-0.0013723839940022612,0.023,1.0,-0.9089114640072872,0.08444141159652431,17,2026-10-07 20:46:19.482244,46.5,0.44291420561332356,0.8253374021221975,1.0721192989862747
0275,cdot_cos,S,R-S,18,3,3457,0.04083652997111135,-0.06174841784851289,-0.008531298154003789,0.4021041682898897,699.0,0.18000782335510068,0.5106054715493034,2.166315549733295,-0.0008316238507105641,0.059,0.9999999999999999,1.083442670083109,0.08940855350753542,18,2026-10-07 20:46:19.541243,46.5,0.5219173310980746,0.15459221953643823,0.22553858679553843
0275,cdot_cos,T,S-T,19,3,3648,-0.15439552537252269,-0.0516635752217098,-0.19523205534363403,0.00011410349352317486,699.0,0.18494292863946363,0.510605613177605,2.225678269030591,-0.000324653281544164,0.191,1.0000000000000002,3579.585176753114,0.09437569707887727,19,2026-10-07 20:46:19.732243,46.5,0.20980528916543126,0.08363436328922073,0.02583824756210966
0275,cdot_cos,P,T-P,20,4,3948,0.026116661428110248,-0.0008207815593360671,0.18051218680063294,0.9997737891259451,698.0,0.211956150131583,0.5118464911776067,2.2890470982843563,-0.0019324005815102299,0.3,0.9999999999999999,-1.2956529972840483,0.09934284235409063,20,2026-10-07 20:46:20.032243,46.5,0.43518030764276794,0.05475399867567501,0.09004407164039793
0275,cdot_cos,Q,P-Q,21,4,4060,-0.05132121469372153,-0.04793853724117809,-0.07743787612183178,0.026574705520538023,698.0,0.21779532784486863,0.5118794726820047,2.345726432667492,-0.00045228105959365777,0.112,0.9999999999999998,44.877259207310146,0.10430998506234411,21,2026-10-07 20:46:20.144243,46.5,0.03790903565961566,0.1527004917279254,0.05213551529719309
0275,cdot_cos,R,Q-R,22,4,4084,0.0777419280398132,0.23661913851078542,0.12906314273353472,0.9975309165590918,698.0,0.2461610602786383,0.5131174173514803,2.406734023685871,-0.002371683321433486,0.024,0.9999999999999994,-1.550475000351133,0.10927712641814107,22,2026-10-07 20:46:20.168243,46.5,0.44516977300889077,0.7374574574499261,1.181905518073736
0275,cdot_cos,S,R-S,23,4,4134,0.01967284075960153,-0.04633320878107338,-0.058069087280211665,0.06296081462944889,698.0,0.2531932858024651,0.5131955470383049,2.4611993848292384,-0.0006328249435708891,0.05,1.0,22.25605206591354,0.11424426835227071,23,2026-10-07 20:46:20.218244,46.5,0.06407047991848737,0.12478760730576216,0.1406445104765358
0275,cdot_cos,T,S-T,24,4,4327,-0.1999080545297165,-0.041583457994315086,-0.219580895289318,3.6780291551318214e-05,698.0,0.2586398210092145,0.5131955926797224,2.51413468347369,-0.0005023780454421213,0.193,1.0,2858.0816612045833,0.11921141306338519,24,2026-10-07 20:46:20.411244,46.5,0.7713146863118961,0.0922668688517633,0.028220389672276816
0275,cdot_cos,P,T-P,25,5,4646,0.02962841898708479,-0.0005669426781161822,0.2295364735168013,0.9999768489210099,700.0,0.2888082971792457,0.5144364005595797,2.5721820063509213,-0.002975902496656032,0.319,0.9999999999999997,-1.9934789997451117,0.12417856069733263,25,2026-10-07 20:46:20.730243,46.5,0.43553302988685594,0.05800054187384331,0.0945720256113831
0275,cdot_cos,Q,P-Q,26,5,4760,-0.036538600037942404,-0.03606024761039304,-0.0661670190250272,0.04407585719755436,700.0,0.29564416672472654,0.5144910875143694,2.623400099571955,-0.000719884074111453,0.114,1.0,41.253319575379905,0.12914570402021278,26,2026-10-07 20:46:20.844243,46.5,0.04354921949645786,0.16730500924629002,0.059963767942814224
0275,cdot_cos,R,Q-R,27,5,4784,0.07677846079848323,0.25306315672193097,0.11331706083642563,0.9948788570368385,700.0,0.32695383928739985,0.515725384919291,2.679787713501531,-0.0035118908356660383,0.024,0.9999999999999993,-2.26202109023479,0.13411284526279915,27,2026-10-07 20:46:20.868243,46.5,0.45157434953590875,0.7961226403057919,1.3045696901113877
0275,cdot_cos,S,R-S,28,5,4838,0.00507457304155892,-0.014639851524731047,-0.07170388775692431,0.03441536017948897,700.0,0.33385805345940456,0.5157680790227828,2.729188147783679,-0.000821948342189093,0.054,0.9999999999999996,63.00501178095509,0.13907998743329775,28,2026-10-07 20:46:20.922244,46.5,0.037906154602032845,0.11864799129473921,0.1278558180000872
0275,cdot_cos,T,S-T,29,5,5026,-0.23882387968340985,-0.1304704608272618,-0.24389845272496877,1.1872450518979079e-05,700.0,0.3397678223472317,0.5157680937511558,2.7774961925390578,-0.0007172023043284235,0.188,0.9999999999999993,7111.853924068189,0.14404713334364028,29,2026-10-07 20:46:21.110244,46.5,0.8641161333819461,0.1035217738564559,0.03143494089269749
0275,cdot_cos,P,T-P,30,6,5346,0.02049223207436551,0.0016163554360643516,0.25931611175777536,0.9999942032027634,718.0,0.372782240429432,0.5170085372439922,2.831772389095412,-0.004237412481897744,0.32,0.9999999999999993,-2.837864197683127,0.14901428352090046,30,2026-10-07 20:46:21.430244,46.5,0.43572445337952914,0.06501027326160516,0.10317005650687591
0275,cdot_cos,Q,P-Q,31,6,5473,-0.02982947859390776,-0.035441993952779687,-0.05032171066827327,0.0878671570165676,718.0,0.381374397234659,0.5171175223240501,2.8791885202855454,-0.0011671831135577914,0.127,0.9999999999999994,28.17109797699016,0.15398142798336972,31,2026-10-07 20:46:21.557244,46.5,0.07204525973299056,0.16643885355911703,0.06765477799391349
0275,cdot_cos,R,Q-R,32,6,5496,0.05567461567616637,0.2504996096643458,0.08550409427007413,0.9815838669935415,718.0,0.4150577092334477,0.5183349061913299,2.932145025542133,-0.0048312968344804,0.023,0.9999999999999991,-3.0098260864173527,0.15894856905667656,32,2026-10-07 20:46:21.580243,46.5,0.4684096493555471,0.9166979075206204,1.4644918260342918
0275,cdot_cos,S,R-S,33,6,5554,0.000642019014523773,-0.002388496962687294,-0.0550325966616426,0.07182312956723313,718.0,0.42354250098060753,0.5184239745900924,2.978119008319204,-0.0012814174474356569,0.058,0.9999999999999993,39.855655163544085,0.16391571157330898,33,2026-10-07 20:46:21.638243,46.5,0.06264474241080528,0.12805842523258176,0.14628951288206596
0275,cdot_cos,T,S-T,34,6,5744,-0.23249209556797945,-0.041848479657262,-0.23313411458250322,1.9584817424601786e-05,718.0,0.4299124865604272,0.5184239988772111,3.0229054077293473,-0.000979069557294966,0.19,0.999999999999999,12448.899069558125,0.16888285914852308,34,2026-10-07 20:46:21.828243,46.5,0.7343192124855505,0.11061110686531127,0.03352623989378768
0275,cdot_cos,P,T-P,35,7,6064,0.02312891142825705,-0.001036327729907485,0.2556210069962365,0.9999931165027148,660.0,0.4655747215894258,0.5196639736340193,3.0743735389514537,-0.005750164357158358,0.32,0.9999999999999989,-3.847735426602386,0.1738500123844467,35,2026-10-07 20:46:22.148243,46.5,0.4361662066191109,0.06760556193206999,0.11144448446562069
0275,cdot_cos,Q,P-Q,36,7,6175,-0.049115139186310636,-0.04960153980568241,-0.07224405061456768,0.033590370637060114,660.0,0.473180046196952,0.519705621013058,3.1182337390622115,-0.0012855215821624803,0.111,0.999999999999999,107.20105029540272,0.17881715712619248,36,2026-10-07 20:46:22.259244,46.5,0.03102318427152569,0.19904244480984723,0.06851643790564113
0275,cdot_cos,R,Q-R,37,7,6199,0.06364384196810718,0.24419836269619782,0.11275898115441782,0.9947449278882731,660.0,0.5097621443372119,0.5209388394788395,3.1687472671562595,-0.006473197096380356,0.024,0.999999999999999,-4.206615176598403,0.18378429809622804,37,2026-10-07 20:46:22.283243,46.5,0.44869650626933305,0.9631920920057425,1.5242540891774967
0275,cdot_cos,S,R-S,38,7,6255,0.014335627841118474,-0.030434065124974128,-0.049308214126988714,0.09171835770817564,660.0,0.5194132666132276,0.5210525331668614,3.211983545572201,-0.0017880561591645406,0.056,0.9999999999999986,41.20845245438408,0.18875144079392683,38,2026-10-07 20:46:22.339243,46.5,0.0727852022713588,0.14680023819602492,0.17234146921456647
0275,cdot_cos,T,S-T,39,7,6444,-0.22301192233129044,-0.08783530252988764,-0.2373475501724089,1.6100227053463902e-05,660.0,0.5262037710151667,0.5210525531244435,3.253972165560109,-0.0012781700009422297,0.189,0.9999999999999988,25548.4935290591,0.193718590176305,39,2026-10-07 20:46:22.528243,46.5,0.6710451275035116,0.11880587698512991,0.03592859471925433
0275,cdot_cos,P,T-P,40,8,6724,0.022018525305166594,0.0010162694680022908,0.24503044763645704,0.9999887363189953,720.0,0.5643218881136067,0.5222919909018527,3.3032646058790993,-0.007481484153239966,0.28,0.9999999999999986,-5.004941970757522,0.19868574479411982,40,2026-10-07 20:46:22.808243,46.5,0.43641766106751,0.08231374617971814,0.1361361324944287
0275,cdot_cos,Q,P-Q,41,8,6849,-0.05243768764484209,-0.05406432548808598,-0.07445621295000869,0.03040669481657272,720.0,0.5722994688758088,0.5223296743101261,3.3445418163577076,-0.0016319412753508901,0.125,0.9999999999999981,155.22860446842313,0.20365289132063602,41,2026-10-07 20:46:22.933243,46.5,0.02775310084687932,0.18756211763905029,0.06382064609761695
0275,cdot_cos,R,Q-R,42,8,6871,0.05513141632046584,0.20749325522422882,0.10756910396530793,0.9933201888004698,720.0,0.6112124175233693,0.5235605665473906,3.3930602917815182,-0.008286782430366508,0.022,0.9999999999999983,-5.406518096015711,0.2086200320512063,42,2026-10-07 20:46:22.955244,46.5,0.44795300230271906,1.1687243630737427,1.7687703930709298
0275,cdot_cos,S,R-S,43,8,6930,0.01979275668708487,-0.041060622932633975,-0.03533865963338097,0.16202363546466383,720.0,0.6237233408510535,0.5237613145706638,3.4345326418085573,-0.0027799460039715494,0.059,0.9999999999999986,27.431584812673034,0.21358717527885182,43,2026-10-07 20:46:23.014244,46.5,0.13794297722340118,0.16714471701123612,0.2120495479268512
0275,cdot_cos,T,S-T,44,8,7123,-0.19933088539696323,-0.03752556050618173,-0.2191236420840481,3.757066762846628e-05,720.0,0.6309354941306952,0.5237613611200044,3.474239849720376,-0.00162814554590176,0.193,0.9999999999999982,24743.647130474394,0.21855432711706316,44,2026-10-07 20:46:23.207244,46.5,0.49290890772157064,0.12347425106240309,0.03736866984270281
0275,cdot_cos,P,T-P,45,9,7444,0.021795838807880195,0.00014622307789891143,0.22112672420484342,0.9999657706435194,741.0,0.6713844017611411,0.5250001508822911,3.521808099840234,-0.009475931570753913,0.321,0.9999999999999978,-6.335042687441558,0.223521488041592,45,2026-10-07 20:46:23.528243,46.5,0.43684320297839535,0.07867483938583802,0.12600905803877244
0275,cdot_cos,Q,P-Q,46,9,7561,-0.031197075769438493,-0.028807446799650777,-0.05299291457731869,0.07840844212770129,741.0,0.6814447410164032,0.525097272973634,3.561383005943863,-0.0024481867664002785,0.117,0.9999999999999983,72.35989986610451,0.22848863530372152,46,2026-10-07 20:46:23.645243,46.5,0.05666538328879943,0.21911630387254272,0.08598580560053044
0275,cdot_cos,R,Q-R,47,9,7584,0.07837934053231299,0.21678649244979023,0.10957641630175148,0.993911844531567,741.0,0.7226576168673161,0.5263282335330542,3.608324604447231,-0.010406636828371974,0.023,0.999999999999998,-6.465235625193102,0.23345577590012936,47,2026-10-07 20:46:23.668243,46.5,0.46545141739844975,1.0830221980998347,1.7918641674309972
0275,cdot_cos,S,R-S,48,9,7636,0.00198576899076276,-0.009634771375535249,-0.07639357154155023,0.027860183682428666,741.0,0.7312637621289956,0.5263627338506768,3.646748021935001,-0.002250220814941083,0.052,0.9999999999999977,236.41567891258816,0.23842291894299872,48,2026-10-07 20:46:23.720243,46.5,0.02665661200174423,0.15562042392526831,0.16550279349383587
0275,cdot_cos,T,S-T,49,9,7824,-0.24790666183052407,-0.0051860025745831505,-0.24989243082128682,8.984523987081176e-06,741.0,0.738842140955544,0.5263627449765115,3.684539244412736,-0.0020035513342708455,0.188,0.9999999999999972,22170.87412911721,0.24339007274550986,49,2026-10-07 20:46:23.908243,46.5,0.8841609815707978,0.1335169433211377,0.04031052567312999
0275,cdot_cos,P,T-P,50,10,8185,0.019264781125221352,0.001863793328443593,0.2671714429557454,0.9999959769736713,816.0,0.7814661328177434,0.5276009085625791,3.7307018346138396,-0.011650509292340908,0.361,0.9999999999999976,-7.79134362100595,0.24835724135876797,50,2026-10-07 20:46:24.269243,46.5,0.4369096470432411,0.07472303660787386,0.11807199961828073
0275,cdot_cos,Q,P-Q,51,10,8314,-0.02796853936419414,-0.02673446087317002,-0.04723332048941549,0.10007879329018056,816.0,0.7927921733864289,0.5277248045426735,3.7687089602456485,-0.0032055406867487583,0.129,0.9999999999999972,68.16176440238706,0.25332439087254516,51,2026-10-07 20:46:24.398243,46.5,0.07175547210063984,0.21168014791921438,0.08779876409833783
0275,cdot_cos,R,Q-R,52,10,8337,0.07731610475870768,0.19878117800941975,0.10528464412290181,0.992577107927407,816.0,0.8360796109809007,0.5289534121325835,3.814337340309279,-0.01267285911832018,0.023,0.9999999999999969,-7.70573005516309,0.25829153117772663,52,2026-10-07 20:46:24.421243,46.5,0.4737598848106874,1.137644413361826,1.8820625041074668
0275,cdot_cos,S,R-S,53,10,8392,0.001695393591802387,-0.009230285201414369,-0.07562071116690529,0.028850220613774437,816.0,0.8451238164010729,0.5289891176355935,3.8510989474610287,-0.002732831827186955,0.055,0.9999999999999968,278.3892244381462,0.2632586747187392,53,2026-10-07 20:46:24.476243,46.5,0.026324302748840414,0.15437959037040755,0.16444009854858652
0275,cdot_cos,T,S-T,54,10,8583,-0.20998142671121722,0.03662507917256697,-0.2116768203030196,5.311637685713659e-05,816.0,0.8530613659216455,0.5289891833730133,3.887260777801462,-0.0024226669272443446,0.191,0.9999999999999966,4718.239645195636,0.2682258312903892,54,2026-10-07 20:46:24.667244,46.5,0.879830305722624,0.13779290824566937,0.04155785089305012
0275,cdot_cos,P,T-P,55,11,9001,0.03270126298382238,0.0005186628072859635,0.2426826896950396,0.9999874370384667,780.0,0.8977607073509186,0.530226598235663,3.932265741109628,-0.014061693068982088,0.418,0.9999999999999963,-9.405920757097318,0.2731930110711833,55,2026-10-07 20:46:25.085243,46.5,0.43704829429214975,0.06896301540332644,0.10693622351500746
0275,cdot_cos,Q,P-Q,56,11,9115,-0.00819584345499046,-0.010370965159157959,-0.040897106438812836,0.12991444252125764,780.0,0.9107144467988264,0.5303873313709433,3.9690554068650985,-0.004209060743228382,0.114,0.9999999999999959,61.29807838670715,0.2781601604668737,56,2026-10-07 20:46:25.199244,46.5,0.09624916771381219,0.2556646370953472,0.11362929340269988
0275,cdot_cos,R,Q-R,57,11,9138,0.0986754885133436,0.21689608876885963,0.10687133196833405,0.9931014181918578,780.0,0.9560522446086578,0.5316158085921378,4.013611394638511,-0.0152018037904737,0.023,0.9999999999999958,-8.948267707037331,0.28312730039409595,57,2026-10-07 20:46:25.222244,46.5,0.4852354866719778,1.175398444805725,1.9712086004274514
0275,cdot_cos,S,R-S,58,11,9190,-1.3402327845184922e-05,-0.0004005814794655218,-0.09868889084118879,0.010060435671272091,780.0,0.9647827752598898,0.5316282515248472,4.0487601969775495,-0.0030121319502208334,0.052,0.9999999999999956,979.6462076045236,0.2880944438253233,58,2026-10-07 20:46:25.274244,46.5,0.017477192774893673,0.16357778182906751,0.16789482021599947
0275,cdot_cos,T,S-T,59,11,9383,-0.3313120572570549,-0.04089609272221246,-0.33129865492920973,2.0395067569234259e-07,780.0,0.9730643339188808,0.5316282517770967,4.083514143208688,-0.00288253691751517,0.193,0.9999999999999952,513757.23109870503,0.29306160336376075,59,2026-10-07 20:46:25.467244,46.5,0.9560369918139013,0.1424055561142813,0.04290963035746658
0275,cdot_cos,P,T-P,60,12,9781,0.019839039820106805,-0.00031782877129148763,0.35115109707716174,0.9999999189764589,761.0,1.0197513199200023,0.5328648713797701,4.127553607668675,-0.016705794107343887,0.398,0.9999999999999949,-11.178261415187574,0.2980287878226701,60,2026-10-07 20:46:25.865243,46.5,0.4371613786108685,0.07216429696186692,0.11730398492744103
0275,cdot_cos,Q,P-Q,61,12,9895,-0.03967756359595152,-0.033921427356807934,-0.05951660341605833,0.05910466454552878,761.0,1.0305071143005269,0.5329379488856046,4.162378515433725,-0.003959559465937613,0.114,0.9999999999999942,174.42076731887636,0.302995938564697,61,2026-10-07 20:46:25.979244,46.5,0.039990864679762754,0.25511662052587303,0.09434907351337317
0275,cdot_cos,R,Q-R,62,12,9919,0.08600356543584615,0.20228348448685854,0.12568112903179768,0.9971116360467684,761.0,1.0779179093999014,0.5341705706078141,4.206063354644871,-0.017942659794565823,0.024,0.9999999999999939,-11.344194310938452,0.3079630782516617,62,2026-10-07 20:46:26.003244,46.5,0.4587171508581956,1.1856157985699936,1.9754497958072714
0275,cdot_cos,S,R-S,63,12,9973,0.003714586013510576,-0.016621547224970324,-0.08228897942233558,0.02132253702247025,761.0,1.0874166726318866,0.5341969248613296,4.2400567186930935,-0.0036918185924154395,0.054,0.9999999999999937,540.7415995969264,0.31293022216104616,63,2026-10-07 20:46:26.057244,46.5,0.021065594666358267,0.16756014789217252,0.17590302281454026
0275,cdot_cos,T,S-T,64,12,10163,-0.21652265212621072,0.013729797828784163,-0.2202372381397213,3.56747554741315e-05,761.0,1.096014405372256,0.5341969689544945,4.27357582850112,-0.003369548420478362,0.19,0.9999999999999932,7308.846454760644,0.3178973842548033,64,2026-10-07 20:46:26.247243,46.5,0.9087893524428032,0.1504547340764229,0.04525122494931293
0275,cdot_cos,P,T-P,65,13,10542,0.017502242968223072,0.0008047123982123466,0.2340248950944338,0.9999812098246454,797.0,1.1445894715809273,0.5354327099340245,4.316796596713905,-0.019528844785042472,0.379,0.9999999999999931,-13.076604751515864,0.3228645731612193,65,2026-10-07 20:46:26.626244,46.5,0.4371591892213007,0.0808829348303535,0.12816640160599274
0275,cdot_cos,Q,P-Q,66,13,10665,-0.030180262543591435,-0.02836384835324601,-0.04768250551181451,0.09821328824056623,797.0,1.157323669973664,0.5355540551888237,4.350861806127307,-0.005259489279805358,0.123,0.9999999999999925,117.59302437368488,0.327831726709104,66,2026-10-07 20:46:26.749243,46.5,0.0663329411809171,0.25166338016012874,0.10353006823363176
0275,cdot_cos,R,Q-R,67,13,10686,0.08219692485394577,0.19356114750119477,0.1123771873975372,0.994651302826232,797.0,1.206498663100319,0.5367827349773047,4.3937561452012055,-0.02084908299796429,0.021,0.9999999999999925,-12.68808510102756,0.33279886561685873,67,2026-10-07 20:46:26.770243,46.5,0.4734375701465116,1.408524159098957,2.341666339364522
0275,cdot_cos,S,R-S,68,13,10745,0.003164804010253053,-0.018462118422032537,-0.07903212084369271,0.024722853630659552,797.0,1.2164816846558202,0.5368132691703423,4.426675717646048,-0.004338461975802061,0.059,0.9999999999999921,540.7256383620232,0.3377660106319188,68,2026-10-07 20:46:26.829243,46.5,0.02224497332929248,0.1601848408330728,0.16920375517798708
0275,cdot_cos,T,S-T,69,13,10939,-0.18443456259036442,0.028180018951436264,-0.18759936660061746,0.00016271127099369703,797.0,1.2254004743186215,0.5368134701275147,4.45910768003119,-0.003906200154463998,0.194,0.9999999999999913,2151.0146479935715,0.3427331765744372,69,2026-10-07 20:46:27.023244,46.5,0.8952426874159257,0.15289127725800214,0.045973142591759546
0275,cdot_cos,P,T-P,70,14,11339,0.021689661222352493,0.00148627481551465,0.20612422381271692,0.9999312370291723,741.0,1.275803500231925,0.5380482106523649,4.501634407831502,-0.022603105231384146,0.4,0.9999999999999913,-15.142375827657272,0.34770037621961936,70,2026-10-07 20:46:27.423244,46.5,0.43727935571907633,0.07884314832448142,0.1260075647832587
0275,cdot_cos,Q,P-Q,71,14,11464,-0.029193974309805262,-0.03341219041070093,-0.05088363553215776,0.08579539634167942,741.0,1.2884749929782067,0.538154131467959,4.53456743331719,-0.005825607942495809,0.125,0.99999999999999,158.39660216719696,0.35266753186587463,71,2026-10-07 20:46:27.548243,46.5,0.05613720640257202,0.253382657933896,0.10137194197025323
0275,cdot_cos,R,Q-R,72,14,11485,0.06524765323757567,0.21496830236190523,0.09444162754738093,0.9877697312501922,741.0,1.339149164715399,0.5393733563777361,4.576734819404065,-0.02386343682015917,0.021,0.9999999999999901,-14.794504880121728,0.3576346702884849,72,2026-10-07 20:46:27.569243,46.5,0.46959848110944513,1.4969006019665263,2.4130557970091595
0275,cdot_cos,S,R-S,73,14,11544,0.009285548405890668,-0.023644016083663774,-0.055962104831685004,0.0689945333335516,741.0,1.3513448182608008,0.5394585003477725,4.609135572218131,-0.005880421515209842,0.059,0.9999999999999888,211.20715063263867,0.36260181571274275,73,2026-10-07 20:46:27.628243,46.5,0.04697608149048555,0.18153879953079932,0.20670599229494496
0275,cdot_cos,T,S-T,74,14,11739,-0.20968057304844473,-0.025195906549569665,-0.2189661214543354,3.7846861716978165e-05,741.0,1.3605707430600333,0.5394585470527553,4.640598016444941,-0.004483915522961669,0.195,0.9999999999999886,29900.578255660086,0.36756898539086114,74,2026-10-07 20:46:27.823244,46.5,0.7323857800654947,0.15744478073698107,0.047312434867859306
0275,cdot_cos,P,T-P,75,15,12080,0.012644054987326632,0.0009294867116691343,0.22232462803577135,0.9999676251146439,717.0,1.4127482827482234,0.5406923144158222,4.68253293371338,-0.025922798170132676,0.341,0.9999999999999885,-17.376762661218482,0.3725361826714121,75,2026-10-07 20:46:28.164243,46.5,0.4373471065489648,0.09424958495327852,0.15301331286859252
0275,cdot_cos,Q,P-Q,76,15,12207,-0.045533663694856445,-0.05126964996838028,-0.05817771868218308,0.06266345788241559,717.0,1.4248489599981693,0.5407696126006754,4.714320335380207,-0.006151030363642825,0.127,0.9999999999999876,255.785667464967,0.37750334080817805,76,2026-10-07 20:46:28.291244,46.5,0.0401801148722451,0.2539869741153719,0.09528092322792048
0275,cdot_cos,R,Q-R,77,15,12229,0.04953808185971332,0.2139398873321297,0.09507174555456976,0.9881186891006045,717.0,1.4772609741735279,0.5419882395523855,4.755927654797749,-0.027236778777356255,0.022,0.9999999999999873,-17.30287384841015,0.38247047905255305,77,2026-10-07 20:46:28.313244,46.5,0.46108883970805464,1.5073020468263745,2.3823642806981167
0275,cdot_cos,S,R-S,78,15,12288,0.0020713451760252712,-0.007859865490987704,-0.047466736683688046,0.09910549674559482,717.0,1.4911702500585298,0.5421104369014759,4.787789896282142,-0.007393065740481609,0.059,0.9999999999999866,162.3906998358966,0.3874376250560134,78,2026-10-07 20:46:28.372243,46.5,0.06828275663706924,0.1986249276271807,0.23575043872884585
0275,cdot_cos,T,S-T,79,15,12481,-0.2735914623372529,-0.05967439516949763,-0.27566280751327815,2.7106468540652595e-06,717.0,1.5006987156335352,0.5421104402436416,4.818383145084432,-0.005104563304012929,0.193,0.9999999999999858,684736.364515964,0.3924047983000789,79,2026-10-07 20:46:28.565243,46.5,0.6386971872098024,0.16431122304456197,0.049370287953395944
0275,cdot_cos,P,T-P,80,16,12797,0.01861137378840002,0.0011463695626157055,0.2922028361256529,0.9999987438174222,701.0,1.5545943821537307,0.543343155519599,4.859809089116079,-0.029472395672474484,0.316,0.9999999999999859,-19.767608014378478,0.39737199807394913,80,2026-10-07 20:46:28.881243,46.5,0.4374460533531071,0.10270721374315017,0.17055590670947945
0275,cdot_cos,Q,P-Q,81,16,12921,-0.05634159656917982,-0.06182657551365794,-0.07495297035757983,0.029733018164249288,701.0,1.565609674719206,0.5433797998611124,4.890418380271194,-0.006151516399338055,0.124,0.9999999999999846,636.4114706388286,0.4023391579231452,81,2026-10-07 20:46:29.005243,46.5,0.022571254036389533,0.26337534382049116,0.08883300456028548
0275,cdot_cos,R,Q-R,82,16,12943,0.050395890810119554,0.21424655640467102,0.10673748737929938,0.993058648052606,701.0,1.6199114674212125,0.5446034189461142,4.931593893326008,-0.03094634259644858,0.022,0.9999999999999842,-20.26351705447141,0.4073062958592235,82,2026-10-07 20:46:29.027244,46.5,0.44878115210152475,1.7872837809625353,2.4682633046366553
0275,cdot_cos,S,R-S,83,16,13002,0.03420806212311813,-0.05505100024913382,-0.016187828687001422,0.3202258605806513,701.0,1.6442501610815576,0.5449978782129465,4.96516715753835,-0.014210903631454608,0.059,0.9999999999999841,42.42627914254791,0.4122734426155503,83,2026-10-07 20:46:29.086244,46.5,0.3080023797557984,0.29005042455328545,0.4125202315312735
0275,cdot_cos,T,S-T,84,16,13178,-0.1434024228229207,-0.043298016899633286,-0.17761048494603884,0.0002588798603932433,701.0,1.6541374175185002,0.544998197082467,4.994991173382351,-0.005833513548865426,0.176,0.9999999999999828,26272.156933158345,0.4172406166270735,84,2026-10-07 20:46:29.262244,46.5,0.2378584220183329,0.1860226478861346,0.05617759339171903
0275,cdot_cos,P,T-P,85,17,13498,0.0240295788064399,-0.0010923009094171163,0.16743200162936062,0.9995844899150816,678.0,1.709730133137477,0.5462291354696224,5.03598399823457,-0.0334358821593484,0.32,0.9999999999999827,-22.423842572876726,0.42220782575710025,85,2026-10-07 20:46:29.582243,46.5,0.43800220243797083,0.10454105709178166,0.1737272363093026
0275,cdot_cos,Q,P-Q,86,17,13609,-0.052323954611810684,-0.05082452163802465,-0.07635353341825059,0.027910652271858686,678.0,1.7210436940572404,0.5462634980054369,5.065839497773785,-0.006939718445268411,0.111,0.999999999999981,771.0770781603921,0.4271749851935211,86,2026-10-07 20:46:29.693243,46.5,0.021970691406048744,0.30390129449891007,0.10192397225012101
0275,cdot_cos,R,Q-R,87,17,13633,0.07017994353358203,0.23386257981568026,0.12250389814539273,0.9966533102840319,678.0,1.777196220516235,0.5474902484022045,5.1066493000066275,-0.03510490181824992,0.024,0.9999999999999816,-22.959180161828876,0.43214212340603186,87,2026-10-07 20:46:29.717243,46.5,0.44829004638181275,1.4648103794258998,2.3396886024581085
0275,cdot_cos,S,R-S,88,17,13688,0.019155122692832136,-0.04199719291041084,-0.0510248208407499,0.0852818626775246,678.0,1.7913545922696836,0.5475951926888288,5.136898469199587,-0.009028936039995916,0.055,0.9999999999999809,248.47437261256633,0.43710926995236055,88,2026-10-07 20:46:29.772243,46.5,0.05568501853437479,0.22098666744620818,0.2574249409717924
0275,cdot_cos,T,S-T,89,17,13877,-0.21811529365794372,-0.06582356776813802,-0.23727041635077584,1.6158076853904666e-05,678.0,1.801504753935318,0.5475952125718805,5.166003131659584,-0.006516952463562034,0.189,0.9999999999999793,126337.92944394313,0.44207645131366463,89,2026-10-07 20:46:29.961244,46.5,0.6801419715142143,0.17821383635193683,0.05370455907743024
0275,cdot_cos,P,T-P,90,18,14176,0.035233898951168026,0.0020794463012382214,0.25334919260911176,0.999992349542491,700.0,1.8587194224107157,0.5488254430848097,5.206615554392719,-0.03740575697991889,0.299,0.9999999999999791,-25.108143711058453,0.447043662875786,90,2026-10-07 20:46:30.260243,46.5,0.43789472459381423,0.11723665648717542,0.19135340627223346
0275,cdot_cos,Q,P-Q,91,18,14300,-0.02602054079757645,-0.03375816127177761,-0.06125443974874448,0.05476763088703582,700.0,1.8716122745146488,0.5488928033139039,5.236103885150417,-0.008590299108932933,0.124,0.999999999999978,427.78147073565947,0.4520108281159869,91,2026-10-07 20:46:30.384243,46.5,0.03492967740420402,0.2817956387980472,0.10397461374139592
0275,cdot_cos,R,Q-R,92,18,14323,0.058775950641734416,0.2627805103886795,0.08479649143931087,0.9809795491566031,700.0,1.9286047408326314,0.5500990314881519,5.276364820656952,-0.03866590655666962,0.023,0.9999999999999778,-24.933597216370135,0.45697796578157174,92,2026-10-07 20:46:30.407244,46.5,0.4594005807209685,1.5373238775878513,2.477933318173157
0275,cdot_cos,S,R-S,93,18,14382,0.002577079313271898,-0.007192951037188856,-0.05619887132846252,0.06829068384277522,700.0,1.94232917288369,0.5501829810473629,5.305772792513827,-0.009484134745940285,0.059,0.9999999999999766,347.61078062827465,0.46194511412751393,93,2026-10-07 20:46:30.466244,46.5,0.04610176858250808,0.2045712003540995,0.23261749239082297
0275,cdot_cos,T,S-T,94,18,14558,-0.2587825804484023,-0.1482220116946732,-0.2613596597616742,5.271321592665465e-06,700.0,1.9527441424744152,0.5501829875272745,5.334222244991428,-0.0072420450189802765,0.176,0.9999999999999755,346006.2208929626,0.4669122962653258,94,2026-10-07 20:46:30.642244,46.5,0.733745197225571,0.19655695013012536,0.059175963583665836
0275,cdot_cos,P,T-P,95,19,14876,0.01646338317892436,0.0010436045751549502,0.2752459636273267,0.9999972362996576,720.0,2.011517219329494,0.5514119517348756,5.374499177350378,-0.04157278500873581,0.318,0.9999999999999755,-27.93469474328143,0.471879521288097,95,2026-10-07 20:46:30.960243,46.5,0.4378852384803405,0.11153327366990029,0.18482099639961927
0275,cdot_cos,Q,P-Q,96,19,15001,-0.056220371002789524,-0.05973211701670633,-0.07268375418171388,0.03293293679621638,720.0,2.023679304528472,0.5514524146544232,5.403108442068958,-0.008756566305953157,0.125,0.9999999999999738,811.0195475182898,0.4768466894622564,96,2026-10-07 20:46:31.085243,46.5,0.02357395790040182,0.2855387331559367,0.09729668159182125
0275,cdot_cos,R,Q-R,97,19,15023,0.060828295909944,0.22905553217775487,0.11704866691273352,0.9956911368694538,720.0,2.0829019026184783,0.5526754425301562,5.443222161501539,-0.04337158746751554,0.022,0.9999999999999738,-28.302724613546243,0.4818138264532399,97,2026-10-07 20:46:31.107244,46.5,0.4501818689790925,1.8074414611105394,2.691936276818478
0275,cdot_cos,S,R-S,98,19,15082,0.030357043406171402,-0.06169855416583967,-0.030471252503772597,0.19514594608331642,720.0,2.1032067288173355,0.5529150700919646,5.473580254440763,-0.015156634209591919,0.059,0.9999999999999724,117.74502500878364,0.4867809756059959,98,2026-10-07 20:46:31.166244,46.5,0.15543028543304624,0.2627950021918778,0.34414959659080013
0275,cdot_cos,T,S-T,99,19,15275,-0.19245545145248097,-0.04041031245596898,-0.22281249485865237,3.164872608844589e-05,720.0,2.11391171287712,0.5529151089527187,5.5014361933870735,-0.008049980308578663,0.193,0.9999999999999715,182874.8327992108,0.4917481678370616,99,2026-10-07 20:46:31.359244,46.5,0.41361639836648373,0.18399973175331544,0.0554662386517325
0275,cdot_cos,P,T-P,100,20,15596,0.024562270199287254,-0.001164588780636502,0.21701772165176822,0.9999585642073323,739.0,2.1742306252741153,0.5541426102746244,5.541426440111917,-0.04609828282446825,0.321,0.9999999999999711,-30.996547080550677,0.4967154031235549,100,2026-10-07 20:46:31.680243,46.5,0.4380713282222823,0.11461568529732163,0.18790938441431584
0275,cdot_cos,Q,P-Q,101,20,15706,-0.03945672148515058,-0.03304811851627878,-0.06401899168443784,0.04848121095887792,739.0,2.1874949828380004,0.5542021068330097,5.569662607915005,-0.010310869441076434,0.11,0.9999999999999692,601.5039248424118,0.501682569236026,101,2026-10-07 20:46:31.790244,46.5,0.031090796911105098,0.33702068400308344,0.12058506876259191
0275,cdot_cos,R,Q-R,102,20,15730,0.0969694311016916,0.22850790633055873,0.13642615258684218,0.9982455013543475,739.0,2.2483751757547936,0.5554268146415331,5.609536231181164,-0.048102703978285866,0.024,0.9999999999999691,-30.85783749739918,0.5066497065266558,102,2026-10-07 20:46:31.814244,46.5,0.4558238400119828,1.5102514296961949,2.5366747048663854
0275,cdot_cos,S,R-S,103,20,15787,0.0025551887303694757,-0.012227981571938407,-0.09441424237132212,0.012245661987775195,739.0,2.2599870514634177,0.5554418342096558,5.637119320430623,-0.009324657786758807,0.057,0.9999999999999674,2581.834968544115,0.5116168557770914,103,2026-10-07 20:46:31.871244,46.5,0.01562854499587433,0.197868517336606,0.2037171176951596
0275,cdot_cos,T,S-T,104,20,15975,-0.2347917347673706,0.004286315974735642,-0.2373469234977401,1.6100696219353014e-05,739.0,2.2709321867311667,0.5554418539574397,5.6644180822113395,-0.008833222543188588,0.188,0.9999999999999656,24885.589414756243,0.5165840511866653,104,2026-10-07 20:46:32.059244,46.5,0.9458844376679775,0.1934436338029274,0.058218804615686084
0275,cdot_cos,P,T-P,105,21,16335,0.026498082639188934,-0.0009830591290384675,0.26128981740655954,0.9999947115311583,721.0,2.3327218577733184,0.5566680246666815,5.7041502368515244,-0.050639386052575994,0.36,0.9999999999999658,-34.09489657050939,0.5215513095786729,105,2026-10-07 20:46:32.419244,46.5,0.43798695138025695,0.10596989812755896,0.17163797511708812
0275,cdot_cos,Q,P-Q,106,21,16445,-0.030139035055372843,-0.027564274976558462,-0.05663711769456178,0.06700541419693608,721.0,2.347230513383009,0.5567501606702062,5.732094164793123,-0.01208709914445285,0.11,0.9999999999999639,469.37135061038015,0.5265184779472172,106,2026-10-07 20:46:32.529243,46.5,0.04119081196090075,0.3490729286327563,0.1318968691790066
0275,cdot_cos,R,Q-R,107,21,16469,0.09695333903422362,0.24761994555460268,0.12709237408959648,0.9972945971887751,721.0,2.409517902072525,0.5579722866538368,5.771710651310721,-0.052712907340932535,0.024,0.9999999999999637,-33.241915105832305,0.5314856147290812,107,2026-10-07 20:46:32.553244,46.5,0.46268933143488145,1.5439739104605628,2.595307862063153
0275,cdot_cos,S,R-S,108,21,16526,0.0010427860239560543,-0.006459669113317497,-0.09591055301026757,0.011432003116192802,721.0,2.421341261085116,0.5579862918619498,5.79876408401745,-0.01016176305890513,0.057,0.9999999999999621,3038.237199952684,0.5364527645793704,108,2026-10-07 20:46:32.610244,46.5,0.015186048736788622,0.2018215231830648,0.20742735109809385
0275,cdot_cos,T,S-T,109,21,16714,-0.2668448802460376,-0.01683614744675892,-0.26788766626999366,3.891248997533657e-06,721.0,2.432525555715394,0.5579862966290561,5.825548408260062,-0.009658290531775325,0.188,0.9999999999999603,105613.86701101229,0.5414199649265004,109,2026-10-07 20:46:32.798244,46.5,0.9492068535729931,0.19790682711864135,0.05949092888445764
0275,cdot_cos,P,T-P,110,22,17056,0.013489467393165977,0.00126444443843532,0.28033434763920356,0.9999978186123493,758.0,2.4957542280817253,0.5592110224995119,5.865055146107262,-0.05540645993239378,0.342,0.9999999999999601,-37.3538034136492,0.5463872269801813,110,2026-10-07 20:46:33.140243,46.5,0.43793580114885117,0.1153385033325841,0.18487915896588045
0275,cdot_cos,Q,P-Q,111,22,17186,-0.03816952668758646,-0.04121691019601569,-0.05165899408075244,0.08300941082676713,758.0,2.5114170919948817,0.5593126543202867,5.892724963578932,-0.013944193197875716,0.13,0.9999999999999583,407.9654031430351,0.5513544058500679,111,2026-10-07 20:46:33.270243,46.5,0.05112696547521542,0.3038377076814006,0.12048356856274162
0275,cdot_cos,R,Q-R,112,22,17210,0.06089795458189126,0.21927585031366656,0.09906748126947773,0.9901133872934508,758.0,2.5747520320788895,0.5605245051134616,5.932034287735832,-0.057241099046991255,0.024,0.9999999999999578,-35.72791806793306,0.5563215421061526,112,2026-10-07 20:46:33.294244,46.5,0.4693552042151636,1.6523045428029997,2.6389558368336563
0275,cdot_cos,S,R-S,113,22,17266,0.009892937013580018,-0.027000370416152917,-0.051005017568311245,0.08535372475008832,758.0,2.5907277100494257,0.5606289403681028,5.9595678940821255,-0.014662953627731045,0.056,0.9999999999999558,407.6989668435068,0.5612886922054656,113,2026-10-07 20:46:33.350244,46.5,0.05481504942611668,0.24479117955917523,0.2852799637595755
0275,cdot_cos,T,S-T,114,22,17455,-0.20208826769907376,-0.01803604267618621,-0.21198120471265378,5.236990883722645e-05,758.0,2.602168644189517,0.56062900444409,5.985880266577682,-0.010556565096025629,0.189,0.999999999999954,64086.23124273352,0.566255898388566,114,2026-10-07 20:46:33.539244,46.5,0.6777416717445056,0.2013078555434824,0.06053404306926665
0275,cdot_cos,P,T-P,115,23,17814,0.02470383233579952,0.0026611539828281278,0.22679210003487327,0.9999736978258302,780.0,2.666822079444862,0.561852128195801,6.0251933638019155,-0.06049316542154879,0.359,0.9999999999999538,-40.82710376253381,0.5712231787941586,115,2026-10-07 20:46:33.898243,46.5,0.43801960610049123,0.11311392618073567,0.18009313441600264
0275,cdot_cos,Q,P-Q,116,23,17942,-0.024194080171333072,-0.0261543661733287,-0.04889791250713259,0.09332018594731302,780.0,2.6833844431872853,0.5619662352274355,6.052562164313262,-0.015734582195362105,0.128,0.9999999999999517,392.2508769621955,0.5761903601003736,116,2026-10-07 20:46:34.026243,46.5,0.05815755942316242,0.31735424777445953,0.1293934667376817
0275,cdot_cos,R,Q-R,117,23,17966,0.07262580900952569,0.220999196271975,0.09681988918085876,0.9890361224689417,780.0,2.7480647668751237,0.5631751715825978,6.0916714671696255,-0.062342362438174856,0.024,0.9999999999999509,-38.55271623174599,0.5811574957888087,117,2026-10-07 20:46:34.050244,46.5,0.47349680839347685,1.6309056253746013,2.695013486993266
0275,cdot_cos,S,R-S,118,23,18024,0.0012473606318259933,-0.005996923521335666,-0.07137844837769969,0.034921800294134345,780.0,2.761667913205266,0.563217844193311,6.118112403385707,-0.013300125322882604,0.058,0.9999999999999487,1149.2673238315558,0.5861246474298334,118,2026-10-07 20:46:34.108243,46.5,0.025038227945768748,0.2179407064342892,0.2345370056921117
0275,cdot_cos,T,S-T,119,23,18214,-0.24180867244005697,0.00417596685754715,-0.24305603307188295,1.234674756461363e-05,780.0,2.7733458888215012,0.5632178592802244,6.143982083297402,-0.011470229450339249,0.19,0.9999999999999466,121290.27494331112,0.5910918595527659,119,2026-10-07 20:46:34.298244,46.5,0.8525406618423583,0.20452221300651532,0.061463029559131944
0275,cdot_cos,P,T-P,120,24,18594,0.021259568374907736,0.0024689455825062973,0.2630682408149647,0.9999951312730744,799.0,2.839386354147742,0.5644394014550131,6.183124472131943,-0.06573473106191524,0.38,0.9999999999999468,-44.42294562687526,0.5960591615893088,120,2026-10-07 20:46:34.678244,46.5,0.43801272386234014,0.10877303369013024,0.17379069822694934
0275,cdot_cos,Q,P-Q,121,24,18724,-0.028965658707018466,-0.03080741479740003,-0.0502252270819262,0.08822739880972445,799.0,2.856013394426,0.5645471381496546,6.210019190934133,-0.016792875149987837,0.13,0.9999999999999435,454.2728554536885,0.6010263470361851,121,2026-10-07 20:46:34.808243,46.5,0.05423430058539746,0.31830078440533427,0.12790030983275563
0275,cdot_cos,R,Q-R,122,24,18748,0.07143204536833951,0.20597767364450031,0.10039770407535797,0.9907008833100196,799.0,2.922144558093129,0.5657564871321683,6.248985334834779,-0.06771782292601927,0.024,0.9999999999999438,-42.10938985550877,0.6059934820214812,122,2026-10-07 20:46:34.832243,46.5,0.47141479324998514,1.6807090658453965,2.7554651527970284
0275,cdot_cos,S,R-S,123,24,18805,0.006731226276860549,-0.02360101893971698,-0.06470081909147896,0.047039396571288215,799.0,2.9366874295865792,0.5658138887963728,6.275180276850867,-0.015099246739422837,0.057,0.9999999999999406,916.6733563525728,0.6109606337845881,123,2026-10-07 20:46:34.889244,46.5,0.030658425494300267,0.232090553141576,0.2551380963763219
0275,cdot_cos,T,S-T,124,24,18995,-0.2148788227604787,0.01147032041903609,-0.22161004903733925,3.346867104225296e-05,799.0,2.9486028811512686,0.5658139296371999,6.300637959952386,-0.012427176337019882,0.19,0.9999999999999388,65426.45179289561,0.6159278515993718,124,2026-10-07 20:46:35.079243,46.5,0.8065266758911803,0.20872193849400708,0.06271290297204904
0275,cdot_cos,P,T-P,125,25,19393,0.01627379926539471,1.026833694707927e-05,0.23115262202587342,0.9999785249422193,820.0,3.016001766214302,0.5670337724985957,6.339631022729905,-0.07119374740862897,0.398,0.9999999999999382,-48.175525661041014,0.6208951758258558,125,2026-10-07 20:46:35.477243,46.5,0.43803972445557615,0.10503985382408955,0.16934393231917932
0275,cdot_cos,Q,P-Q,126,25,19509,-0.037804702407274765,-0.029977755636170913,-0.05407850167266948,0.07483749818103275,820.0,3.032214604795244,0.5671250319631376,6.365963471056804,-0.017364896792762187,0.116,0.999999999999935,589.8440330114296,0.6258623573988855,126,2026-10-07 20:46:35.593244,46.5,0.04505524599581077,0.36243233150126386,0.13976584983570614
0275,cdot_cos,R,Q-R,127,25,19532,0.09536284271499106,0.18639126902905928,0.1331675451222658,0.9979590377599319,820.0,3.100086067122595,0.5683415405191985,6.404884672931732,-0.07365544077900704,0.023,0.9999999999999353,-46.272213792325964,0.6308294911339339,127,2026-10-07 20:46:35.616243,46.5,0.4656870241803929,1.755738716983448,2.9509331446674483
0275,cdot_cos,S,R-S,128,25,19583,0.0016715737478095974,-0.018461778202520564,-0.09369126896718145,0.012659037990312141,820.0,3.1129785857764825,0.5683569665796174,6.430225834243986,-0.01417536033235322,0.051,0.9999999999999318,3855.817936098113,0.6357966402769887,128,2026-10-07 20:46:35.667244,46.5,0.015055394089178475,0.24554537074646138,0.25279448340955485
0275,cdot_cos,T,S-T,129,25,19773,-0.1730739514533666,0.047989478059230394,-0.1747455252011762,0.00029575985740769816,820.0,3.125131694938734,0.5683573269853106,6.455299131471209,-0.013416240248454564,0.19,0.9999999999999294,2106.2932641385946,0.6407638638815071,129,2026-10-07 20:46:35.857243,46.5,0.9449888247120621,0.21283031006867728,0.06396373243290401
0275,cdot_cos,P,T-P,130,26,20213,0.05583952437582915,0.007279576596625861,0.22891347582919574,0.9999761684555523,801.0,3.19385410360258,0.5695754571460162,6.494160213516354,-0.07679599557999842,0.44,0.9999999999999286,-52.03036372962907,0.6457312250139694,130,2026-10-07 20:46:36.297244,46.5,0.43810342656714324,0.09558711396702017,0.15618729241783091
0275,cdot_cos,Q,P-Q,131,26,20323,-0.005270398065610358,-0.0060105925132922025,-0.06110992244143951,0.05511655828009687,801.0,3.209248355229712,0.5696425735445853,6.519858151209219,-0.017431120824581266,0.11,0.9999999999999252,884.5062610793481,0.6506984059869629,131,2026-10-07 20:46:36.407244,46.5,0.03318414206146237,0.1305429086307304,0.13994774206483773
0275,cdot_cos,R,Q-R,132,26,20347,-0.0897873803167706,0.3810383099167437,-0.08451698225116024,0.01926448302919426,801.0,3.2225735435013405,0.5696660316395868,6.544965320839058,-0.015155764833974478,0.024,0.9999999999999217,96.99662272030973,0.6556655391389443,132,2026-10-07 20:46:36.431243,46.5,0.8605948982966897,0.5340202517202797,0.5552161779845225
0275,cdot_cos,S,R-S,133,26,20400,-0.22166796526360572,0.3750829963495222,-0.13188058494683513,0.002166556783827515,801.0,3.2348813273122854,0.5696686698063063,6.569740501550783,-0.014054360301745544,0.053,0.9999999999999186,417.4886007481132,0.660632688637216,133,2026-10-07 20:46:36.484244,46.5,0.9246246006699516,0.2307126089252465,0.23222233605556383
0275,cdot_cos,T,S-T,134,26,20593,-0.4093740056282742,0.002671302253834299,-0.18770604036466848,0.0001619062981809931,801.0,3.2470290800474166,0.5696688669557493,6.594394806927677,-0.013924152239989843,0.193,0.9999999999999151,660.4536121375799,0.665599916040461,134,2026-10-07 20:46:36.677243,46.5,0.9906923488415327,0.2123162936021693,0.06294172401622407
0275,cdot_cos,P,T-P,135,27,21014,0.024329748305809095,0.0028850550942969956,0.4337037539340833,0.9999999982562442,774.0,3.3168354166427227,0.5708861193287331,6.633098241746856,-0.08096941974515635,0.421,0.9999999999999147,-55.079184065024656,0.6705672738302636,135,2026-10-07 20:46:37.098243,46.5,0.4369082928259131,0.10344411054280774,0.16581077576082212
0275,cdot_cos,Q,P-Q,136,27,21143,-0.026263871711150872,-0.03045505622766975,-0.05059362001695997,0.0868590681745477,774.0,3.3341290211244607,0.5709918084917293,6.658852547801566,-0.02032404497477655,0.129,0.9999999999999105,573.8088281822869,0.6755344663910882,136,2026-10-07 20:46:37.227243,46.5,0.05059399001184646,0.3367922533023645,0.1340589494708372
0275,cdot_cos,R,Q-R,137,27,21166,0.066286566148661,0.2104197343979043,0.09255043785981187,0.9866604856588491,774.0,3.403727817994733,0.5721919094689487,6.697335622710379,-0.08280541580788697,0.023,0.99999999999991,-52.06342801076222,0.6805015979283772,137,2026-10-07 20:46:37.250243,46.5,0.47021907602887075,1.8409919968038564,3.026034646533567
0275,cdot_cos,S,R-S,138,27,21221,0.001106449357259764,-0.0057738909947308015,-0.06518011679140125,0.04605035432140195,774.0,3.418814652977438,0.5722479010903146,6.722391761054611,-0.018174617725890373,0.055,0.9999999999999066,1154.2940980329654,0.6854687490463716,138,2026-10-07 20:46:37.305243,46.5,0.028549889875043127,0.24956239708051003,0.27430609059464284
0275,cdot_cos,T,S-T,139,27,21412,-0.2565382777407139,-0.0016791437286948765,-0.2576447270979737,6.265287534094977e-06,774.0,3.431179681673589,0.5722479087080152,6.746704380632354,-0.01495568260734612,0.191,0.999999999999903,422559.9423514134,0.6904359815499147,139,2026-10-07 20:46:37.496243,46.5,0.8063546871961729,0.2184745180092875,0.06473837013691491
0275,cdot_cos,P,T-P,140,28,21788,0.021345949883383286,0.000810901365459773,0.2778842276240972,0.9999975553755088,722.0,3.502271918856986,0.5734633251609937,6.785310637925312,-0.08697175239309297,0.376,0.9999999999999024,-59.252176165020224,0.6954033279560176,140,2026-10-07 20:46:37.872243,46.5,0.43690488183488285,0.11597973556931891,0.18907509889201352
0275,cdot_cos,Q,P-Q,141,28,21906,-0.037191814904665624,-0.03924873066541272,-0.05853776478804891,0.061687249332238445,722.0,3.5183964428217167,0.5735382721497432,6.810390779553845,-0.01997341676425186,0.118,0.9999999999998984,893.9429955328984,0.7003705175299807,141,2026-10-07 20:46:37.990243,46.5,0.034931185239254654,0.37013945675764304,0.13664850817568425
0275,cdot_cos,R,Q-R,142,28,21931,0.06924863739776956,0.2254599797422941,0.10644045230243518,0.992962787385401,722.0,3.5896248306517897,0.57474420632077,6.848868811029933,-0.08926294206804218,0.025,0.9999999999998975,-57.45713735335584,0.7053376497094885,142,2026-10-07 20:46:38.015244,46.5,0.46013255743184334,1.7260912496038205,2.8491355132029206
0275,cdot_cos,S,R-S,143,28,21979,0.0016722740508455173,-0.008570938707961249,-0.06757636334692403,0.04139571849539928,722.0,3.6047010053019077,0.5747944614188313,6.873543198176014,-0.019122175070484852,0.048,0.9999999999998934,1395.6945604195455,0.710304797106296,143,2026-10-07 20:46:38.063244,46.5,0.025526634407925464,0.28810848763499247,0.3140869718774586
0275,cdot_cos,T,S-T,144,28,22170,-0.25786974243130373,-0.03969251296131145,-0.25954201648214925,5.73622343306445e-06,722.0,3.617283245464749,0.5747944683825958,6.897534781068125,-0.016020296016347125,0.191,0.9999999999998902,445431.35041221505,0.7152720362070573,144,2026-10-07 20:46:38.254244,46.5,0.8239694447348548,0.2223370740578608,0.0658756029468129
0275,cdot_cos,P,T-P,145,29,22510,0.014556021640270927,0.0005432665081044309,0.27242576407157465,0.9999968490330383,714.0,3.6896337675920106,0.5760080093526411,6.9360561169151165,-0.09313363218745746,0.34,0.9999999999998901,-63.54407315002858,0.7202393737967254,145,2026-10-07 20:46:38.594244,46.5,0.43692840928874016,0.12863912471747785,0.21279565331547518
0275,cdot_cos,Q,P-Q,146,29,22628,-0.053583983372400036,-0.05343345180939049,-0.06814000501267096,0.04036808726418864,714.0,3.704757850272634,0.5760569786938339,6.96052421585362,-0.019701031357199878,0.118,0.9999999999998852,1499.5627680824377,0.7252065670001808,146,2026-10-07 20:46:38.712243,46.5,0.024056548059218537,0.3720735961906459,0.12817019220867268
0275,cdot_cos,R,Q-R,147,29,22653,0.06865428921299532,0.23258647308138466,0.12223827258539535,0.996611857930893,714.0,3.777443136293003,0.5772654633691933,6.9989730622094815,-0.09573344749053714,0.025,0.9999999999998849,-62.91549879250733,0.7301736987910715,147,2026-10-07 20:46:38.737243,46.5,0.4519383384224088,1.8041020766259308,2.907411440814762
0275,cdot_cos,S,R-S,148,29,22701,0.015439308970795672,-0.03599889033829188,-0.05321498024219965,0.0776655165787343,714.0,3.7949629541039305,0.5773596014034291,7.023883978827944,-0.023352071782951195,0.048,0.9999999999998809,768.8855657027883,0.735140846836212,148,2026-10-07 20:46:38.785243,46.5,0.045068588193153424,0.31583828611916426,0.3649962043943226
0275,cdot_cos,T,S-T,149,29,22890,-0.21394616236788316,-0.04086324245201798,-0.22938547133867884,2.3314204878303424e-05,714.0,3.8077636117604428,0.577359629661632,7.047573714798179,-0.017130245590978053,0.189,0.9999999999998768,220177.7026113339,0.7401080915952971,149,2026-10-07 20:46:38.974244,46.5,0.6954424180984015,0.22854736589587812,0.06772834738895388
0275,cdot_cos,P,T-P,150,30,23224,0.021698015346810068,0.0008557320502594251,0.23564417771469323,0.9999825726838873,743.0,3.8813538584125724,0.5785711999653533,7.086022419703406,-0.09952273349757687,0.334,0.9999999999998768,-68.00471062515436,0.7450754387741456,150,2026-10-07 20:46:39.308243,46.5,0.43697641562953526,0.13519301989236504,0.22033007979679536
0275,cdot_cos,Q,P-Q,151,30,23343,-0.03661643996670202,-0.035831242064606444,-0.058314455313512085,0.062291031610501445,743.0,3.8980725490485426,0.578646640111288,7.110530346228396,-0.02287464019493532,0.119,0.9999999999998718,1016.0119967033564,0.7500426365469417,151,2026-10-07 20:46:39.427244,46.5,0.03505668260703719,0.3804884943066955,0.14049319862159834
0275,cdot_cos,R,Q-R,152,30,23368,0.07856000223101801,0.23620600542659262,0.11517644219772002,0.995301042458478,743.0,3.971910120057566,0.5798515405979863,7.148891323007948,-0.10212105308514445,0.025,0.9999999999998715,-65.77008953441636,0.7550097679796341,152,2026-10-07 20:46:39.452243,46.5,0.46024116361142525,1.7750944691450599,2.953502840360933
0275,cdot_cos,S,R-S,153,30,23419,0.0041618947765907,-0.016328599392161552,-0.07439810745442732,0.030486453890474784,743.0,3.9868272725057956,0.5798884322228984,7.172825182400482,-0.02086333481214769,0.051,0.9999999999998676,2202.6061054906545,0.7599769189063594,153,2026-10-07 20:46:39.503244,46.5,0.020348221963115202,0.27377607062155557,0.2924931852594052
0275,cdot_cos,T,S-T,154,30,23609,-0.25450059858173124,-0.01687281118208556,-0.2586624933583219,5.975684435310572e-06,743.0,3.9998352792609646,0.5798884394539802,7.1962277029535215,-0.018257012615966024,0.19,0.9999999999998629,360433.23700038734,0.7649441714346839,154,2026-10-07 20:46:39.693243,46.5,0.8669644381119638,0.23108908455266672,0.0684631934482579
0275,cdot_cos,P,T-P,155,31,23967,0.020095879117072574,3.8536093904334136e-05,0.2745964776988038,0.9999971515599416,741.0,4.074641124635809,0.5810980378089502,7.234613684015449,-0.1060611236388289,0.358,0.999999999999863,-72.58947621918537,0.7699115500985644,155,2026-10-07 20:46:40.051244,46.5,0.4369819922029553,0.13068441032701983,0.20895487534872728
0275,cdot_cos,Q,P-Q,156,31,24082,-0.029417657270528932,-0.027374716853530868,-0.0495135363876015,0.0909260882870009,741.0,4.093405317055111,0.5812079740622684,7.259286804764262,-0.026910550168290637,0.115,0.999999999999858,719.9679003196619,0.7748787486690935,156,2026-10-07 20:46:40.166244,46.5,0.05279984916529071,0.40813714280077623,0.1631668906026246
0275,cdot_cos,R,Q-R,157,31,24107,0.09096935238444766,0.24572295426632887,0.12038700965497659,0.9963083965763765,741.0,4.1685126674799875,0.5824120528535814,7.297603662517231,-0.10886446514005493,0.025,0.9999999999998581,-68.06358152226564,0.7798458795928765,157,2026-10-07 20:46:40.191243,46.5,0.47104255015476704,1.7852397426424815,3.0042940169950683
0275,cdot_cos,S,R-S,158,31,24158,0.00011451007508702179,-0.0021176734997803903,-0.09085484230936064,0.01441806730295274,741.0,4.182667304187235,0.5824294704943356,7.321026480859966,-0.020737876955746498,0.051,0.9999999999998535,5059.616823442746,0.7848130312437259,158,2026-10-07 20:46:40.242244,46.5,0.014270693368082978,0.26833588622864357,0.2775418962205367
0275,cdot_cos,T,S-T,159,31,24348,-0.271987635755958,-0.011682125127281631,-0.27210214583104503,3.198741905835012e-06,741.0,4.195882927875309,0.5824294743585297,7.344157795424031,-0.01942559212513063,0.19,0.9999999999998483,339601.1703510627,0.7897802910096103,159,2026-10-07 20:46:40.432243,46.5,0.9346768434625173,0.23478824195788744,0.06955591414775933
0275,cdot_cos,P,T-P,160,32,24708,0.01767154293524959,0.0010675549579307233,0.2896591786912076,0.9999985860922359,780.0,4.271886836131232,0.5836370113079534,7.38249073725046,-0.11281436941150261,0.36,0.9999999999998485,-77.33823576242244,0.794747686474326,160,2026-10-07 20:46:40.792243,46.5,0.43700561326862775,0.133112312951215,0.21112196737756378
0275,cdot_cos,Q,P-Q,161,32,24831,-0.028813725444049813,-0.02784443906035437,-0.04648526837929941,0.10325545410215273,780.0,4.291723793200184,0.583761639369215,7.407106518666051,-0.0297751632587487,0.123,0.999999999999843,666.296220226622,0.7997148951945771,161,2026-10-07 20:46:40.915244,46.5,0.061490356372911115,0.3904249974235037,0.16127607373131572
0275,cdot_cos,R,Q-R,162,32,24854,0.08464918754383323,0.22462975361764465,0.11346291298788304,0.9949132956805815,780.0,4.367931385497414,0.5849619366068521,7.445351655565392,-0.11557366475732739,0.023,0.9999999999998431,-71.48104553458587,0.8046820239051032,162,2026-10-07 20:46:40.938244,46.5,0.47598416498805285,1.9758974246314696,3.3133735781404376
0275,cdot_cos,S,R-S,163,32,24913,0.00015907480744225126,-0.001340377132114894,-0.08449011273639098,0.01928810319371735,780.0,4.3826150747332315,0.5849851965182232,7.468592740987828,-0.02250211623367819,0.059,0.9999999999998382,4001.3715890310414,0.809649182859166,163,2026-10-07 20:46:40.997243,46.5,0.015984684318803698,0.2381940856147869,0.24887608874267006
0275,cdot_cos,T,S-T,164,32,25106,-0.27962900548032704,-0.017071103270051135,-0.2797880802877693,2.23750764310269e-06,780.0,4.396038287599959,0.5849851992164568,7.491467544227581,-0.020636563809351596,0.193,0.999999999999833,691397.6891532965,0.8146164525244082,164,2026-10-07 20:46:41.190243,46.5,0.9135653735396442,0.2347399088486494,0.06955032573433843
0275,cdot_cos,P,T-P,165,33,25488,0.020888240810945424,0.0017669357145232852,0.30051724629127247,0.9999991466130909,798.0,4.47322467954881,0.5861905971524504,7.529756330088481,-0.11978763280350503,0.382,0.9999999999998331,-82.25588084521061,0.8195838821915722,165,2026-10-07 20:46:41.572243,46.5,0.43704297268443565,0.127788585558053,0.20205861766715014
0275,cdot_cos,Q,P-Q,166,33,25615,-0.02452635436378042,-0.02536361431563327,-0.04541459517472585,0.10795725639329266,798.0,4.493668766966311,0.5863206672583002,7.554215234445803,-0.03207401246498,0.127,0.9999999999998274,674.3564923347452,0.8245510983831907,166,2026-10-07 20:46:41.699244,46.5,0.06491182181406763,0.3843857245367165,0.16097706627953656
0275,cdot_cos,R,Q-R,167,33,25638,0.07908775847908582,0.2097801416454092,0.10361411284286624,0.9919823205238879,798.0,4.570858653581136,0.5875152711816249,7.592372437505878,-0.1223142648563635,0.023,0.999999999999827,-75.53989287113272,0.8295182262142783,167,2026-10-07 20:46:41.722244,46.5,0.478177279334306,2.01362339838429,3.356082026731515
0275,cdot_cos,S,R-S,168,33,25696,0.0024255840931917223,-0.011688817629033791,-0.0766621743858941,0.027523891227877795,798.0,4.586295443291989,0.5875484024608666,7.615499589193778,-0.02471033814017734,0.058,0.9999999999998221,2945.97519173024,0.8344853852337929,168,2026-10-07 20:46:41.780244,46.5,0.019256189308342695,0.2505937257358776,0.2661515467388361
0275,cdot_cos,T,S-T,169,33,25887,-0.21502184757571238,0.019907447693108555,-0.2174474316689041,4.061609304312733e-05,798.0,4.599927525766498,0.5875484513510101,7.638131779698043,-0.021890735582200806,0.191,0.9999999999998159,57672.20868558198,0.839452660827535,169,2026-10-07 20:46:41.971244,46.5,0.8791467331328798,0.24079556906431446,0.07137215955240477
0275,cdot_cos,P,T-P,170,34,26286,0.02040794313858481,-0.0001438384537568108,0.2354297907142972,0.9999823980852687,802.0,4.678279350674557,0.5887516180603345,7.676383889345493,-0.12696791489299736,0.399,0.9999999999998166,-87.33384866491062,0.8444201228810477,170,2026-10-07 20:46:42.370244,46.5,0.4371021119164283,0.12197988195451762,0.19637048849137545
0275,cdot_cos,Q,P-Q,171,34,26400,-0.03188317156378204,-0.026788542580768245,-0.052291114702366845,0.08079925189355426,802.0,4.697267471566203,0.5888487886225084,7.700199158506324,-0.03109055570466845,0.114,0.9999999999998098,986.6914119184592,0.8493873316350458,171,2026-10-07 20:46:42.484244,46.5,0.04578449592887229,0.4284353693648768,0.16656246396180924
0275,cdot_cos,R,Q-R,172,34,26424,0.09688283012376302,0.19722950354031335,0.12876600168754504,0.9974966503071008,802.0,4.775962614889749,0.5900478221021678,7.738406736488268,-0.13008011928123836,0.024,0.9999999999998098,-82.55779780619221,0.854354459464459,172,2026-10-07 20:46:42.508243,46.5,0.467204048487332,1.9436036409630393,3.2789643051477357
0275,cdot_cos,S,R-S,173,34,26478,0.0006045193368379165,-0.010562697365124392,-0.0962783107869251,0.011240348271429735,802.0,4.790560446332429,0.5900613274112655,7.761047132564574,-0.024367055391896764,0.054,0.9999999999998037,7827.519024145452,0.8593216156480831,173,2026-10-07 20:46:42.562243,46.5,0.013057922725220718,0.26318464899396415,0.27033021190148576
0275,cdot_cos,T,S-T,174,34,26666,-0.25315682552827745,0.05005348730139806,-0.25376134486511537,7.505233044298418e-06,802.0,4.804386556981097,0.5900613364287782,7.78344570707495,-0.023147451951182042,0.188,0.9999999999997978,135248.3191707019,0.8642888960741885,174,2026-10-07 20:46:42.750243,46.5,0.9486755231934209,0.24819454718811343,0.07354314174823351
0275,cdot_cos,P,T-P,175,35,27088,0.021455206715763866,0.001693811533035249,0.2746120322440413,0.9999971536194286,817.0,4.88388159607516,0.5912622899751806,7.821667053250614,-0.13426275842933935,0.422,0.9999999999997978,-92.52256826337627,0.8692563979916293,175,2026-10-07 20:46:43.172243,46.5,0.43709885979032076,0.11913911374008536,0.18837686989114397
0275,cdot_cos,Q,P-Q,176,35,27214,-0.023926203158694447,-0.023285667378686918,-0.04538140987445831,0.10810595227332737,817.0,4.904939968977729,0.5913920556223535,7.845704493292651,-0.03593205373619801,0.126,0.9999999999997915,757.7560535886851,0.8742236218350808,176,2026-10-07 20:46:43.298244,46.5,0.06479197913295795,0.39941896487265327,0.16712994367118483
0275,cdot_cos,R,Q-R,177,35,27236,0.08560448296971966,0.20508759568260485,0.1095306861284141,0.9938989636493936,817.0,4.984535175223068,0.5925844894256408,7.883826180849735,-0.13708580598758147,0.022,0.9999999999997912,-84.82965844521186,0.879190746700613,177,2026-10-07 20:46:43.320243,46.5,0.478123408625053,2.1562595654040657,3.617963920242697
0275,cdot_cos,S,R-S,178,35,27295,8.291824752285514e-05,-0.0022726668243764807,-0.08552156472219681,0.018401453445946618,817.0,4.999815389855508,0.5926065564017673,7.906359913283336,-0.026568944524015693,0.059,0.9999999999997846,5008.246749804844,0.8841579083514552,178,2026-10-07 20:46:43.379244,46.5,0.015613402685567717,0.2483672775284539,0.2589866886854163
0275,cdot_cos,T,S-T,179,35,27486,-0.2204178326206741,0.0410974811032259,-0.22050075086819695,3.524030308648597e-05,817.0,5.013842513971426,0.5926065986614907,7.928538256439744,-0.024461687118123236,0.191,0.9999999999997784,49864.439162983064,0.8891251993243584,179,2026-10-07 20:46:43.570244,46.5,0.9174609883286068,0.2477827729662597,0.07344044039747644
0275,cdot_cos,P,T-P,180,36,27905,0.01541990468851694,-0.0002675430497948301,0.23583773730919105,0.9999827288323425,839.0,5.094468409128619,0.5938052114109604,7.966735291887195,-0.1417999203927088,0.419,0.9999999999997781,-97.89503184117991,0.8940927183069557,180,2026-10-07 20:46:43.989243,46.5,0.4371444753246641,0.1183541037996242,0.1924245707808907
0275,cdot_cos,Q,P-Q,181,36,28019,-0.041502415733106535,-0.03008620534657057,-0.05692232042162347,0.0661810813926303,839.0,5.113023252955511,0.5938844990251568,7.989901292939998,-0.03295129002139358,0.114,0.9999999999997704,1372.832711319724,0.8990599343899912,181,2026-10-07 20:46:44.103244,46.5,0.036760946201664355,0.4367335557648153,0.1627617879551919
0275,cdot_cos,R,Q-R,182,36,28042,0.09951093735308351,0.17591801751015354,0.14101335308619006,0.9985820454156417,839.0,5.194043659842997,0.5950802445397726,8.028073953274795,-0.14515048920296852,0.023,0.9999999999997703,-93.8320050630744,0.9040270591507678,182,2026-10-07 20:46:44.126244,46.5,0.4616328814622411,2.085519866643877,3.5226263864124356
0275,cdot_cos,S,R-S,183,36,28096,0.0004239920819682637,-0.0176055334855312,-0.09908694527111525,0.009877756965597588,839.0,5.208957166821129,0.5950920669859014,8.050258813932674,-0.026966426661485732,0.054,0.9999999999997636,9996.58287747016,0.9089942164852922,183,2026-10-07 20:46:44.180243,46.5,0.01249237123397274,0.26979801501513945,0.2761760551505985
0275,cdot_cos,T,S-T,184,36,28286,-0.1853675070541027,0.06359298051167613,-0.185791499136071,0.00017697860576226327,839.0,5.223181845464632,0.5950922788062675,8.07222696852497,-0.025792933977461574,0.19,0.9999999999997565,5540.037089187421,0.9139615142578329,184,2026-10-07 20:46:44.370244,46.5,0.9555227815486911,0.25251588656336127,0.074866729702646
0275,cdot_cos,P,T-P,185,37,28744,0.026932525360616476,0.0009355318357656191,0.21230003241471918,0.9999484007338708,762.0,5.3049132037152065,0.5962885193892589,8.110403326294577,-0.14942062516041232,0.458,0.9999999999997562,-103.34684589432652,0.9189290939840842,185,2026-10-07 20:46:44.828243,46.5,0.4371930743799753,0.11625474547909186,0.1784527472719968
0275,cdot_cos,Q,P-Q,186,37,28864,-0.009686970192304786,-0.01372355196133353,-0.036619495552921266,0.15409906977235,762.0,5.32967119232348,0.596472767087427,8.134806743249596,-0.04571343579080617,0.12,0.9999999999997484,562.8683039228737,0.9238963201269222,186,2026-10-07 20:46:44.948243,46.5,0.10345309616617471,0.44222659461262326,0.2063165717356134
0275,cdot_cos,R,Q-R,187,37,28887,0.08409641037334407,0.22619807234259298,0.09378338056564886,0.9873943850841175,762.0,5.411047586422236,0.5976526919376708,8.172780445590309,-0.15160944261855164,0.023,0.9999999999997481,-89.7480943857299,0.9288634436213338,187,2026-10-07 20:46:44.971244,46.5,0.4973412012833822,2.1122326705366032,3.5381040912502595
0275,cdot_cos,S,R-S,188,37,28935,2.5399582954418376e-06,-0.0002720817406818116,-0.08409387041504864,0.01963974149232991,762.0,5.426833895168164,0.5976761497843902,8.194925294522129,-0.029676401048405215,0.048,0.999999999999741,5197.963949060814,0.9338305949216297,188,2026-10-07 20:46:45.019244,46.5,0.01642822578801888,0.31458646969129145,0.32888143220682897
0275,cdot_cos,T,S-T,189,37,29144,-0.30293275465483915,-0.05538135779024642,-0.3029352946131346,7.626306780179612e-07,762.0,5.4412478875126,0.5976761506952731,8.21669141845051,-0.027172114273655453,0.209,0.9999999999997338,2749295.9929306856,0.9387979215514286,189,2026-10-07 20:46:45.228243,46.5,0.911955709645584,0.2326732081278481,0.06896647054754157
0275,cdot_cos,P,T-P,190,38,29506,0.016359984084014862,0.0015787294123444603,0.319292738738854,0.9999996435645602,720.0,5.524091296165604,0.5988699643321274,8.254855666882499,-0.1574135907025938,0.362,0.9999999999997328,-109.09699169807864,0.9437654188253983,190,2026-10-07 20:46:45.590244,46.5,0.4371915120968116,0.14079508532610244,0.2288491951740451
0275,cdot_cos,Q,P-Q,191,38,29634,-0.04040785513409161,-0.04839581847230192,-0.05676783921810648,0.06662640810806489,720.0,5.543183529288698,0.5989494623747194,8.277649269556997,-0.036612655573610584,0.128,0.9999999999997247,1519.5460314534166,0.9487326584547254,191,2026-10-07 20:46:45.718244,46.5,0.03690415552366883,0.3957304920324811,0.14915807127417052
0275,cdot_cos,R,Q-R,192,38,29658,0.048116503612973864,0.2196231455113303,0.08852435874706548,0.9839581539228368,720.0,5.6253983021259195,0.6001229043053864,8.315549938829939,-0.15894947609183094,0.024,0.9999999999997237,-104.2546864237911,0.9536997821700761,192,2026-10-07 20:46:45.742244,46.5,0.46317119920033073,2.2462745077030943,3.4256155348842223
0275,cdot_cos,S,R-S,193,38,29714,0.012304749954645956,-0.024568062162907734,-0.03581175365832791,0.1590589672622148,720.0,5.651004705658447,0.6003124862828328,8.339810643332019,-0.04997601701019665,0.056,0.999999999999717,574.8091698875467,0.9586669431960542,193,2026-10-07 20:46:45.798244,46.5,0.11298331940459164,0.35919416108279706,0.4572572059379855
0275,cdot_cos,T,S-T,194,38,29906,-0.20926303866365198,-0.051190654013955485,-0.22156778861829793,3.353450310204912e-05,720.0,5.665628048167193,0.6003125262493552,8.361389019478386,-0.028642199215359158,0.192,0.9999999999997093,533792.198062689,0.9636342604181273,194,2026-10-07 20:46:45.990243,46.5,0.4748108912664625,0.256686013264872,0.07616324223305253
0275,cdot_cos,P,T-P,195,39,30226,0.016720799693735397,0.0017261177721426232,0.2259838383573874,0.999972690496246,697.0,5.749572134752158,0.6015037007563262,8.399545197660737,-0.16568405343503442,0.32,0.9999999999997087,-115.04767220728247,0.9686017282366239,195,2026-10-07 20:46:46.310244,46.5,0.43730359290422527,0.15904799689587384,0.2623252705780149
0275,cdot_cos,Q,P-Q,196,39,30355,-0.04902804137485661,-0.06078298068803937,-0.06574884106859201,0.04490245056654147,697.0,5.767418766180552,0.601557160803861,8.42180350619468,-0.035537161310499374,0.129,0.9999999999997001,2434.4701908426096,0.9735689746833971,196,2026-10-07 20:46:46.439244,46.5,0.02567401274116624,0.3922913366418443,0.13834598006507354
0275,cdot_cos,R,Q-R,197,39,30378,0.040940198553963386,0.23182687226810428,0.08996823992882,0.9849842079324206,697.0,5.850783299605753,0.6027292539523732,8.459711510025425,-0.16729138521625614,0.023,0.9999999999996991,-112.4093456846845,0.9785360966832073,197,2026-10-07 20:46:46.462244,46.5,0.4549474898403641,2.5837586425789816,3.624544931530493
0275,cdot_cos,S,R-S,198,39,30437,0.022261593156491108,-0.03651120402189081,-0.018678605397472278,0.2955550339405691,697.0,5.886271663739185,0.603080723887953,8.486101292345344,-0.07192290977463589,0.059,0.9999999999996935,271.3417729010121,0.9835032628352087,198,2026-10-07 20:46:46.521244,46.5,0.26554209937163414,0.42657143856150903,0.6014976971768105
0275,cdot_cos,T,S-T,199,39,30624,-0.21004895652947167,-0.07786857147570797,-0.23231054968596276,2.034936378973411e-05,697.0,5.9011187293560114,0.6030807480834753,8.507504202125816,-0.030219026368721823,0.187,0.9999999999996855,1723619.8822034264,0.9884705842169872,199,2026-10-07 20:46:46.708243,46.5,0.2515650082294782,0.26711223614579677,0.07939607281725267
0275,cdot_cos,P,T-P,200,40,30923,0.018491628035437618,0.0013223813335786186,0.22854058456490928,0.9999757516365857,700.0,5.986171640057713,0.6042691146817522,8.545659157860571,-0.174400154056693,0.299,0.9999999999996851,-121.32714593042293,0.9934380447663977,200,2026-10-07 20:46:47.007244,46.5,0.437479286566339,0.17280879864713017,0.2844578953234172
0275,cdot_cos,Q,P-Q,201,40,31049,-0.0460264807720807,-0.05511602391890683,-0.06451810880751832,0.04742171440789239,700.0,6.004458390946995,0.6043254399749111,8.56779533037996,-0.0378209194867144,0.126,0.9999999999996757,2424.8295376758983,0.998405293891134,201,2026-10-07 20:46:47.133244,46.5,0.027019168282055354,0.4083793542312406,0.14513294356573103
0275,cdot_cos,R,Q-R,202,40,31073,0.047764636917127824,0.2408723834392997,0.09379111768920853,0.9873988623307829,700.0,6.089083237323986,0.6054975952158205,8.605741302678863,-0.17634288390235367,0.024,0.9999999999996753,-118.17714888018382,1.003372416760779,202,2026-10-07 20:46:47.157243,46.5,0.45587973165674317,2.3881617150819565,3.5260352657079386
0275,cdot_cos,S,R-S,203,40,31131,0.019439165591113337,-0.03614009507860392,-0.028325471326014488,0.21129544694852614,700.0,6.119090153270929,0.6057482699870712,8.630587902767068,-0.06310769766631188,0.058,0.9999999999996683,451.7215101905043,1.008339583528595,203,2026-10-07 20:46:47.215244,46.5,0.16624103127589318,0.38845321852014764,0.5173606197748858
0275,cdot_cos,T,S-T,204,40,31323,-0.236464341126652,-0.08117531030233657,-0.25590350671776535,6.793665961912196e-06,700.0,6.134143810672323,0.605748278045985,8.65181951815023,-0.03177628224466526,0.192,0.9999999999996592,3887796.3408431336,1.013306921114684,204,2026-10-07 20:46:47.407244,46.5,0.3730659611191782,0.26351154697386536,0.07840446563225911
0275,cdot_cos,P,T-P,205,41,31623,0.02060418969107616,0.001825654419814944,0.2570685308177281,0.9999935645778602,758.0,6.2202785873088935,0.6069338845561777,8.689974405266582,-0.18312702077506277,0.3,0.9999999999996602,-127.65680453778427,1.0182743998559822,205,2026-10-07 20:46:47.707244,46.5,0.437587079379253,0.17665808644485193,0.28711592212190185
0275,cdot_cos,Q,P-Q,206,41,31752,-0.03637467123931552,-0.0411208607174973,-0.05697886093039169,0.06601878312565365,758.0,6.240138662539234,0.6070121132012274,8.712266595308794,-0.042582829484111316,0.129,0.9999999999996503,1796.5822008251882,1.0232416589213547,206,2026-10-07 20:46:47.836244,46.5,0.03686510911274196,0.410232518087245,0.153954071553028
0275,cdot_cos,R,Q-R,207,41,31775,0.06578884264885908,0.22529858378649062,0.1021635138881746,0.9914276442899416,758.0,6.326118576975403,0.6081862383652931,8.750280031510604,-0.18572214274691123,0.023,0.9999999999996501,-121.91146024598216,1.0282087800152666,207,2026-10-07 20:46:47.859244,46.5,0.4626809563790197,2.301665446041818,3.7382571493986343
0275,cdot_cos,S,R-S,208,41,31831,0.008344384624435732,-0.026105340791539543,-0.05744445802442334,0.06469629869250587,758.0,6.346015273057158,0.6082628133893905,8.77249488169903,-0.04333724536636465,0.056,0.9999999999996416,1859.4169451310067,1.0331759457467202,208,2026-10-07 20:46:47.915244,46.5,0.03742154331089875,0.31369554262137117,0.35529814431705425
0275,cdot_cos,T,S-T,209,41,32022,-0.2426597965727493,-0.019804193191888034,-0.25100418119718504,8.531861780909858e-06,758.0,6.361252477748996,0.6082628234874147,8.793557479934957,-0.033280365578320203,0.191,0.9999999999996325,995925.499308841,1.0381432916199724,209,2026-10-07 20:46:48.106244,46.5,0.7392001335545343,0.2681101399155788,0.07977594079496615
0275,cdot_cos,P,T-P,210,42,32381,0.02255746349463952,0.0006122801278598395,0.2652172600673888,0.999995594280606,802.0,6.448433346504909,0.6094457460356507,8.83171184286874,-0.19174345425625255,0.359,0.9999999999996323,-133.95897213577527,1.0431108661320587,210,2026-10-07 20:46:48.465244,46.5,0.4376075186814947,0.1529595034393614,0.24284364555964508
0275,cdot_cos,Q,P-Q,211,42,32499,-0.024388376950726313,-0.02167835182332418,-0.04694584044536583,0.10128919268920722,802.0,6.471077401218458,0.6095654923469953,8.854454328850665,-0.05022423590762658,0.118,0.9999999999996225,1181.8252834642844,1.0480781157342491,211,2026-10-07 20:46:48.583244,46.5,0.0597403526383843,0.4661847431315708,0.1918987687588891
0275,cdot_cos,R,Q-R,212,42,32523,0.09628411835577935,0.21217490563841904,0.12067249530650567,0.9963569017153627,802.0,6.5584529458839596,0.6107427017447932,8.892552110006179,-0.19523521536352167,0.024,0.9999999999996224,-123.18197571915304,1.0530452373069654,212,2026-10-07 20:46:48.607244,46.5,0.4758035980387141,2.1590604506792066,3.640647694395908
0275,cdot_cos,S,R-S,213,42,32573,-0.00013642736274744886,-0.0019747639513225407,-0.0964205457185268,0.011167078219027652,802.0,6.57471230285106,0.6107558885161121,8.913692883475271,-0.03661904604517925,0.05,0.9999999999996125,12028.431030046993,1.0580123958050636,213,2026-10-07 20:46:48.657243,46.5,0.013147534021564447,0.3167496886767296,0.3251871393420025
0275,cdot_cos,T,S-T,214,42,32780,-0.30160265880765563,-0.013522624632986644,-0.3014662314449082,8.165476407352489e-07,802.0,6.5901279147516325,0.6107558894803357,8.9345925644857,-0.03480251405402193,0.207,0.999999999999603,1883932.3267532995,1.06297977337976,214,2026-10-07 20:46:48.864243,46.5,0.9491433629474317,0.25030940945564206,0.0744715550752311
0275,cdot_cos,P,T-P,215,43,33183,0.014488844619029212,0.0007217964720495504,0.31609150342668485,0.9999995863540089,857.0,6.6783403983656955,0.6119360914068465,8.972748691740996,-0.20049549014878126,0.403,0.9999999999996029,-140.39375158844265,1.0679474295879485,215,2026-10-07 20:46:49.267244,46.5,0.437614246729231,0.14053539322461658,0.21888953750387835
0275,cdot_cos,Q,P-Q,216,43,33309,-0.026249077538437693,-0.022378907399083183,-0.0407379221574669,0.1307534423609951,857.0,6.7033994416906735,0.6120903102357487,8.995858076419113,-0.05743381933892808,0.126,0.9999999999995925,927.6537231427814,1.072914695199535,216,2026-10-07 20:46:49.393243,46.5,0.08283571258254874,0.4502255864511362,0.19888129622998407
0275,cdot_cos,R,Q-R,217,43,33333,0.09397469509704458,0.1965763555390432,0.12022377263548227,0.9962803733891947,857.0,6.791797246151382,0.613264646631475,9.033956873275896,-0.20409245030993461,0.024,0.9999999999995915,-124.88638818036775,1.0778818154895042,217,2026-10-07 20:46:49.417243,46.5,0.4874394497760482,2.187071261076053,3.6832418525295134
0275,cdot_cos,S,R-S,218,43,33390,0.000792085682978328,-0.00893668712465739,-0.09318260941406625,0.012958100990144867,857.0,6.808378862222324,0.6132799119732757,9.05497389847089,-0.03858081475544414,0.057,0.9999999999995811,10842.314421446976,1.0828489845672622,218,2026-10-07 20:46:49.474244,46.5,0.013704946520869609,0.2823088713873074,0.29090554510424943
0275,cdot_cos,T,S-T,219,43,33580,-0.21108235449151627,0.0653884314204427,-0.2118744401744946,5.2630534647986496e-05,857.0,6.823980457489535,0.61327997397443,9.075719353175204,-0.0363864780492852,0.19,0.9999999999995712,35391.868589597594,1.0878163476374794,219,2026-10-07 20:46:49.664243,46.5,0.9414760416692729,0.27588835993465477,0.08211365930110964
0275,cdot_cos,P,T-P,220,44,34040,0.027718578145960782,-0.0002416532832479202,0.23880093263747706,0.9999849518939097,841.0,6.913216438997493,0.6144573366322256,9.113879763050702,-0.20948201386177018,0.46,0.9999999999995705,-147.01972639134132,1.0927841107269889,220,2026-10-07 20:46:50.124243,46.5,0.4376645127059251,0.12574564485244227,0.1939912641477347
0275,cdot_cos,Q,P-Q,221,44,34153,-0.010327521368889077,-0.010551241071774152,-0.03804609951484986,0.14564885955306622,841.0,6.939666450753782,0.6146287094040014,9.137117513845046,-0.062604091749527,0.113,0.9999999999995594,857.0668525125246,1.097751361899145,221,2026-10-07 20:46:50.237243,46.5,0.09573806235576252,0.5129509272717153,0.23407090049813198
0275,cdot_cos,R,Q-R,222,44,34176,0.11523886033109294,0.20498844881804099,0.12556638169998202,0.9970962281380376,841.0,7.0291433485609005,0.6158011434769246,9.175235304191796,-0.2133100458451825,0.023,0.9999999999995585,-128.541090348817,1.102718479172013,222,2026-10-07 20:46:50.260243,46.5,0.49336240051441255,3.095176020991611,3.8902999046573377
0275,cdot_cos,S,R-S,223,44,34229,0.11523886033109294,0.20498844881804099,0.0,0.5,841.0,7.082044547719396,0.616388562476749,9.204649054190627,-0.12732675026161436,0.053,0.999999999999552,146.37472674406533,1.107685643232051,223,2026-10-07 20:46:50.313244,46.5,0.5090055309737527,0.6487028820773618,0.9981358331791573
0275,cdot_cos,T,S-T,224,44,34421,-0.30974923909493557,0.0480780463022267,-0.4249880994260285,2.615144125784705e-09,841.0,7.097905854061101,0.6163885624798205,9.225264205994808,-0.038362272590960186,0.192,0.9999999999995415,28964099507.465405,1.1126530215103412,224,2026-10-07 20:46:50.505243,46.5,0.09836583749644695,0.2765487383086865,0.08261097052971363
0275,cdot_cos,P,T-P,225,45,34881,0.01766358772613157,0.001598439644183929,0.32741282682106715,0.9999997556579359,859.0,7.1882392632299315,0.6175623801796628,9.263440738543348,-0.21986156778339097,0.46,0.9999999999995405,-154.6230689968475,1.1176208183985272,225,2026-10-07 20:46:50.965244,46.5,0.43800881555065674,0.12293810008389862,0.19637697645397953
0275,cdot_cos,Q,P-Q,226,45,35008,-0.03177097593485664,-0.028240853359422165,-0.04943456366098821,0.09123008591377482,859.0,7.211008906138288,0.6176693996788206,9.285612457302594,-0.0558516077116788,0.127,0.9999999999995276,1532.524085445973,1.1225880974025597,226,2026-10-07 20:46:51.092243,46.5,0.05304945491336018,0.4458913018647625,0.17928852683744997
0275,cdot_cos,R,Q-R,227,45,35032,0.08779539515108097,0.1855476021311157,0.11956637108593761,0.9961653544449658,859.0,7.301495653903581,0.6188372291683436,9.323728348475928,-0.22343884173488043,0.024,0.9999999999995262,-143.503170220213,1.127555214853192,227,2026-10-07 20:46:51.116243,46.5,0.4723494232864815,2.2480962047993214,3.77028115688723
0275,cdot_cos,S,R-S,228,45,35089,0.0019031223379080593,-0.01659996291470838,-0.08589227281317291,0.01809265872934099,859.0,7.318917523968655,0.6188584269881422,9.344562698673595,-0.04333876973362565,0.057,0.9999999999995144,8496.160157622833,1.1325223858943743,228,2026-10-07 20:46:51.173243,46.5,0.015675846965889924,0.2935293390073222,0.30564684324691044
0275,cdot_cos,T,S-T,229,45,35281,-0.19558875782156301,0.05557394834656226,-0.19749188015947108,0.00010272293397130848,859.0,7.334957998550416,0.6188585473396553,9.365034574527682,-0.0399937228931212,0.192,0.9999999999995018,27793.97412342921,1.13748977336456,229,2026-10-07 20:46:51.365243,46.5,0.9197629581405317,0.2796004460741917,0.08354413844667101
0275,cdot_cos,P,T-P,230,46,35740,0.026145012805648685,0.0005124551138146075,0.2217337706272117,0.999966723316832,778.0,7.426284095261145,0.6200294275097517,9.403217345019852,-0.22909967618952598,0.459,0.9999999999995002,-161.50752068919303,1.1424575953225813,230,2026-10-07 20:46:51.824243,46.5,0.4380461950285374,0.12654932529161547,0.1989675309601934
0275,cdot_cos,Q,P-Q,231,46,35856,-0.017637720429919866,-0.019171626940702357,-0.043782733235568555,0.11548517624028587,778.0,7.451130279168119,0.6201645616641365,9.425691084121016,-0.06281076255845608,0.116,0.9999999999994871,1230.546891628385,1.147424861397016,231,2026-10-07 20:46:51.940243,46.5,0.0708309717120705,0.5005852083411525,0.21419124057736413
0275,cdot_cos,R,Q-R,232,46,35880,0.09111647684783232,0.2159420674072964,0.10875419727775218,0.9936760684637352,778.0,7.542419863596292,0.6213265329805155,9.463769644982312,-0.23230303510269418,0.024,0.9999999999994847,-145.86614157775313,1.1523919772271671,232,2026-10-07 20:46:51.964243,46.5,0.48209353643815334,2.2626424266330623,3.803732684507214
0275,cdot_cos,S,R-S,233,46,35930,-1.2014886407830863e-05,-0.0002761569332497808,-0.09112849173424015,0.014238359782469798,778.0,7.559737115646506,0.6213431727592347,9.484397754990427,-0.04438536680133248,0.05,0.9999999999994718,11293.279284136435,1.157359137179206,233,2026-10-07 20:46:52.014244,46.5,0.014497554923650974,0.3352267912550655,0.34634504100427677
0275,cdot_cos,T,S-T,234,46,36139,-0.2829539826481386,0.024613086139151544,-0.28294196776173075,1.9322925056094736e-06,778.0,7.575942542721799,0.6213431750174051,9.50472879220021,-0.041627877984747146,0.209,0.9999999999994587,1221116.3435113006,1.1623265626219272,234,2026-10-07 20:46:52.223244,46.5,0.9359049118265261,0.25962045764162794,0.07753792858991727
0275,cdot_cos,P,T-P,235,47,36518,0.018095234389804676,-0.00048217701304150264,0.3010492170379433,0.9999991674640433,719.0,7.668258466940706,0.6225111160575872,9.542920696705862,-0.23854865054051427,0.379,0.9999999999994574,-168.6050629105877,1.1672942771204156,235,2026-10-07 20:46:52.602243,46.5,0.4380180201602722,0.14894610304622502,0.24357763646149808
0275,cdot_cos,Q,P-Q,236,47,36632,-0.042583729887763086,-0.039531224477474945,-0.06067896427756776,0.05616954511937784,719.0,7.688843688830837,0.6225766768014664,9.564210623825089,-0.0535834795577272,0.114,0.9999999999994419,2821.2793211070966,1.1722615446964162,236,2026-10-07 20:46:52.716243,46.5,0.031685165299695325,0.49574383041633097,0.18057212184325253
0275,cdot_cos,R,Q-R,237,47,36655,0.0767266368318846,0.21834573249901937,0.11931036671964769,0.9961196114524974,719.0,7.78128806027563,0.6237385945992916,9.60233990381777,-0.24210912926620168,0.023,0.9999999999994399,-162.2538617287316,1.1772286576413673,237,2026-10-07 20:46:52.739244,46.5,0.4590112926740087,2.418773512477946,4.019320497599682
0275,cdot_cos,S,R-S,238,47,36708,0.003114000278761236,-0.011858380207736427,-0.07361263655312336,0.031584718301779814,719.0,7.800107270404823,0.623775413210378,9.62314467963126,-0.0496395326197704,0.053,0.999999999999426,5227.508343396942,1.1821958233725425,238,2026-10-07 20:46:52.792243,46.5,0.020705724702723076,0.3319722076281946,0.35507943639986517
0275,cdot_cos,T,S-T,239,47,36899,-0.2740192665563274,-0.03821058327614975,-0.27713326683508865,2.5314977373561426e-06,719.0,7.816477114284218,0.6237754161613119,9.643340235131319,-0.04327634338870864,0.191,0.9999999999994118,2156330.625113402,1.1871632286950946,239,2026-10-07 20:46:52.983244,46.5,0.8632627237619698,0.2870581435953247,0.08570598889736007
0275,cdot_cos,P,T-P,240,48,37237,0.014709168934255612,0.0006937535268435073,0.288728435490583,0.9999985235555021,700.0,7.909763481258237,0.6249403828305937,9.681541214676418,-0.2480426571778091,0.338,0.9999999999994106,-175.77010500681618,1.192130893966905,240,2026-10-07 20:46:53.321243,46.5,0.4380033915927761,0.16692987363944914,0.2759951685621842
0275,cdot_cos,Q,P-Q,241,48,37361,-0.05355379965495429,-0.0587110712511131,-0.06826296858920991,0.0401471691906989,700.0,7.929321708864486,0.6249871229197163,9.702415938455006,-0.05237467635749889,0.124,0.9999999999993945,4186.298838826636,1.1970981844303934,241,2026-10-07 20:46:53.445244,46.5,0.023851044836696842,0.4544191279156188,0.157727641985882
0275,cdot_cos,R,Q-R,242,48,37383,0.05198132275966277,0.2231645890117256,0.10553512241461706,0.9926624318997482,700.0,8.02245942498131,0.6261420562892137,9.740491193767728,-0.25087571947271947,0.022,0.9999999999993929,-171.87229008855616,1.202065294675024,242,2026-10-07 20:46:53.467244,46.5,0.4532857392658866,2.8371251925201877,4.233532550764732
0275,cdot_cos,S,R-S,243,48,37442,0.02155855408730264,-0.04160812416582441,-0.030422768672360125,0.19550028998348634,700.0,8.054155217335374,0.6263693462216023,9.764138513987936,-0.08602281632733254,0.059,0.9999999999993802,725.2978669706949,1.2070324724777846,243,2026-10-07 20:46:53.526243,46.5,0.1471377886141203,0.4089248732293822,0.5372168195604097
0275,cdot_cos,T,S-T,244,48,37637,-0.2061757227886106,-0.06298383468892639,-0.22773427687591324,2.5174750002484552e-05,700.0,8.070712560022377,0.6263693754863436,9.784209179941515,-0.04507174003185363,0.195,0.9999999999993662,1399331.5669514793,1.2119998962927288,244,2026-10-07 20:46:53.721244,46.5,0.4030980502064758,0.2841676449011406,0.0849094496769381
0275,cdot_cos,P,T-P,245,49,37937,0.021539128222566453,0.001212537660395341,0.22771485101117706,0.999974802499877,700.0,8.16498059884682,0.6275310786417038,9.822421927196654,-0.2580506508461486,0.3,0.9999999999993644,-183.3333324710404,1.2169675141553085,245,2026-10-07 20:46:54.021244,46.5,0.4380870591731342,0.19298931643861947,0.314226796081473
0275,cdot_cos,Q,P-Q,246,49,38061,-0.036654735111124916,-0.04137922344217303,-0.058193863333691365,0.06261937713516716,700.0,8.186506149885549,0.6276037767865101,9.843587693017685,-0.05933990347137915,0.124,0.9999999999993484,2733.3675144534695,1.2219348113717998,246,2026-10-07 20:46:54.145243,46.5,0.035130459562487504,0.4645203225169993,0.17359315353814334
0275,cdot_cos,R,Q-R,247,49,38083,0.05652058199410998,0.24502480748084426,0.0931753171052349,0.9870375612382555,700.0,8.280181638831035,0.6287489166871377,9.881572035684561,-0.2597296695245138,0.022,0.9999999999993466,-174.99151496102073,1.2269019209386687,247,2026-10-07 20:46:54.167244,46.5,0.4623042492607489,2.671675144801509,4.257976770249366
0275,cdot_cos,S,R-S,248,49,38129,0.007077536705422277,-0.0172484101932181,-0.049443045288687704,0.09119739295950097,700.0,8.304059856256815,0.6288546492116783,9.903220077098371,-0.06667089641844867,0.046,0.999999999999333,1825.9166131224652,1.231869076305459,248,2026-10-07 20:46:54.213243,46.5,0.05526044673163716,0.44134501812015153,0.5190916831691377
0275,cdot_cos,T,S-T,249,49,38337,-0.2624685155328119,-0.07927417871596792,-0.2695460522382342,3.6024548880967706e-06,700.0,8.320785380498089,0.6288546533880525,9.923166232534228,-0.04681404757771335,0.208,0.9999999999993165,4754566.568250662,1.2368365360139872,249,2026-10-07 20:46:54.421243,46.5,0.6543163532465872,0.26912258704019193,0.08041117423689233
0275,cdot_cos,P,T-P,250,50,38637,0.019184687489283144,0.0011336871083075782,0.28165320302209507,0.9999979483700684,760.0,8.416014852465535,0.6300132204409423,9.961390979658683,-0.2679933613605585,0.3,0.9999999999993159,-190.907650300558,1.241804172718431,250,2026-10-07 20:46:54.721244,46.5,0.4380963608339926,0.19181928156136804,0.31743157322482085
0275,cdot_cos,Q,P-Q,251,50,38764,-0.049896351799675276,-0.050350586230143,-0.06908103928895842,0.038706645181376474,760.0,8.43587694943491,0.6300580347884953,9.98200407438021,-0.0562771922021433,0.127,0.9999999999992993,4724.294354795022,1.2467714820372215,251,2026-10-07 20:46:54.848243,46.5,0.023236652890969867,0.45352776635791625,0.15639446432578408
0275,cdot_cos,R,Q-R,252,50,38787,0.06947546212704339,0.2202728443123233,0.11937181392671867,0.9961306402028923,760.0,8.531210905120446,0.6312105766692062,10.020164873887339,-0.27161390316395373,0.023,0.9999999999992977,-186.83634370751756,1.2517385927056552,252,2026-10-07 20:46:54.871244,46.5,0.45257379355733485,2.5492308936055097,4.144954595023311
0275,cdot_cos,S,R-S,253,50,38846,0.01161820663416108,-0.0353721700614324,-0.057857255492882315,0.06354445091426986,760.0,8.553141570540763,0.6312840481683116,10.041195092060184,-0.06290882362875952,0.059,0.9999999999992822,2840.6263935862908,1.2567057742162193,253,2026-10-07 20:46:54.930244,46.5,0.036240413475187194,0.328975928773825,0.37170619356469997
0275,cdot_cos,T,S-T,254,50,39037,-0.2201982536117994,-0.013878832766075369,-0.23181646024596048,2.0822295965215973e-05,760.0,8.570030064715757,0.6312840722425129,10.061020181757517,-0.04855527431909867,0.191,0.9999999999992664,596221.2050698487,1.26167321287577,254,2026-10-07 20:46:55.121243,46.5,0.7440756512341102,0.29596935750502884,0.08842143547117304
0275,cdot_cos,P,T-P,255,51,39397,0.018757370112045164,0.001249310196257072,0.23895562372384457,0.9999850597469929,819.0,8.666201865107684,0.6324394733369262,10.099256273670893,-0.2779599683744536,0.36,0.9999999999992651,-198.54983275037745,1.2666409861258774,255,2026-10-07 20:46:55.481244,46.5,0.43809671365920133,0.16764258024422052,0.26714388997757493
0275,cdot_cos,Q,P-Q,256,51,39523,-0.029705156672335756,-0.026928150394566096,-0.04846252678438092,0.0950473446613927,819.0,8.690732722491596,0.632549213902595,10.120795467676432,-0.07138775459638391,0.126,0.999999999999248,1882.3687714667253,1.2716082996619482,256,2026-10-07 20:46:55.607244,46.5,0.05537292428748553,0.47943417242573144,0.19468934431676038
0275,cdot_cos,R,Q-R,257,51,39546,0.09019723755924047,0.21862007978411108,0.11990239423157623,0.9962245809495573,819.0,8.787019276558969,0.6336986150888174,10.15896974378833,-0.28178435042972205,0.023,0.9999999999992464,-183.04887654137525,1.2765754091426382,257,2026-10-07 20:46:55.630244,46.5,0.47394774791285577,2.4903151784894106,4.186371915972718
0275,cdot_cos,S,R-S,258,51,39603,6.814833453883855e-05,-0.002008749393029303,-0.09012908922470163,0.014905568341500442,819.0,8.805287220702109,0.6337158009814493,10.178991121071919,-0.0538108317223778,0.057,0.9999999999992301,13265.15436762042,1.2815425880066533,258,2026-10-07 20:46:55.687244,46.5,0.014457050843718207,0.3097912646023447,0.3204902481252696
0275,cdot_cos,T,S-T,259,51,39797,-0.279133173289091,0.019805609606677516,-0.2792013216236298,2.299396743427843e-06,819.0,8.822335480723636,0.6337158036325924,10.198698828759571,-0.05031889194624027,0.194,0.9999999999992126,1317144.9699320584,1.286510043459883,259,2026-10-07 20:46:55.881243,46.5,0.932956971389854,0.2942181855720842,0.08787762897694293
0275,cdot_cos,P,T-P,260,52,40216,0.030050314355225566,0.001536311518857654,0.3091834876443166,0.9999994296597623,782.0,8.919443876704078,0.6348680086373215,10.23694733586185,-0.28809227440340285,0.419,0.9999999999992117,-206.36378203639353,1.291477959651158,260,2026-10-07 20:46:56.300243,46.5,0.43808707519861695,0.1502856128466845,0.23176228157623327
0275,cdot_cos,Q,P-Q,261,52,40336,-0.007984098375300078,-0.010866499916891701,-0.038034412730525644,0.14571649511494844,782.0,8.948274824289157,0.635035775494578,10.259325553684848,-0.08612335587574288,0.12,0.9999999999991943,1203.8666148395819,1.2964452666304724,261,2026-10-07 20:46:56.420243,46.5,0.09583646430280246,0.5233012812932314,0.24025789654233226
0275,cdot_cos,R,Q-R,262,52,40360,0.0919141691890929,0.23610328389313134,0.09989826756439298,0.9904844742921309,782.0,9.045036184214453,0.636175273022354,10.297405081239562,-0.29068750488289163,0.024,0.9999999999991921,-179.52136272415444,1.3014123765598216,262,2026-10-07 20:46:56.444243,46.5,0.4947388204338507,3.2142319969793443,4.031723330220653
0275,cdot_cos,S,R-S,263,52,40419,0.0919141691890929,0.23610328389313134,0.0,0.5,782.0,9.102557960144166,0.636749916469728,10.326357034298395,-0.17416878163748867,0.059,0.999999999999183,202.7669919110129,1.306379561016296,263,2026-10-07 20:46:56.503244,46.5,0.5122211059950967,0.6339889017157319,0.9749453547408959
0275,cdot_cos,T,S-T,264,52,40615,-0.3016529517667636,-0.020994472732227626,-0.3935671209558565,1.1272822058946681e-08,782.0,9.11984687461691,0.6367499164826793,10.345970286493696,-0.05256450505746256,0.196,0.9999999999991649,9389344214.863731,1.31134703486554,264,2026-10-07 20:46:56.699244,46.5,0.09892141829683831,0.294400095976375,0.0882087473099158
0275,cdot_cos,P,T-P,265,53,40998,0.020217561407211287,0.0021450085630974206,0.32187051317397486,0.9999996838279086,836.0,9.217962797766905,0.637898031050539,10.384236491651833,-0.29978742585703333,0.383,0.9999999999991632,-215.32948689993927,1.3163149090990205,265,2026-10-07 20:46:57.082243,46.5,0.4383836927799412,0.16400345151538126,0.25617734503915274
0275,cdot_cos,Q,P-Q,266,53,41127,-0.02161324774357906,-0.021459795618504838,-0.04183080915079035,0.12508506643622544,836.0,9.245473518477691,0.6380415327103134,10.406151697818231,-0.0846187539753061,0.129,0.9999999999991447,1499.4159107288883,1.321282243092682,266,2026-10-07 20:46:57.211244,46.5,0.07864578582614692,0.4860727202042909,0.2132614008588103
0275,cdot_cos,R,Q-R,267,53,41151,0.0826860302958233,0.20227364301706224,0.10429927803940237,0.9922317857928644,836.0,9.343369559579612,0.6391789795592048,10.444279891404749,-0.30274438882634047,0.024,0.9999999999991421,-191.76776045722963,1.3262493519676941,267,2026-10-07 20:46:57.235244,46.5,0.4865116682247244,2.43911191138498,4.0790017125800215
0275,cdot_cos,S,R-S,268,53,41204,-2.5968700715550402e-05,-0.001531194174467926,-0.08271199899653886,0.020915899062088083,836.0,9.36255089022417,0.6392029397960294,10.464212422429574,-0.05969034451840363,0.053,0.9999999999991239,10144.05851190678,1.331216524943452,268,2026-10-07 20:46:57.288243,46.5,0.017044706576578854,0.3456038477811298,0.3619118989539342
0275,cdot_cos,T,S-T,269,53,41395,-0.235557588066374,0.050600765321845896,-0.23553161936565845,1.7518767564468288e-05,836.0,9.380003567444412,0.6392029598643872,10.483717374031317,-0.05441731690983861,0.191,0.9999999999991046,262753.3176454829,1.3361839992751685,269,2026-10-07 20:46:57.479244,46.5,0.9076469397372929,0.3049475508507805,0.0913752734044044
0275,cdot_cos,P,T-P,270,54,41834,0.018891725380260578,-0.00016549818142358273,0.2544493134466346,0.9999927310619082,777.0,9.479040854649169,0.6403476924510897,10.521995771054304,-0.31028544940413366,0.439,0.9999999999991028,-223.5178202023209,1.341152022201836,270,2026-10-07 20:46:57.918243,46.5,0.4384007830861817,0.13970518342222094,0.22559746515889956
0275,cdot_cos,Q,P-Q,271,54,41948,-0.035319237429218796,-0.030274394726059622,-0.054210962809479374,0.07441215300118183,777.0,9.502664718489122,0.6404328114626364,10.542864558268707,-0.07448764660791227,0.114,0.9999999999990818,2770.2131229140064,1.3461193288039859,271,2026-10-07 20:46:58.032243,46.5,0.04218898591812284,0.5388073912205333,0.20722687578906204
0275,cdot_cos,R,Q-R,272,54,41972,0.09265521823851422,0.20428544118353162,0.12797445566773302,0.9974030368339571,777.0,9.60188893984745,0.6415728719958822,10.581100846406295,-0.3144457551973747,0.024,0.9999999999990792,-210.47839267472585,1.3510864359298738,272,2026-10-07 20:46:58.056243,46.5,0.4662121556599917,2.4606032142060106,4.134342556597022
0275,cdot_cos,S,R-S,273,54,42024,0.00300529540521712,-0.01814505767074237,-0.0896499228332971,0.015236293451234744,777.0,9.62077367277101,0.6415902751543339,10.600821088801688,-0.060215246718427456,0.052,0.9999999999990593,14608.297061996014,1.3560536070469364,273,2026-10-07 20:46:58.108243,46.5,0.014668853482693353,0.35086058401612163,0.36316794083769166
0275,cdot_cos,T,S-T,274,54,42233,-0.2632083339601032,-0.020666129384997803,-0.2662136293653203,4.206254508272212e-06,777.0,9.638378440585127,0.6415902799587391,10.620218859046187,-0.05624055052254889,0.209,0.999999999999039,827302.449444554,1.3610211325192747,274,2026-10-07 20:46:58.317244,46.5,0.9317664012621641,0.2812160494780231,0.08423333882352481
0275,cdot_cos,P,T-P,275,55,42611,0.016653933005421954,0.0010764575156153174,0.27986226696552513,0.9999977701977281,781.0,9.738321981452824,0.6427316774091584,10.65850926081077,-0.3207768676214682,0.378,0.9999999999990369,-231.76529525428654,1.3659890453966759,275,2026-10-07 20:46:58.695244,46.5,0.438377915114856,0.16358638911473378,0.2644009017663941
0275,cdot_cos,Q,P-Q,276,55,42738,-0.037954346095113015,-0.03765001008075589,-0.054608279100534965,0.073149636227194,781.0,9.762049750755866,0.6428151070538732,10.679257155296044,-0.0766343387664952,0.127,0.9999999999990149,2926.328281624402,1.3709563870438877,276,2026-10-07 20:46:58.822243,46.5,0.041344696557406815,0.486367588892571,0.1868328291578092
0275,cdot_cos,R,Q-R,277,55,42760,0.07052893237812151,0.20010659495161923,0.10848327847323452,0.9935964107734083,781.0,9.861859349031537,0.6439474782774172,10.717432630438491,-0.32394150848646186,0.022,0.9999999999990117,-218.39761076405807,1.3759234880360796,277,2026-10-07 20:46:58.844243,46.5,0.466064354075948,2.7674737463914134,4.536799921621421
0275,cdot_cos,S,R-S,278,55,42819,0.007388602989610806,-0.025001473329907,-0.0631403293885107,0.0504011654789472,781.0,9.883818595597088,0.6440048761735349,10.737717745513798,-0.07170792681674167,0.059,0.9999999999989914,4394.474340183378,1.3808906760944162,278,2026-10-07 20:46:58.903244,46.5,0.029673133589169974,0.3366261728429151,0.3721906197551005
0275,cdot_cos,T,S-T,279,55,43013,-0.222938889722536,0.0009543205385113953,-0.2303274927121468,2.2315016368122382e-05,781.0,9.901581237427001,0.6440049015854236,10.757013297781656,-0.05812060471078333,0.194,0.9999999999989702,534683.6775495479,1.3858581790421924,279,2026-10-07 20:46:59.097243,46.5,0.7915374717179426,0.3056888697008879,0.0915600094325415
0275,cdot_cos,P,T-P,280,56,43392,0.018028976166435617,0.00014521995934214967,0.24096786588897162,0.9999863942678128,759.0,10.002425877041032,0.6451428495208229,10.79531551166804,-0.3314721417859194,0.379,0.9999999999989678,-240.21444968763745,1.3908261196681726,280,2026-10-07 20:46:59.476243,46.5,0.4383843871724814,0.16713180604526154,0.2660808433087901
0275,cdot_cos,Q,P-Q,281,56,43510,-0.030194037848883776,-0.027485710335304236,-0.04822301401531939,0.096009634949852,759.0,10.02826714640931,0.6452520188731942,10.816406038486038,-0.08546800214608233,0.118,0.9999999999989447,2253.417596572577,1.3957934464372763,281,2026-10-07 20:46:59.594244,46.5,0.0562292276407334,0.5367586098829245,0.21899380820573558
0275,cdot_cos,R,Q-R,282,56,43533,0.08416120250919659,0.21945229289480672,0.11435524035808037,0.9951190314042538,759.0,10.129100908973403,0.6463826431100127,10.854621695914027,-0.3351253600420614,0.023,0.9999999999989421,-220.81373259650837,1.4007605483400958,282,2026-10-07 20:46:59.617243,46.5,0.474749932712259,2.617720178898956,4.384076633221452
0275,cdot_cos,S,R-S,283,56,43582,2.4892414173374506e-05,-0.0014213817398603808,-0.08413631009502322,0.01960178073427965,759.0,10.148682274638661,0.6464048976761128,10.8742248109004,-0.06546645792642718,0.049,0.9999999999989199,12117.01458942249,1.4057277136733446,283,2026-10-07 20:46:59.666244,46.5,0.01626013075679286,0.38261725019837795,0.3996197074542569
0275,cdot_cos,T,S-T,284,56,43792,-0.2662949594114079,0.004600535281483606,-0.26631985182558127,4.185529681236667e-06,759.0,10.166597399492844,0.6464049024280186,10.89342037206591,-0.06000646797250158,0.21,0.9999999999988975,1149010.5453859481,1.4106952667940116,284,2026-10-07 20:46:59.876243,46.5,0.9130268193166138,0.2848905036513514,0.08531011835324977
0275,cdot_cos,P,T-P,285,57,44151,0.02261379168006996,0.0006283638705475136,0.28890875109147784,0.9999985358832375,740.0,10.268336286172229,0.647539391125215,10.931734615416655,-0.34227976145608974,0.359,0.9999999999988952,-248.81102313418225,1.4156631845665328,285,2026-10-07 20:47:00.235244,46.5,0.43837266324105717,0.17544413601906741,0.28339522751917867
0275,cdot_cos,Q,P-Q,286,57,44271,-0.03167574191403662,-0.031190668484331167,-0.05428953359410658,0.07416090633171003,740.0,10.292566289154534,0.6476234599033647,10.952318374050355,-0.0820105348250025,0.12,0.999999999998871,3095.9082831870974,1.4206305220962405,286,2026-10-07 20:47:00.355244,46.5,0.04185235402335419,0.523916971563961,0.20191669151921054
0275,cdot_cos,R,Q-R,287,57,44294,0.0738637571646829,0.22381888652339585,0.10553949907871951,0.9926639140982068,740.0,10.39407635934758,0.6487478614826336,10.990497716405779,-0.34517415487128716,0.023,0.9999999999988678,-234.04771471184003,1.42559762262607,287,2026-10-07 20:47:00.378243,46.5,0.4665415288838165,2.6618506350854956,4.413481312741103
0275,cdot_cos,S,R-S,288,57,44344,0.0017077578626757167,-0.007382986597345744,-0.07215599930200718,0.03372353694897694,740.0,10.415011418368467,0.6487860316220597,11.01027602659593,-0.07160527085556814,0.05,0.9999999999988451,7167.091557144261,1.4305647910673307,288,2026-10-07 20:47:00.428244,46.5,0.021916549967975887,0.39001388011174143,0.41870118041774873
0275,cdot_cos,T,S-T,289,57,44552,-0.26654505520998684,-0.02164827853450686,-0.2682528130726626,3.825736219110623e-06,740.0,10.433077747358753,0.6487860359521289,11.029374611675497,-0.06190902755348665,0.208,0.9999999999988216,2239281.376793411,1.4355323521672114,289,2026-10-07 20:47:00.636243,46.5,0.8550281980977129,0.29011796006326823,0.08685735091483994
0275,cdot_cos,P,T-P,290,58,44891,0.015985449418779975,-0.00039381944288895175,0.28253050462876683,0.999998030381,699.0,10.535700489754786,0.6499170219111855,11.067700261153744,-0.35317491934543155,0.339,0.9999999999988192,-257.5327213035475,1.4405002443136625,290,2026-10-07 20:47:00.975244,46.5,0.4383633352104852,0.1837638153475638,0.30272195397059837
0275,cdot_cos,Q,P-Q,291,58,45006,-0.04968312103778391,-0.04885358980247408,-0.06566857045656388,0.04506279916012964,699.0,10.557669614164402,0.649967947848534,11.087635140654083,-0.07605065273779539,0.115,0.9999999999987937,5441.711651008772,1.4454675754216655,291,2026-10-07 20:47:01.090244,46.5,0.02614902690117024,0.5414814025896072,0.19103586443143827
0275,cdot_cos,R,Q-R,292,58,45030,0.06376278278085981,0.21169302360433206,0.11344590381864372,0.9949092913696346,699.0,10.660241212350396,0.6510914325108994,11.125867901238982,-0.3566379446086273,0.024,0.9999999999987905,-249.74732746245735,1.4504346773098828,292,2026-10-07 20:47:01.114244,46.5,0.4553191403544003,2.6850394508840156,4.2738165910830945
0275,cdot_cos,S,R-S,293,58,45081,0.015273331581890523,-0.03384206006477671,-0.04848945119896929,0.09493971180064463,699.0,10.686551507806834,0.6511985541247517,11.146736370234835,-0.0920225946970919,0.051,0.9999999999987684,2470.2330407046816,1.4554018492511958,293,2026-10-07 20:47:01.165244,46.5,0.0563852553501742,0.4366145125422099,0.5158881462046762
0275,cdot_cos,T,S-T,294,58,45273,-0.20242757952834559,-0.04976052761059353,-0.2177009111102361,4.0140188938442256e-05,699.0,10.704775892629701,0.6511985994121777,11.165742693132888,-0.06387439994126348,0.192,0.999999999998744,621545.4756968124,1.4603693827569812,294,2026-10-07 20:47:01.357243,46.5,0.6435983814487191,0.3169942287969361,0.0949186709524319
0275,cdot_cos,P,T-P,295,59,45590,0.019827196964886357,0.0007231271907915439,0.22225477649323194,0.999967519790341,683.0,10.808277291664858,0.6523259452902322,11.204078887364945,-0.364275018895854,0.317,0.9999999999987419,-266.46712850274224,1.4653372419989517,295,2026-10-07 20:47:01.674243,46.5,0.43838692778283866,0.19929241798553057,0.32650283607304903
0275,cdot_cos,Q,P-Q,296,59,45712,-0.04209427136473827,-0.04917616144503473,-0.06192146832962463,0.05318394460724734,683.0,10.831127285632528,0.6523858562858087,11.224083847150842,-0.0808868320276104,0.122,0.9999999999987159,4730.15319043762,1.4703045977456992,296,2026-10-07 20:47:01.796243,46.5,0.030091441738531347,0.514242536268313,0.18729503252188398
0275,cdot_cos,R,Q-R,297,59,45736,0.04834756454085274,0.2391096449245641,0.09044183590559102,0.9853064685611714,683.0,10.933752470514326,0.6534949166937881,11.262140738243739,-0.3648431685978536,0.024,0.9999999999987128,-256.0332462751764,1.475271698806591,297,2026-10-07 20:47:01.820243,46.5,0.45918735069184585,2.7439940275394057,4.276049370074937
0275,cdot_cos,S,R-S,298,59,45784,0.006446812496621556,-0.015800936756839273,-0.04190075204423119,0.12472956756794354,683.0,10.96283899895442,0.6536351936916895,11.283506175348025,-0.1040116456075791,0.048,0.9999999999986907,1859.4033725584084,1.4802388641756925,298,2026-10-07 20:47:01.868243,46.5,0.08145418149901447,0.4944339712971516,0.6059693425019367
0275,cdot_cos,T,S-T,299,59,45989,-0.254478719033443,-0.1007490884697397,-0.26092553153006454,5.3788143184917565e-06,683.0,10.981218131758853,0.6536351997403926,11.302422492831596,-0.06586514712248054,0.205,0.9999999999986653,6306558.264239554,1.485206444777884,299,2026-10-07 20:47:02.073244,46.5,0.5603685395090396,0.29941737580537675,0.08965430636309071
0275,cdot_cos,P,T-P,300,60,46273,0.024504535725440826,0.0024989009633259716,0.2789832547588838,0.9999976771685622,717.0,11.085600123034624,0.6547588794022243,11.340769965690843,-0.37558943786312476,0.284,0.9999999999986632,-275.63397404182655,1.490174238893559,300,2026-10-07 20:47:02.357243,46.5,0.4383948669573364,0.22366260595659093,0.3675422228020101
0275,cdot_cos,Q,P-Q,301,60,46401,-0.03941449037763029,-0.047473025235821524,-0.06391902610307112,0.048696095891826614,717.0,11.108258491942196,0.6548135543446163,11.360604385315677,-0.0819931003625938,0.128,0.9999999999986369,5369.851794185453,1.4951416180050798,301,2026-10-07 20:47:02.485244,46.5,0.027854954444549832,0.4927217353949201,0.17701850709041234
0275,cdot_cos,R,Q-R,302,60,46425,0.05084903542638313,0.2356661293478457,0.09026352580401342,0.9851859441559836,717.0,11.211736887295723,0.6559188192439718,11.398667713811205,-0.37600961038085867,0.024,0.9999999999986342,-266.0145185011469,1.5001087183742006,302,2026-10-07 20:47:02.509243,46.5,0.45751810684043354,2.7925550629072835,4.3115998063969485
0275,cdot_cos,S,R-S,303,60,46477,0.01162909987907049,-0.023799210606304792,-0.03921993554731264,0.13898726285559715,717.0,11.242301134961746,0.6560746114709819,11.42023592199977,-0.1117043244702772,0.052,0.9999999999986118,1696.5242167917093,1.505075895904654,303,2026-10-07 20:47:02.561243,46.5,0.09384459837403766,0.47212483352626194,0.5877739935773623
0275,cdot_cos,T,S-T,304,60,46670,-0.25954039377299526,-0.07135545603186068,-0.2711694936520658,3.3405175919098498e-06,717.0,11.260837869982455,0.6560746152149984,11.439065754725904,-0.0678950877913593,0.193,0.9999999999985859,11701133.314010901,1.5100434578836113,304,2026-10-07 20:47:02.754244,46.5,0.5245319237580981,0.3207011858445054,0.09604525917465495
0275,cdot_cos,P,T-P,305,61,46990,0.017909780856045186,0.000738225508513453,0.2774501746290404,0.999997505533339,742.0,11.366091792697725,0.6571945312736241,11.477423219777638,-0.3870345520810639,0.32,0.999999999998584,-284.96730789031744,1.5150113715048463,305,2026-10-07 20:47:03.074244,46.5,0.4384207738647729,0.199201787589931,0.32891850848522086
0275,cdot_cos,Q,P-Q,306,61,47112,-0.04954735858573184,-0.047898935825024455,-0.06745713944177703,0.04161627280744325,742.0,11.38832701404001,0.6572411003136462,11.49703823631699,-0.08221766142294672,0.122,0.9999999999985565,6545.483662826364,1.5199787415863923,306,2026-10-07 20:47:03.196243,46.5,0.024540312572791545,0.5227730681723576,0.18225591264168173
0275,cdot_cos,R,Q-R,307,61,47135,0.07206197036771493,0.22373905100745614,0.12160932895344677,0.9965116562949482,742.0,11.49364842133178,0.6583553014565542,11.535331383767009,-0.39101130527511163,0.023,0.999999999998554,-277.14353536404286,1.5249458382598937,307,2026-10-07 20:47:03.219244,46.5,0.45396701817803026,2.784986465247733,4.579191621381308
0275,cdot_cos,S,R-S,308,61,47181,0.007269693093162119,-0.02524197767807671,-0.0647922772745528,0.046849124188144055,742.0,11.516436391441406,0.658407640650341,11.55502182303098,-0.08506899898744177,0.046,0.9999999999985286,5845.376746421429,1.529913000296606,308,2026-10-07 20:47:03.265243,46.5,0.02742221408059509,0.4507465496027299,0.495390654557079
0275,cdot_cos,T,S-T,309,61,47389,-0.2628652943168203,-0.031418402919777516,-0.27013498740998243,3.5051388630294045e-06,742.0,11.535117103895232,0.6584076445660892,11.573764852767278,-0.06986202748203972,0.208,0.9999999999985023,3883541.640939834,1.5348806167700133,309,2026-10-07 20:47:03.473243,46.5,0.804389649588736,0.2999692459654044,0.08981111756646885
0275,cdot_cos,P,T-P,310,62,47732,0.021494767060990967,0.002055424194418338,0.2843600613778113,0.9999981910150354,796.0,11.641223597763014,0.659523906929663,11.612131515012903,-0.39833467168516223,0.343,0.9999999999985006,-294.26114766738476,1.5398486177791657,310,2026-10-07 20:47:03.816243,46.5,0.4384038566771048,0.19225845771334896,0.30934837862327313
0275,cdot_cos,Q,P-Q,311,62,47862,-0.030987654791693506,-0.031218341828359922,-0.05248242185268447,0.08014101459511935,796.0,11.667006405886589,0.6596132891118178,11.6324223282476,-0.09732981597417144,0.13,0.9999999999984722,3367.6158766142375,1.544816017194548,311,2026-10-07 20:47:03.946244,46.5,0.045382559490991264,0.5062011178786053,0.1983292932582669
0275,cdot_cos,R,Q-R,312,62,47886,0.07432467879841297,0.22022322431641322,0.10531233359010647,0.9925865883902584,796.0,11.772835888411452,0.6607193891831304,11.670646675609198,-0.4011266785383748,0.024,0.9999999999984704,-274.65585659323233,1.5497831153189043,312,2026-10-07 20:47:03.970243,46.5,0.46890321035366944,2.653815077738505,4.409561771869279
0275,cdot_cos,S,R-S,313,62,47937,0.00011633548483440235,-0.0017919316234668214,-0.07420834331357856,0.03074834942000871,796.0,11.794389529618037,0.6607536260310716,11.689940364746645,-0.08213501668462805,0.051,0.9999999999984432,9317.20298557502,1.5547502922047405,313,2026-10-07 20:47:04.021244,46.5,0.02057358200723216,0.3958819258700298,0.4226204158154028
0275,cdot_cos,T,S-T,314,62,48131,-0.2649806671080847,0.014001077928313016,-0.26509700259291913,4.430424958835924e-06,796.0,11.813215844850195,0.6607536309640214,11.708599602876932,-0.07186485818739527,0.194,0.9999999999984149,2081950.731036228,1.5597178817285038,314,2026-10-07 20:47:04.215244,46.5,0.8668326639069939,0.3241777741232528,0.09704286202143039
0275,cdot_cos,P,T-P,315,63,48528,0.02124652512637705,0.001974854398232628,0.28622719223446175,0.9999983414487829,821.0,11.92017050597786,0.6618661643419378,11.746974732369127,-0.4097909120926673,0.397,0.9999999999984142,-303.744643183791,1.5646860641157694,315,2026-10-07 20:47:04.612243,46.5,0.43839698319575143,0.1701723485735103,0.2694072068706917
0275,cdot_cos,Q,P-Q,316,63,48656,-0.02488079388016611,-0.024350026687114522,-0.046127319006543155,0.10480685364936243,821.0,11.948332689617562,0.6619826623298147,11.767677319131256,-0.10849793162022309,0.128,0.9999999999983848,2586.2505092423394,1.5696534645298934,316,2026-10-07 20:47:04.740243,46.5,0.062228214839348386,0.5269333237856096,0.22001705968517637
0275,cdot_cos,R,Q-R,317,63,48680,0.08250145444206698,0.2051463054526008,0.10738224832223309,0.9932622892198432,821.0,12.055065436866975,0.6630857454962817,11.805922281037915,-0.4128607163172721,0.024,0.9999999999983824,-275.9200701719268,1.5746205609064252,317,2026-10-07 20:47:04.764243,46.5,0.47844954566221193,2.658589181942691,4.447197802058896
0275,cdot_cos,S,R-S,318,63,48738,0.00011467307088459732,-0.0027912386014528126,-0.08238678137118238,0.021227840554551534,821.0,12.075944970350811,0.6631093010848909,11.824948983168643,-0.0811923159605799,0.058,0.9999999999983542,14080.242521656208,1.5795877590203298,318,2026-10-07 20:47:04.822243,46.5,0.016823597307606745,0.3435724453560957,0.35999195661785593
0275,cdot_cos,T,S-T,319,63,48929,-0.22676269618982492,0.033748206552114426,-0.2268773692607095,2.6198094756448296e-05,821.0,12.094919840528283,0.6631093301552485,11.84352762116447,-0.073907696679446,0.191,0.999999999998325,250585.81535754458,1.5845553517539908,319,2026-10-07 20:47:05.013243,46.5,0.9061379300888248,0.33186474374195074,0.09934487003911759
0275,cdot_cos,P,T-P,320,64,49349,0.016410499944142648,-0.0005610348399325456,0.24317319613396757,0.9999877203348062,838.0,12.202717302460236,0.6642180522912106,11.881910218105434,-0.4213904156607169,0.42,0.9999999999983227,-313.4082992577433,1.589523631690219,320,2026-10-07 20:47:05.433243,46.5,0.43840597039991774,0.16133183764207318,0.25666062364750886
0275,cdot_cos,Q,P-Q,321,64,49461,-0.03147251058379688,-0.022768010783070697,-0.04788301052793953,0.0973906189346262,838.0,12.230438584147624,0.6643259363237469,11.90239462413197,-0.10895225399813645,0.112,0.9999999999982923,2896.055647134485,1.5944909905035571,321,2026-10-07 20:47:05.545243,46.5,0.05683168389070923,0.6060234843195875,0.24751144363739058
0275,cdot_cos,R,Q-R,322,64,49486,0.10728528541398556,0.18886314499693496,0.13875779599778243,0.9984254932989343,838.0,12.338466562947824,0.6654309471150863,11.94074854218995,-0.42624063661905487,0.025,0.9999999999982898,-287.13600365506693,1.5994580880376692,322,2026-10-07 20:47:05.570244,46.5,0.4750249623519162,2.5559484190778647,4.321119152007995
0275,cdot_cos,S,R-S,323,64,49540,0.0007431016034488598,-0.012600668303675764,-0.1065421838105367,0.007004234206244436,838.0,12.358236005101517,0.6654386926863872,11.959414889381007,-0.0784082339975016,0.054,0.9999999999982591,44907.26237084475,1.6044252748787453,323,2026-10-07 20:47:05.624243,46.5,0.011841181360116542,0.36009597213985484,0.3661007806239511
0275,cdot_cos,T,S-T,324,64,49728,-0.20890820610962674,0.07314563496646334,-0.2096513077130756,5.8362081263685e-05,838.0,12.377356927938928,0.6654387572252112,11.977914790965903,-0.07595553689230797,0.188,0.9999999999982289,38003.43661402268,1.6093928703056528,324,2026-10-07 20:47:05.812243,46.5,0.9682245727047573,0.33976684017838216,0.10170703636920722
0275,cdot_cos,P,T-P,325,65,50187,0.02070762657514168,0.0005873335822940769,0.22961583268476843,0.9999769341937479,800.0,12.485988337008589,0.6665436563145211,12.016304012933897,-0.43303857330340645,0.459,0.9999999999982268,-323.18158270374795,1.6143613006639352,325,2026-10-07 20:47:06.271244,46.5,0.438410899745484,0.1518127856828566,0.23666973653520856
0275,cdot_cos,Q,P-Q,326,65,50307,-0.020435668189227145,-0.019797278382256703,-0.04114329476436883,0.1286258992376474,800.0,12.51672106519579,0.6666856458434777,12.037340691857958,-0.12317075669108873,0.12,0.9999999999981953,2182.328646973746,1.6193286892940135,326,2026-10-07 20:47:06.391244,46.5,0.0808016412778089,0.5802632122071587,0.25610606822668025
0275,cdot_cos,R,Q-R,327,65,50330,0.09221885923015853,0.20957852880159392,0.11265452741938567,0.9947194765067755,800.0,12.625251507938307,0.6677826893878679,12.07562680898554,-0.43666897890929424,0.023,0.9999999999981921,-285.7664345424505,1.6242957784336203,327,2026-10-07 20:47:06.414243,46.5,0.4877603604245952,2.8050912909713084,4.718714901848541
0275,cdot_cos,S,R-S,328,65,50379,-8.009213480039741e-05,-0.001138019937430004,-0.09229895136495893,0.013494306535190976,800.0,12.64575526458047,0.6677975593422676,12.094346258157827,-0.0829178692575092,0.049,0.9999999999981606,23789.656655500527,1.6292629499157965,328,2026-10-07 20:47:06.463244,46.5,0.014033847838930873,0.40581523056632096,0.41844401310538265
0275,cdot_cos,T,S-T,329,65,50586,-0.2174193822806588,0.033664682098071136,-0.2173392901458584,4.082084037515789e-05,800.0,12.665021400533806,0.6677976043239928,12.112769560580494,-0.07803550626754771,0.207,0.9999999999981283,108541.03448942672,1.6342306164335179,329,2026-10-07 20:47:06.670244,46.5,0.939351141782874,0.3109446771913852,0.09307312054751549
0275,cdot_cos,P,T-P,330,66,50987,0.014585182877034402,0.0010314003696799536,0.2320045651576932,0.9999793590361651,759.0,12.774486360937704,0.6688985920560091,12.151164699340407,-0.4448863990802281,0.401,0.9999999999981254,-333.201617188643,1.6391988981440069,330,2026-10-07 20:47:07.071244,46.5,0.43841271800085113,0.1703606230746094,0.2729799511319146
0275,cdot_cos,Q,P-Q,331,66,51114,-0.03609278904695496,-0.037427397388715734,-0.05067797192398936,0.08654847130138767,759.0,12.801650620239643,0.668993796167882,12.171294222079737,-0.11097761461191293,0.127,0.9999999999980922,3507.29372817467,1.64416631513367,331,2026-10-07 20:47:07.198244,46.5,0.04935115883341573,0.5362804053594595,0.21389180552707873
0275,cdot_cos,R,Q-R,332,66,51136,0.06599721052687824,0.21004613546374162,0.10208999957383319,0.9913985427591087,759.0,12.910701583899007,0.6700833555133523,12.209518805912502,-0.4471449626219074,0.022,0.9999999999980884,-308.53514258546073,1.6491333990699752,332,2026-10-07 20:47:07.220243,46.5,0.471513087405603,3.05737772237815,4.956861984516533
0275,cdot_cos,S,R-S,333,66,51195,0.009250057216975412,-0.02733530002347643,-0.05674715330990282,0.06668625071437376,759.0,12.936175240024282,0.6701565791714841,12.229228988638578,-0.10498514308611603,0.059,0.9999999999980563,4672.804231113362,1.6541006029231344,333,2026-10-07 20:47:07.279244,46.5,0.038421960450949345,0.38038809682957153,0.4317568834792349
0275,cdot_cos,T,S-T,334,66,51387,-0.21348046178798985,-0.015328309317880472,-0.22273051900496527,3.1769593532574394e-05,759.0,12.955587379324896,0.6701566140535575,12.247578095614747,-0.08014264047932136,0.192,0.9999999999980236,712185.3762802528,1.659068234780392,334,2026-10-07 20:47:07.471244,46.5,0.7334626602958375,0.3377736047726297,0.10110489219070096
0275,cdot_cos,P,T-P,335,67,51746,0.019501861040524374,0.0015438022635164495,0.23298232282851422,0.9999802764604644,722.0,13.065880304256972,0.6712536333449006,12.285978029333998,-0.4568472461515613,0.359,0.9999999999980206,-343.38922628337394,1.6640364107436507,335,2026-10-07 20:47:07.830244,46.5,0.43842148568007805,0.19024526169395162,0.3072226321227722
0275,cdot_cos,Q,P-Q,336,67,51873,-0.03457529953640402,-0.04148729997172475,-0.05407716057692839,0.07484181597120382,722.0,13.092183477221154,0.671335662985666,12.305805735427594,-0.1095091455250416,0.127,0.9999999999979857,4234.299911415973,1.6690038350398622,336,2026-10-07 20:47:07.957243,46.5,0.04192921080353663,0.5336037004540432,0.20711159814316576
0275,cdot_cos,R,Q-R,337,67,51896,0.05458283890446828,0.22608111496090805,0.08915813844087231,0.9844167610933577,722.0,13.201415644172299,0.672413649372253,12.343893635288513,-0.4563592341685901,0.023,0.9999999999979821,-321.75739226329136,1.673970920643213,337,2026-10-07 20:47:07.980243,46.5,0.46764893370229016,2.965660304078053,4.749224650049778
0275,cdot_cos,S,R-S,338,67,51953,0.003034233899196692,-0.008517711251890736,-0.051548605005271586,0.08340097314022134,722.0,13.228603851208744,0.6725048943452099,12.363871941911443,-0.11416228483434306,0.057,0.9999999999979502,3750.310162248502,1.6789381194350483,338,2026-10-07 20:47:08.037244,46.5,0.04991365895200861,0.41002604067938087,0.47698608835869355
