record_id,input,event,transition,event_index,k,peak,value_cos,value_sin,value_return,x_input,rr,knowledge,decision,decision_norm,entropy,delta_t,cosine_similarity,delta_h_over_delta_d,frobenius_norm,matrix_size,timestamp,scale,P,zdot,zdot_back
0053,cdot_cos,Q,P-Q,1,0,1316,-0.028953429672988102,-0.013856352724029467,-0.05721440031576638,0.1930425970310646,1006.0,0.0009588699007937396,0.5002397174568315,0.5002397174568315,,,1.0,,0.004967141530112327,1,2026-10-07 23:31:17.400243,25.0,,,
0053,cdot_cos,R,Q-R,2,0,1341,0.091020707301377,0.08489705817413436,0.1199741369743651,0.9525449081456645,1006.0,0.008047292749466504,0.5014225699798334,0.7091185989454527,-1.1512521101242692e-05,,1.0,,0.009934283060224654,2,2026-10-07 23:31:17.425244,25.0,,,
0053,cdot_cos,S,R-S,3,0,1371,-0.024914513583305244,-0.10766854487779089,-0.11593522088468225,0.052233677737827666,1006.0,0.010305264690799036,0.5014874324479655,0.8686017123571413,-7.473014783390784e-06,0.03,1.0000000000000002,0.06227802355016399,0.014901424594461242,3,2026-10-07 23:31:17.455244,25.0,0.5824303091930926,0.10222137626910817,0.07526573137775107
0053,cdot_cos,T,S-T,4,0,1666,-0.07333350890557401,0.03063744847502463,-0.04841899532226877,0.22961703665373295,1006.0,0.014180575325612994,0.501772564489638,1.0035451289796358,-1.7111994087344183e-05,0.295,1.0000000000000002,-0.033805317871016705,0.01986856618214915,4,2026-10-07 23:31:17.750243,25.0,0.569334066669818,0.027144401370553628,0.013136646219708333
0053,cdot_cos,P,T-P,5,1,2226,0.03839553402283498,-0.0010621811491440343,0.11172904292840899,0.9423086743168039,938.0,0.026320461499425674,0.5029426830766492,1.1246140281510577,-8.866460115785641e-05,0.56,0.9999999999999999,-0.061149876486686745,0.024835707949295068,5,2026-10-07 23:31:18.310244,25.0,0.44619326573564205,0.015137095562763301,0.02167836816752264
0053,cdot_cos,Q,P-Q,6,1,2328,-0.019823594975416626,-0.012084562675201287,-0.0582191289982516,0.18915989334370378,938.0,0.03113412235590789,0.5031775702642267,1.2325282971928488,-4.9873194170585184e-05,0.102,0.9999999999999998,0.16514909726388136,0.029802849514990744,6,2026-10-07 23:31:18.412243,25.0,0.4594152778951187,0.09635683483912455,0.04719275349492369
0053,cdot_cos,R,Q-R,7,1,2352,0.08998209870615348,0.10074870672433799,0.1098056936815701,0.9396384205775531,938.0,0.04597725580660708,0.5043443329720944,1.3343696802316962,-0.00020639340775427788,0.024,1.0,-0.13414913977645618,0.03476999102851519,7,2026-10-07 23:31:18.436243,25.0,0.4684346899453024,0.39780628327786,0.6184638937791329
0053,cdot_cos,S,R-S,8,1,2376,-0.009560246936717299,-0.1185989822376044,-0.09954234564287077,0.07666416425930121,938.0,0.05022882395324517,0.5044395260650454,1.4267704383612778,-7.375678445726433e-05,0.024,1.0,1.3933429326143096,0.03973713256342474,8,2026-10-07 23:31:18.460243,25.0,0.16558058923607466,0.17566360489180774,0.177148672776587
0053,cdot_cos,T,S-T,9,1,2665,-0.109445483003807,0.01287128030000937,-0.09988523606708971,0.07605955939814747,938.0,0.05440910884141385,0.5045339681084011,1.5136019043752407,-7.887581703736361e-05,0.289,1.0,-0.05420289945249668,0.04470427462666781,9,2026-10-07 23:31:18.749243,25.0,0.9371612692150043,0.038841078251563105,0.014464653592279183
0053,cdot_cos,P,T-P,10,2,3164,0.03836290416135236,-0.0009898865995183468,0.14780838716515937,0.9757599334371482,919.0,0.07267896718264864,0.5057455239012689,1.59930777211546,-0.0004186655121804034,0.499,0.9999999999999999,-0.28045732366872156,0.049671417373681075,10,2026-10-07 23:31:19.248243,25.0,0.4441460503868203,0.025128051677047243,0.03661294256760479
0053,cdot_cos,Q,P-Q,11,2,3262,-0.0176109590464898,-0.01084353576819245,-0.05597386320784216,0.19791981976985315,919.0,0.079486904415107,0.5059912639795234,1.6781831701777463,-0.00018679058920446055,0.098,1.0,0.9435779650716741,0.05463855905740505,11,2026-10-07 23:31:19.346244,25.0,0.2889900608997716,0.13568231959983984,0.06946874726998324
0053,cdot_cos,R,Q-R,12,2,3289,0.09574334645562864,0.10820933299907466,0.11335430550211845,0.9444782402887225,919.0,0.09927270182421725,0.5071638997448679,1.7568672846585796,-0.0006377028171974206,0.027,0.9999999999999997,-0.38452880367376147,0.059605700521286484,12,2026-10-07 23:31:19.373244,25.0,0.4930777830387845,0.46016159534234136,0.732807311448528
0053,cdot_cos,S,R-S,13,2,3314,-0.016977762654967535,-0.08611453880700845,-0.11272110911059617,0.05635773031174674,919.0,0.10433563056359343,0.5072338694430182,1.8288577253494573,-0.0001858621683710806,0.025,1.0,6.457661827490447,0.06457284201957643,13,2026-10-07 23:31:19.398243,25.0,0.08794424160457102,0.20439424602531397,0.20251714957504718
0053,cdot_cos,T,S-T,14,2,3604,-0.12326552055946223,0.009188326464987451,-0.1062877579044947,0.06554699639671602,919.0,0.10949241412548295,0.507315247515335,1.8981998437232115,-0.0001988085917900823,0.29,1.0,-0.1590898266624515,0.06953998499886878,14,2026-10-07 23:31:19.688244,25.0,0.9369549846949555,0.048147550359666044,0.017782012282377652
0053,cdot_cos,P,T-P,15,3,4083,0.04096303516358904,-0.0014355272910988256,0.16422855572305128,0.9837888799745217,956.0,0.13226120977219974,0.5085365945794499,1.9695537625200805,-0.0009923639783718623,0.479,1.0,-0.6497378262884271,0.07450712944277947,15,2026-10-07 23:31:20.167244,25.0,0.449481033776012,0.03204745608356764,0.04753402013928348
0053,cdot_cos,Q,P-Q,16,3,4178,-0.019435739572585223,-0.010760144102035192,-0.06039877473617426,0.18094333279733818,956.0,0.14019387705354075,0.5087612201300843,2.0350448819231075,-0.0003896416262876073,0.095,0.9999999999999998,2.6832314951794167,0.07947427131983453,16,2026-10-07 23:31:20.262244,25.0,0.21291476622758582,0.16689863698981394,0.08350176085622116
0053,cdot_cos,R,Q-R,17,3,4205,0.09864560676195036,0.10168360713371367,0.11808134633453558,0.9503595168470009,956.0,0.1639719508002644,0.5099409493581814,2.1025403985677222,-0.0013037668555914551,0.027,0.9999999999999999,-0.7748602031148798,0.08444141269862294,17,2026-10-07 23:31:20.289243,25.0,0.49601870639440343,0.5484775049987186,0.8806693980268014
0053,cdot_cos,S,R-S,18,3,4232,-0.017862442796718708,-0.09452880865961907,-0.11650804955866907,0.05152925509078652,956.0,0.16981166232347156,0.5100049121769095,2.1637675925839313,-0.000351371905612739,0.027,0.9999999999999999,14.88982144497185,0.08940855414480686,18,2026-10-07 23:31:20.316243,25.0,0.06650328168728946,0.23039725346418533,0.21628561197063592
0053,cdot_cos,T,S-T,19,3,4523,-0.11041031592250529,0.026495237224746233,-0.09254787312578658,0.0899949306035013,956.0,0.1764134024873304,0.5101166213190864,2.2235468033309598,-0.00041202508209050887,0.291,1.0000000000000002,-0.5429562459775453,0.09437569849200413,19,2026-10-07 23:31:20.607244,25.0,0.8631148746373024,0.05642092002744569,0.02268639231566611
0053,cdot_cos,P,T-P,20,4,5039,0.0356849364169709,-0.0012507890633832596,0.14609525233947618,0.9747260271470595,998.0,0.20264863777944495,0.5113264647105648,2.2867214699073073,-0.0017924906279772077,0.516,0.9999999999999997,-1.1410282980509348,0.09934284593814433,20,2026-10-07 23:31:21.123244,25.0,0.46294907395970714,0.03466343673091728,0.05084347924828401
0053,cdot_cos,Q,P-Q,21,4,5136,-0.019980893537139995,-0.010254642765914805,-0.0556658299541109,0.19914515238909106,998.0,0.21218606919363703,0.5115736305594236,2.3443248893890414,-0.0007131129260493052,0.097,0.9999999999999997,4.367017963489925,0.1043099881155513,21,2026-10-07 23:31:21.220243,25.0,0.22011305222775096,0.18831373188478268,0.09832403519785651
0053,cdot_cos,R,Q-R,22,4,5162,0.09329882593839466,0.09112448837465742,0.11327971947553465,0.9443803786183433,998.0,0.23918150176509279,0.5127456541932462,2.4049903012922185,-0.002195952274030103,0.026,0.9999999999999997,-1.2651957735224382,0.10927712933643216,22,2026-10-07 23:31:21.246243,25.0,0.509023914491379,0.6476161864867965,1.038285868132914
0053,cdot_cos,S,R-S,23,4,5191,-0.02062075114338237,-0.08266648034640436,-0.11391957708177702,0.054785339387739676,998.0,0.24586211089095045,0.512813641383228,2.4593678310352622,-0.0005839774594764704,0.029,0.9999999999999991,23.70997852661895,0.11424427070143992,23,2026-10-07 23:31:21.275244,25.0,0.06327041814212722,0.25640242478349423,0.23036583192612625
0053,cdot_cos,T,S-T,24,4,5482,-0.10058796871647514,0.03664569154539014,-0.07996721757309277,0.11928899749375635,998.0,0.25405284240253545,0.5129616743019727,2.5129887234487693,-0.0007379236286508267,0.291,0.9999999999999994,-1.0399455099571475,0.11921141686582612,24,2026-10-07 23:31:21.566243,25.0,0.8117030284906686,0.06404327831352732,0.028146843682422693
0053,cdot_cos,P,T-P,25,5,6037,0.02659368950890831,-0.0014553917987101502,0.12718165822538346,0.9600570857362742,1023.0,0.28313529886942335,0.5141529820920044,2.570764916021975,-0.002815100780548604,0.555,0.9999999999999991,-1.7436108193688888,0.12417856875128412,25,2026-10-07 23:31:22.121243,25.0,0.4781314654215519,0.03572301927179143,0.05240082246286107
0053,cdot_cos,Q,P-Q,26,5,6133,-0.029878730019349282,-0.014123703269264175,-0.05647241952825759,0.19594865188795016,1023.0,0.29370539379422395,0.5143961099356793,2.6229158108029123,-0.00109864947665792,0.096,0.9999999999999989,7.059871374444951,0.12914571125648874,26,2026-10-07 23:31:22.217243,25.0,0.20964735480707286,0.21187362413002356,0.1101051554666729
0053,cdot_cos,R,Q-R,27,5,6160,0.08774331352793131,0.08176570005681967,0.11762204354728059,0.9498150017712372,1023.0,0.32381503470238787,0.5155745163310245,2.679003781120404,-0.003349807674062032,0.027,0.9999999999999991,-1.910341123653463,0.13411285228760883,27,2026-10-07 23:31:22.244244,25.0,0.5106728530370268,0.6953191906427318,1.1151718854875527
0053,cdot_cos,S,R-S,28,5,6189,-0.0245717443764532,-0.12348758315106978,-0.11231505790438451,0.05690002859175428,1023.0,0.33125263008893147,0.5156451050871813,2.728537434694685,-0.0008777641653697311,0.029,0.9999999999999987,35.02035796182102,0.1390799934907458,28,2026-10-07 23:31:22.273243,25.0,0.05982714608730573,0.33244563992879594,0.2564688064325377
0053,cdot_cos,T,S-T,29,5,6480,-0.0743652301651436,0.03414627345242066,-0.049793485788690396,0.22359513312798585,1023.0,0.34309688181825804,0.5159224855590385,2.7783276215624038,-0.001438919791066862,0.291,0.9999999999999984,-2.02305382905973,0.14404714197063967,29,2026-10-07 23:31:22.564243,25.0,0.6770677404806734,0.07417750857806342,0.040701895977067255
0053,cdot_cos,P,T-P,30,6,7060,0.03286461368075076,-0.0003747624699064537,0.10722984384589436,0.9358809097702568,1058.0,0.37442394008136437,0.5170833822223491,2.832182336987496,-0.004048847297140015,0.58,0.9999999999999986,-2.248199679229328,0.14901429971208288,30,2026-10-07 23:31:23.144243,25.0,0.5248671939397671,0.037705287117701644,0.05401216941914885
0053,cdot_cos,Q,P-Q,31,6,7165,-0.016612211943934026,-0.009137917545494728,-0.04947682562468479,0.22497244759879503,1058.0,0.38683501487479194,0.5173624182387496,2.880552051681663,-0.0017017758829131417,0.105,0.9999999999999974,8.411356514126973,0.15398144295836158,31,2026-10-07 23:31:23.249243,25.0,0.2517825423272492,0.21344635400687983,0.1182007123183578
0053,cdot_cos,R,Q-R,32,6,7190,0.08889827812930406,0.08582781905943788,0.1055104900732381,0.9332527054785302,1058.0,0.41924767442280914,0.5185198251622564,2.9331910940498216,-0.00470524867308524,0.025,0.9999999999999977,-2.595001575653353,0.15894858364605355,32,2026-10-07 23:31:23.274244,25.0,0.5281769479760317,0.810715848913417,1.296506381920688
0053,cdot_cos,S,R-S,33,6,7214,-0.02343784809876553,-0.07926907898853719,-0.1123361262280696,0.056871770758941606,1058.0,0.4273708073204628,0.5185903504368548,2.9790747736423695,-0.0012384973148788564,0.024,0.9999999999999972,49.156155405960604,0.16391572443760022,33,2026-10-07 23:31:23.298244,25.0,0.06086120314831136,0.39931566366845894,0.3384638707355688
0053,cdot_cos,T,S-T,34,6,7519,-0.08994269926113405,0.04562294575682279,-0.06650485116236851,0.15941043516459633,1058.0,0.43841482627889516,0.5187880274130316,3.0250280491921857,-0.0017219020010567471,0.305,0.9999999999999971,-2.4454273609755233,0.16888287623503778,34,2026-10-07 23:31:23.603244,25.0,0.7552255813575065,0.07471642197371653,0.03620989822436845
0053,cdot_cos,P,T-P,35,7,8118,0.03449418524383782,-0.0016556425815381184,0.12443688450497187,0.9573410299925338,1059.0,0.47294782472442987,0.5199750526674785,3.076213918423067,-0.005666519334811366,0.599,0.9999999999999971,-3.3231115504724005,0.17385004098682022,35,2026-10-07 23:31:24.202244,25.0,0.49851228778160434,0.03966410015820213,0.05765108254680251
0053,cdot_cos,Q,P-Q,36,7,8216,-0.018364242363610266,-0.008814105459265321,-0.05285842760744809,0.2105753753484487,1059.0,0.4859324182684213,0.5202361192722514,3.1214167456766058,-0.0022416371898474514,0.098,0.9999999999999956,13.118806014817821,0.1788171845073779,36,2026-10-07 23:31:24.300243,25.0,0.2170020330448176,0.24516771126955197,0.1324958524897087
0053,cdot_cos,R,Q-R,37,7,8241,0.09086763032988943,0.08164257807560389,0.1092318726934997,0.9388196202551696,1059.0,0.521000696133262,0.5213999102188666,3.1715518684310524,-0.006356284584897255,0.025,0.9999999999999957,-3.5355554251536696,0.18378432483015497,37,2026-10-07 23:31:24.325243,25.0,0.5234387266886188,0.8728004467569572,1.4027311145936294
0053,cdot_cos,S,R-S,38,7,8267,-0.025631485408771342,-0.08057233006995877,-0.11649911573866077,0.05154017197017682,1059.0,0.5295724406062692,0.5214637944605587,3.214518747897119,-0.0016209850634098348,0.026,0.9999999999999952,74.12312326266766,0.18875146537385118,38,2026-10-07 23:31:24.351244,25.0,0.053866415158141605,0.41203978424020565,0.3296824797310433
0053,cdot_cos,T,S-T,39,7,8558,-0.08331631181587659,0.04542682406292104,-0.05768482640710525,0.19121716698139393,1059.0,0.5424267649137527,0.5217008027249802,3.258020500162379,-0.002480329715132357,0.291,0.9999999999999946,-3.6258003653162194,0.19371861983223632,39,2026-10-07 23:31:24.642244,25.0,0.7071843637682568,0.08518141397532486,0.044172935764548345
0053,cdot_cos,P,T-P,40,8,9177,0.03358143949877964,-0.0003079815999570553,0.11689775131465624,0.9489448267815433,1061.0,0.5791480235399082,0.5228768463429451,3.3069635771480006,-0.007411741142742293,0.619,0.9999999999999939,-4.193221537262132,0.19868579328398778,40,2026-10-07 23:31:25.261244,25.0,0.5140929074217966,0.04117400193480149,0.05932351958991195
0053,cdot_cos,Q,P-Q,41,8,9283,-0.016604661642596667,-0.009396462025743442,-0.05018610114137631,0.22189580302549838,1061.0,0.593400179309037,0.5231518095165445,3.349806080712799,-0.003007209463839521,0.106,0.9999999999999928,16.01862395332751,0.20365293788595043,41,2026-10-07 23:31:25.367244,25.0,0.23115716587708796,0.2425725446709395,0.1344542997087618
0053,cdot_cos,R,Q-R,42,8,9308,0.08768756959086955,0.08552213797574736,0.10429223123346622,0.9313302898041361,1061.0,0.6305734030101474,0.5243057166222876,3.397889447363191,-0.008185766224170842,0.025,0.9999999999999923,-4.4878454552857585,0.2086200777769358,42,2026-10-07 23:31:25.392244,25.0,0.5311932186054104,0.9298293206718355,1.486928948044417
0053,cdot_cos,S,R-S,43,8,9332,-0.02457612630208777,-0.08507849018758246,-0.11226369589295733,0.05696897304884709,1061.0,0.6398916453426288,0.5243762922030719,3.4385653509961407,-0.002129844065225235,0.024,0.9999999999999913,85.80761350667142,0.21358721779860884,43,2026-10-07 23:31:25.416243,25.0,0.05822944627325116,0.45993942798434884,0.388260097186723
0053,cdot_cos,T,S-T,44,8,9637,-0.09010417474916757,0.04542153346687089,-0.0655280484470798,0.16270997270662338,1061.0,0.6526504955533962,0.524577858849309,3.4796559135992458,-0.0029668128607922666,0.305,0.9999999999999905,-4.152317911678322,0.2185543768574403,44,2026-10-07 23:31:25.721244,25.0,0.7541904090062416,0.08525999931112566,0.041832295773007844
0053,cdot_cos,P,T-P,45,9,10238,0.03362500337514878,0.0004305243035788067,0.12372917812431636,0.9566126011070536,1035.0,0.6919002449224154,0.5257627554640112,3.526923842940758,-0.009491702184955712,0.601,0.9999999999999901,-5.506716149917612,0.22352155786102162,45,2026-10-07 23:31:26.322243,25.0,0.5028663275551688,0.045374046540132024,0.06530740327623837
0053,cdot_cos,Q,P-Q,46,9,10346,-0.015409170854615963,-0.00922620681683512,-0.04903417422976474,0.22690783398041073,1035.0,0.7071900994946348,0.5260437700386655,3.5678025099681165,-0.0038472798217687146,0.108,0.9999999999999877,20.085870528707343,0.22848870343525185,46,2026-10-07 23:31:26.430244,25.0,0.23058855365951733,0.25251453757011855,0.14157272752055028
0053,cdot_cos,R,Q-R,47,9,10372,0.08696105292678419,0.0906129660424251,0.10237022378140015,0.9281928582718898,1035.0,0.746443385037561,0.5271931191425061,3.614254011187543,-0.010259566148096907,0.026,0.9999999999999868,-5.579058882024124,0.23345584293151955,47,2026-10-07 23:31:26.456243,25.0,0.535258429487946,0.948454684057072,1.5097417516510068
0053,cdot_cos,S,R-S,48,9,10402,-0.02103610706170676,-0.08082340790697976,-0.10799715998849095,0.06297754575156125,1035.0,0.7565097430656026,0.527271091755864,3.6530413598359535,-0.002720247844401157,0.03,0.999999999999986,96.69187653227587,0.23842298298830156,48,2026-10-07 23:31:26.486243,25.0,0.0625645998913337,0.3293480585523645,0.3355452676013856
0053,cdot_cos,T,S-T,49,9,10696,-0.13608151427747892,0.01681233093019162,-0.11504540721577215,0.053345973909306496,1035.0,0.7662042685507029,0.5273371384621328,3.691360048222358,-0.00265417333574362,0.294,0.9999999999999848,1.0004209504189452,0.2433901453518415,49,2026-10-07 23:31:26.780244,25.0,0.9754127426242277,0.08865826009350584,0.032974576479933
0053,cdot_cos,P,T-P,50,10,11273,0.03633144952726361,-0.0017094005622777361,0.17241296380474253,0.9867487569950348,1000.0,0.808640800000584,0.5285586396820626,3.7374740727821587,-0.01201276867223287,0.577,0.9999999999999841,-7.661552181689194,0.24835733348689468,50,2026-10-07 23:31:27.357243,25.0,0.4588398742533572,0.050354572564207584,0.07354684826669174
0053,cdot_cos,Q,P-Q,51,10,11370,-0.015473016770876563,-0.008595706536689736,-0.05180446629814017,0.21498886649408758,1000.0,0.8243134452897984,0.5288247306149111,3.7765640749098712,-0.004599971146885326,0.097,0.999999999999981,27.85813648738312,0.2533244789879747,51,2026-10-07 23:31:27.454243,25.0,0.1995904362515572,0.29584339947446164,0.16157366277540633
0053,cdot_cos,R,Q-R,52,10,11395,0.0947717375855631,0.09097381676819599,0.11024475435643967,0.9402579912289004,1000.0,0.8660344194986296,0.5299882900197215,3.821800023027477,-0.012672141813926691,0.025,0.9999999999999802,-6.937480487605009,0.25829161793999755,52,2026-10-07 23:31:27.479244,25.0,0.5288759949018101,1.0358192583480963,1.6688389683532456
0053,cdot_cos,S,R-S,53,10,11421,-0.02360774930931244,-0.07730309147275416,-0.11837948689487554,0.049290031901968005,1000.0,0.8761044082072033,0.5300492770372435,3.858817096489517,-0.0031522804986721022,0.026,0.9999999999999785,156.09652188387568,0.2632587572413208,53,2026-10-07 23:31:27.505243,25.0,0.04880161763626776,0.4233645111899908,0.3873072580220644
0053,cdot_cos,T,S-T,54,10,11715,-0.1106711102738805,0.041202752523311854,-0.08706336096456807,0.10187304758756878,1000.0,0.8880493740805091,0.5301753226659454,3.895977157314438,-0.003786354126198264,0.294,0.9999999999999768,-5.030508666237208,0.2682259241486781,54,2026-10-07 23:31:27.799244,25.0,0.8458080441826612,0.09535738959273977,0.04062913562348928
0053,cdot_cos,P,T-P,55,11,12273,0.03694506754585361,-0.001697861569423611,0.14761617781973413,0.9756460175088286,977.0,0.9321745532877342,0.531382274086314,3.940836542925006,-0.014427185579135615,0.558,0.9999999999999761,-8.816288106846347,0.273193120307622,55,2026-10-07 23:31:28.357243,25.0,0.4782822644615651,0.054006665843791005,0.07907738209180132
0053,cdot_cos,Q,P-Q,56,11,12369,-0.01667633819544405,-0.009371491728579505,-0.05362140574129766,0.20742206817622,977.0,0.9483208131621799,0.5316388247779998,3.9784208232222653,-0.005453638217715176,0.096,0.9999999999999724,34.97767752039026,0.278160266615028,56,2026-10-07 23:31:28.453243,25.0,0.1929307374838534,0.3119431202410813,0.16819020702547524
0053,cdot_cos,R,Q-R,57,11,12395,0.09465260005395848,0.0934700688898818,0.11132893824940253,0.9417624897839779,977.0,0.9920676323740218,0.5328034345663681,4.022577872729281,-0.01524215451058962,0.026,0.9999999999999716,-8.404975117536026,0.2831274052177136,57,2026-10-07 23:31:28.479244,25.0,0.5261334947540836,1.0471896823908913,1.6825699696862302
0053,cdot_cos,S,R-S,58,11,12421,-0.019882023527202575,-0.08736296258699051,-0.11453462358116105,0.05399453084842358,977.0,1.0027746766465062,0.5328701949986857,4.058218655276509,-0.0038351443920184337,0.026,0.999999999999969,170.8648329943356,0.2880945440932525,58,2026-10-07 23:31:28.505243,25.0,0.051081312942925616,0.4454408234885999,0.4118093950955526
0053,cdot_cos,T,S-T,59,11,12715,-0.10738940839038495,0.032313634945840476,-0.08750738486318238,0.10086187839412467,977.0,1.015230555195429,0.5329949004485456,4.09401166868162,-0.004513213434027983,0.294,0.9999999999999671,-5.437364948937387,0.2930617160402898,59,2026-10-07 23:31:28.799244,25.0,0.8605006961628752,0.09947212246888605,0.04236693383987356
0053,cdot_cos,P,T-P,60,12,13250,0.037184177082719344,-0.001494022567274977,0.14457358547310428,0.9737717443228312,939.0,1.0612642846582112,0.5341986557952813,4.137885166232832,-0.017157542635740305,0.535,0.999999999999966,-10.504068983785688,0.29802891986612234,60,2026-10-07 23:31:29.334244,25.0,0.4785691544067799,0.058514932423817445,0.08604435413604143
0053,cdot_cos,Q,P-Q,61,12,13347,-0.018197497068593218,-0.010325408518461544,-0.055381674151312565,0.20028054860117314,939.0,1.0778415328889137,0.534446189319105,4.174158378961204,-0.006364482871673247,0.097,0.9999999999999619,43.60241634078823,0.30299606732604345,61,2026-10-07 23:31:29.431243,25.0,0.18344751664848602,0.32107418159212986,0.17089946629590208
0053,cdot_cos,R,Q-R,62,12,13373,0.0946235659732779,0.10146773751241907,0.11282106304187112,0.9437750150495966,939.0,1.1235526758870844,0.5356124025444077,4.217416481661513,-0.01805492457311135,0.026,0.9999999999999605,-10.024274676189156,0.30796320547221034,62,2026-10-07 23:31:29.457243,25.0,0.5233560591750169,1.0988710374312176,1.758120884545027
0053,cdot_cos,S,R-S,63,12,13399,-0.014724544519209853,-0.10124004440204028,-0.10934811049248774,0.06101368267975761,939.0,1.134982826835337,0.5356877832711952,4.251890171444072,-0.004631751843184452,0.026,0.9999999999999577,178.07168094533193,0.3129303439137654,63,2026-10-07 23:31:29.483244,25.0,0.05512914051415574,0.44929329496551373,0.4396211903174083
0053,cdot_cos,T,S-T,64,12,13692,-0.11550077931341221,0.019350098473860405,-0.10077623479420236,0.07450890443747869,939.0,1.1469159272252911,0.5357798347615051,4.286238885018408,-0.004885450009858588,0.293,0.9999999999999551,-2.7560462717091396,0.3178975211930951,64,2026-10-07 23:31:29.776243,25.0,0.9493959542203732,0.10227431592389327,0.04072730508516757
0053,cdot_cos,P,T-P,65,13,14189,0.03223918264127468,-0.0014084576843906582,0.1477399619546869,0.9757194398334632,923.0,1.1949155759667385,0.5369850530259149,4.329312130716193,-0.020160228580924235,0.497,0.9999999999999541,-12.673869142321719,0.32286473022457857,65,2026-10-07 23:31:30.273243,25.0,0.4687578675283047,0.06457919681593098,0.0965787701035158
0053,cdot_cos,Q,P-Q,66,13,14287,-0.029966602567251963,-0.01618680081832651,-0.06220578520852664,0.17434446533852402,923.0,1.2111076488603265,0.5372003599373908,4.364236615951545,-0.0069867646528644686,0.098,0.9999999999999493,61.184584543800995,0.3278318790134233,66,2026-10-07 23:31:30.371244,25.0,0.15175491940987246,0.3280528896673697,0.1652252336080412
0053,cdot_cos,R,Q-R,67,13,14312,0.09550205911532457,0.10472251532360857,0.12546866168257653,0.9583821141602911,923.0,1.259213942341543,0.538383665265719,4.406860493238019,-0.021304579834672346,0.025,0.9999999999999486,-12.0998484829238,0.33279901656619304,67,2026-10-07 23:31:30.396243,25.0,0.510658916607809,1.2157299014365686,1.924251739248657
0053,cdot_cos,S,R-S,68,13,14340,-0.0016497531240525973,-0.13121475612926223,-0.09715181223937716,0.0810031013093352,923.0,1.271894143932155,0.5384836593969526,4.440450277194405,-0.005753617714009065,0.028,0.9999999999999448,155.5187482386328,0.33776615493852435,68,2026-10-07 23:31:30.424243,25.0,0.06701662018561227,0.5034293272298896,0.45286434252185737
0053,cdot_cos,T,S-T,69,13,14629,-0.07099738581506268,0.009759391977902716,-0.06934763269101009,0.1501160923364576,923.0,1.2874059846664168,0.5386689617416437,4.47452071870669,-0.007116455270688708,0.289,0.9999999999999414,-7.354669790886106,0.342733337614812,69,2026-10-07 23:31:30.713243,25.0,0.8257154048480352,0.1098848411605579,0.053674189391909405
0053,cdot_cos,P,T-P,70,14,15112,0.033320987412475016,-0.0028708995083376663,0.1043183732275377,0.9313720752690772,895.0,1.3354075821229574,0.5398184007050548,4.516445064245985,-0.02256028515650034,0.483,0.9999999999999405,-13.435972137206631,0.34770055546971873,70,2026-10-07 23:31:31.196243,25.0,0.5043129481170513,0.06703185848384521,0.09938218935101584
0053,cdot_cos,Q,P-Q,71,14,15203,-0.029222799691192833,-0.015058017938174682,-0.06254378710366784,0.17313143915275364,895.0,1.3521587599618112,0.540032021983178,4.550391029849522,-0.008066705362658105,0.091,0.999999999999934,67.84707928525859,0.3526677043491119,71,2026-10-07 23:31:31.287244,25.0,0.16584259739198154,0.36756950906347374,0.18407887735004205
0053,cdot_cos,R,Q-R,72,14,15229,0.10303118140818024,0.10926724952359276,0.13225398109937309,0.9646459956667094,895.0,1.4023052327725096,0.5412219960158653,4.592421258513076,-0.024740020517977985,0.026,0.9999999999999332,-14.011494954782393,0.35763484164924764,72,2026-10-07 23:31:31.313244,25.0,0.5096958825196405,1.215577231894877,1.9287104927191692
0053,cdot_cos,S,R-S,73,14,15258,0.0048709249992588246,-0.1549722870116261,-0.09816025640892141,0.07914606136856486,895.0,1.4153687760203448,0.5413196088280422,4.625037101823744,-0.006592652864859111,0.029,0.999999999999929,185.9117389244967,0.36260197986955595,73,2026-10-07 23:31:31.342243,25.0,0.06375769266055645,0.4798469572270067,0.4504670085460416
0053,cdot_cos,T,S-T,74,14,15551,-0.07501474631160596,0.006647146542918341,-0.07988567131086478,0.11950334327098362,895.0,1.430136356291676,0.5414669892715458,4.657875500300078,-0.007525854999420714,0.293,0.999999999999925,-6.331926491582477,0.3675691697159651,74,2026-10-07 23:31:31.635243,25.0,0.8833802969446048,0.11089995518685501,0.05040129785437264
0053,cdot_cos,P,T-P,75,15,16007,0.03764784095589221,-0.001444180331199365,0.11266258726749817,0.9435644121287703,944.0,1.4803561497598419,0.5426304064922608,4.6993175336731525,-0.026167206439282,0.456,0.9999999999999235,-16.02292892691142,0.3725363936450161,75,2026-10-07 23:31:32.091244,25.0,0.4904687856377517,0.07531503531510393,0.1101311260266795
0053,cdot_cos,Q,P-Q,76,15,16102,-0.01797459879907902,-0.010046616502653634,-0.05562243975497123,0.1993182124746739,944.0,1.4988236684990508,0.5428761072909404,4.732684591200219,-0.009848825782072466,0.095,0.9999999999999173,66.41565979803872,0.37750354467638053,76,2026-10-07 23:31:32.186244,25.0,0.19073201311351853,0.3680864680055439,0.19439493409693612
0053,cdot_cos,R,Q-R,77,15,16129,0.10455603635581442,0.10918731414222091,0.12253063515489344,0.9553518094788397,944.0,1.5502925786808952,0.5440534837445017,4.774050362491752,-0.02808141509423157,0.027,0.999999999999916,-15.48577709109902,0.38247068177051696,77,2026-10-07 23:31:32.213243,25.0,0.5224238664714879,1.1735643311880557,1.906255932660904
0053,cdot_cos,S,R-S,78,15,16160,-0.01992949276797725,-0.07688582934116522,-0.12448552912379168,0.04260933245959089,944.0,1.5621961423832058,0.5441059841564886,4.805414356206918,-0.0066294381452708445,0.031,0.9999999999999107,408.6058782607933,0.38743782010293276,78,2026-10-07 23:31:32.244244,25.0,0.03932611325894959,0.36641767027507083,0.38398592588098723
0053,cdot_cos,T,S-T,79,15,16449,-0.17802064739368692,-0.013631631399761113,-0.15809115462570966,0.018848771503282933,944.0,1.5730104742379496,0.5441292080581891,4.83632660859458,-0.006066723593520804,0.289,0.9999999999999059,24.22997474785706,0.39240501575717,79,2026-10-07 23:31:32.533243,25.0,0.9114174303486509,0.1123264042766258,0.037419833407417946
0053,cdot_cos,P,T-P,80,16,16951,0.030316440419630022,0.0005950739228162201,0.20833708781331695,0.9945594904669457,1016.0,1.6271208040550955,0.5453543475981127,4.877798023326659,-0.030970223152378566,0.502,0.9999999999999046,-20.327071935340346,0.39737226123146696,80,2026-10-07 23:31:33.035244,25.0,0.4474855290562592,0.07326518427590074,0.10778950162778071
0053,cdot_cos,Q,P-Q,81,16,17058,-0.023103245300658583,-0.013283981324900631,-0.0534196857202886,0.20825235145120743,1016.0,1.646568719250954,0.545610812451893,4.910497821144769,-0.011385865161231695,0.107,0.999999999999897,76.36273626765737,0.40233941636762643,81,2026-10-07 23:31:33.142244,25.0,0.1790556124486174,0.3389151061795178,0.18175621678372358
0053,cdot_cos,R,Q-R,82,16,17084,0.09892839475244077,0.10487944500066736,0.12203164005309936,0.9548166640190158,1016.0,1.6996486367775123,0.5467863668524454,4.951361659586283,-0.031750426655085984,0.026,0.9999999999998955,-17.32336800771193,0.40730655260091975,82,2026-10-07 23:31:33.168243,25.0,0.5265574204971657,1.267422107706712,2.041535289483015
0053,cdot_cos,S,R-S,83,16,17115,-0.014743554355017254,-0.10434442389061943,-0.11367194910745802,0.055106802969296376,1016.0,1.712474668851703,0.5468541976352903,4.982079364781469,-0.007822959675490838,0.031,0.9999999999998892,352.75233420658316,0.41227369045736756,83,2026-10-07 23:31:33.199244,25.0,0.04695240855337051,0.4464784949027399,0.41374297013518196
0053,cdot_cos,T,S-T,84,16,17408,-0.10245753959714099,0.03538882510380635,-0.08771398524212373,0.10039443478875819,1016.0,1.7273303034614822,0.5469777683415769,5.013134574652752,-0.009133952723537883,0.293,0.9999999999998834,-10.609254308274327,0.4172408941987768,84,2026-10-07 23:31:33.492243,25.0,0.866295113158459,0.11818485202459399,0.05070182460675507
0053,cdot_cos,P,T-P,85,17,17967,0.02912272101016221,-0.0006735254293756476,0.1315802606073032,0.9640670628484669,1058.0,1.781730992138115,0.5481640954446666,5.05382380604155,-0.03410603329092161,0.559,0.999999999999882,-21.049911531435846,0.42220816798887434,85,2026-10-07 23:31:34.051244,25.0,0.48085498904714363,0.06777179928287425,0.09731786883118575
0053,cdot_cos,Q,P-Q,86,17,18073,-0.01764161432825656,-0.009694942693701261,-0.04676433533841877,0.23701618596506363,1058.0,1.8030991750597356,0.5484556710521351,5.086169288894578,-0.013684301664323183,0.106,0.999999999999873,70.03923203282386,0.4271753244673507,86,2026-10-07 23:31:34.157243,25.0,0.2248442425087389,0.3557090664033636,0.20158663133604313
0053,cdot_cos,R,Q-R,87,17,18098,0.09301581953540058,0.09092943547872322,0.11065743386365715,0.9408349008388778,1058.0,1.8571413142156281,0.5496127493671592,5.1264470914963125,-0.03532072199772766,0.025,0.9999999999998703,-18.699184015866635,0.4321424595944224,87,2026-10-07 23:31:34.182244,25.0,0.5419561633590122,1.3483742548808841,2.1616855662357004
0053,cdot_cos,S,R-S,88,17,18122,-0.01799763176540913,-0.10506448174972438,-0.11101345130080971,0.05867159960644501,1058.0,1.8705178878037798,0.5496848885249738,5.156501974051602,-0.008903401191597538,0.024,0.9999999999998631,366.1994623507529,0.43710959483662615,88,2026-10-07 23:31:34.206244,25.0,0.05145207973806849,0.7588980274015102,0.557357232839654
0053,cdot_cos,T,S-T,89,17,18428,-0.05865111398168507,0.030535554013173743,-0.040653482216275946,0.26574151156710335,1058.0,1.8935684195309006,0.5500116024989352,5.1887997264055485,-0.015490242791190954,0.306,0.9999999999998573,-20.160881151568706,0.44207681019990774,89,2026-10-07 23:31:34.512243,25.0,0.6536225723011364,0.12403425171612416,0.0753285350559503
0053,cdot_cos,P,T-P,90,18,19025,0.02774879650403308,-0.0013827230766319842,0.08639991048571816,0.8965993410725293,1061.0,1.9464268498540478,0.551113600179626,5.228323369677637,-0.03622155247159425,0.597,0.9999999999998548,-18.81248031974861,0.44704411219389034,90,2026-10-07 23:31:35.109244,25.0,0.5641995076602935,0.06258427977057131,0.08854008429337888
0053,cdot_cos,Q,P-Q,91,18,19123,-0.0197069604201255,-0.00923825075629141,-0.04745575692415858,0.23390450001768112,1061.0,1.9682940495769627,0.5514010068536382,5.260031148806071,-0.015274407084855848,0.098,0.9999999999998433,72.88329492948155,0.4520112679649796,91,2026-10-07 23:31:35.207244,25.0,0.253754390727779,0.39540551470773166,0.22313469105015257
0053,cdot_cos,R,Q-R,92,18,19149,0.0912934906264811,0.08212210401224232,0.1110004510466066,0.9413104479637514,1061.0,2.023926330736763,0.5525572791221615,5.299944035229165,-0.039609618378284424,0.026,0.9999999999998407,-21.04626389121079,0.45697840240810217,92,2026-10-07 23:31:35.233243,25.0,0.5409781912504389,1.3250235163299553,2.1397031215307867
0053,cdot_cos,S,R-S,93,18,19174,-0.028204346691159128,-0.088111667543485,-0.11949783731764022,0.047996257222277613,1061.0,2.0371952724261204,0.5526162208977822,5.329238639502161,-0.009610161417612253,0.025,0.999999999999831,508.96764891707386,0.4619455369622646,93,2026-10-07 23:31:35.258244,25.0,0.044084843624857775,0.6445032233930714,0.5307576675742887
0053,cdot_cos,T,S-T,94,18,19466,-0.0925430803830219,0.05043541229324294,-0.06433873369186277,0.16680137271086806,1061.0,2.0561514919064168,0.5528210497164808,5.359799735570974,-0.013836961282028794,0.292,0.999999999999823,-20.635767424090034,0.466912756385993,94,2026-10-07 23:31:35.550244,25.0,0.7367757670686351,0.13042936348832204,0.06491855986402861
0053,cdot_cos,P,T-P,95,19,20086,0.031049683413645935,-0.001119575829648994,0.12359276379666784,0.9564708337960619,1060.0,2.1133660207033005,0.5539952289649089,5.3996784156801905,-0.04251891628485685,0.62,0.99999999999982,-24.427237188210416,0.47188008428135825,95,2026-10-07 23:31:36.170244,25.0,0.5093757686041985,0.06423151708969461,0.09228149805948986
0053,cdot_cos,Q,P-Q,96,19,20189,-0.016614529329952374,-0.008926273631155607,-0.047664212743598305,0.23297194876915228,1060.0,2.135798573097638,0.5542811384164045,5.4308248185911205,-0.01698704712048678,0.103,0.9999999999998066,89.30054263969895,0.47684724316068144,96,2026-10-07 23:31:36.273243,25.0,0.22245735497160218,0.3849175167656839,0.2177917708188118
0053,cdot_cos,R,Q-R,97,19,20214,0.09036200940735441,0.08485381809727094,0.10697653873730678,0.9354998519574871,1060.0,2.1926590291570314,0.555428845495719,5.470340699546588,-0.04383870790470233,0.025,0.9999999999998026,-23.395918059730207,0.48181437619485945,97,2026-10-07 23:31:36.298244,25.0,0.541988597863546,1.4296918254793578,2.274418242375731
0053,cdot_cos,S,R-S,98,19,20237,-0.014260460595801994,-0.14082670802157127,-0.1046224700031564,0.06814358299730676,1060.0,2.207283164371606,0.5555124237044025,5.499293407080057,-0.011460804551562204,0.023,0.9999999999997916,387.3964740710976,0.48678150898094563,98,2026-10-07 23:31:36.321243,25.0,0.059302806905759994,0.9135173656344107,0.6358319658510704
0053,cdot_cos,T,S-T,99,19,20542,-0.043119061252456035,0.023140078771589117,-0.028858600656654042,0.32707045794463757,1060.0,2.2346808279762143,0.5559135323246526,5.531270788995504,-0.021672443526542857,0.305,0.9999999999997838,-25.458537811062644,0.4917487419238249,99,2026-10-07 23:31:36.626244,25.0,0.624264709900771,0.13537246064861896,0.08982840526101071
0053,cdot_cos,P,T-P,100,20,21146,0.03820890805859504,0.0008296367559004253,0.08132796931105107,0.8842389555282268,1058.0,2.2898603653672636,0.5569975681251925,5.569976723113179,-0.04443820802677424,0.604,0.9999999999997793,-21.000934183992737,0.49671608573316106,100,2026-10-07 23:31:37.230243,25.0,0.5991150752153401,0.0653905331269164,0.09135684998518097
0053,cdot_cos,Q,P-Q,101,20,21258,-0.006116374631911412,-0.004669903968553449,-0.04432528269050645,0.24821929294594916,1058.0,2.3136725919935293,0.5573017763167684,5.600814707796928,-0.01950895475692455,0.112,0.9999999999997633,81.94800127081672,0.5016832498491959,101,2026-10-07 23:31:37.342243,25.0,0.2786395024047616,0.361280631276138,0.21260916630594373
0053,cdot_cos,R,Q-R,102,20,21284,0.08680237185711027,0.09238197522703981,0.09291874648902168,0.9107615130265792,1058.0,2.3707872267731185,0.5584176013609995,5.639742514901869,-0.04759072259655334,0.026,0.9999999999997582,-25.166819820735174,0.5066503821389656,102,2026-10-07 23:31:37.368243,25.0,0.5542895295828648,1.381345175346613,2.1967167222918933
0053,cdot_cos,S,R-S,103,20,21310,-0.021907372783864287,-0.046273150481447776,-0.10870974464097456,0.06193442940872782,1058.0,2.385502541111553,0.5584934594189841,5.668090752181014,-0.01244909038819906,0.026,0.9999999999997446,463.25509961628336,0.5116175149086635,103,2026-10-07 23:31:37.394243,25.0,0.05943765683473647,0.5379068946807295,0.5659736284013327
0053,cdot_cos,T,S-T,104,20,21604,-0.15622775053884813,0.03235369105902672,-0.13432037775498384,0.03363386155373086,1058.0,2.3987583852965164,0.5585346534465182,5.695959387299695,-0.011280115077611267,0.294,0.9999999999997315,28.377300802158555,0.5165847526347155,104,2026-10-07 23:31:37.688244,25.0,0.9015574549516433,0.12811771124578955,0.04508790539103158
0053,cdot_cos,P,T-P,105,21,22204,0.045562410629679924,0.00021668583102399505,0.20179016116852805,0.9935982021019448,1055.0,2.4608357553240774,0.5597512252536259,5.735744506899289,-0.05362546116539159,0.6,0.999999999999727,-34.80710784220323,0.5215521142570372,105,2026-10-07 23:31:38.288243,25.0,0.45400366301738343,0.07091395588885312,0.1034622833792683
0053,cdot_cos,Q,P-Q,106,21,22311,-0.004711647005297218,-0.0033445425969732367,-0.050274057634977144,0.22151637527948134,1055.0,2.48385513236314,0.5600223548855592,5.765784442269498,-0.020230807471211115,0.107,0.9999999999997083,123.16858712954453,0.526519278305386,106,2026-10-07 23:31:38.395243,25.0,0.19191874797878652,0.3838728474859143,0.21513436485105383
0053,cdot_cos,R,Q-R,107,21,22336,0.09482068566356995,0.09404189882634283,0.09953233266886717,0.9233181142105785,1055.0,2.542984544686063,0.5611520820427897,5.804603698147248,-0.052800463777867436,0.025,0.9999999999997026,-28.829665727874314,0.5314864090346523,107,2026-10-07 23:31:38.420243,25.0,0.5396448002839912,1.4791031011362499,2.365176492916916
0053,cdot_cos,S,R-S,108,21,22360,-0.01701867419702555,-0.02514999694496227,-0.1118393598605955,0.057541579361054626,1055.0,2.5578102874199526,0.5612224662689018,5.832396382109659,-0.013433162953300075,0.024,0.9999999999996868,559.3199357173028,0.5364535398402908,108,2026-10-07 23:31:38.444243,25.0,0.053364717648993636,0.5590666764827187,0.617739280578733
0053,cdot_cos,T,S-T,109,21,22663,-0.2401876252213447,0.03160939604104232,-0.22316895102431916,0.0037612942652528606,1055.0,2.5698197451572335,0.5612270669568827,5.859384026770211,-0.01093863322649213,0.303,0.9999999999996713,542.207977840616,0.5414207902663725,109,2026-10-07 23:31:38.747243,25.0,0.7960863162996477,0.12512872162365304,0.03963517405043203
0053,cdot_cos,P,T-P,110,22,23259,0.04786603785950708,-0.0028782847623559276,0.2880536630808518,0.9992549706050754,1023.0,2.6336382927238864,0.5624489466213904,5.899015822366422,-0.058951563998049045,0.596,0.9999999999996664,-39.294320190606655,0.5463881703949973,110,2026-10-07 23:31:39.343244,25.0,0.44288412706289026,0.07273836255103491,0.10707809994404839
0053,cdot_cos,Q,P-Q,111,22,23355,-0.005356087124720096,-0.003520813382731605,-0.053222124984227175,0.20906788663640383,1023.0,2.656523873318067,0.562704497573063,5.928461415392289,-0.021489724286160496,0.096,0.9999999999996446,146.59244845973353,0.5513553313752649,111,2026-10-07 23:31:39.439244,25.0,0.17495187972164397,0.43666994725623476,0.23839146452271642
0053,cdot_cos,R,Q-R,112,22,23382,0.09963139930436721,0.09242190145175318,0.1049874864290873,0.9324336022832632,1023.0,2.7174789225970835,0.5638438365710966,5.967163962744907,-0.05811027632566382,0.027,0.9999999999996385,-32.14192799746673,0.5563224618350257,112,2026-10-07 23:31:39.466244,25.0,0.532490279113034,1.4007193311715602,2.2575944177413443
0053,cdot_cos,S,R-S,113,22,23410,-0.01912807995470145,-0.026809789176009225,-0.11875947925906866,0.04884676710531006,1023.0,2.7321627172013314,0.5639035038842946,5.994378154517731,-0.014195090741583722,0.028,0.9999999999996197,736.000721842234,0.5612895932975224,113,2026-10-07 23:31:39.494244,25.0,0.04533444045060987,0.48101540849868457,0.5244212358659984
0053,cdot_cos,T,S-T,114,22,23703,-0.24414464246221676,0.02154567054034696,-0.2250165625075153,0.003592120256576332,1023.0,2.74441578547301,0.5639078916587692,6.020890371267266,-0.011903786072917295,0.293,0.9999999999996012,522.2020142344395,0.566256848550638,114,2026-10-07 23:31:39.787244,25.0,0.8249063863557698,0.1322424763110167,0.04181934563712758
0053,cdot_cos,P,T-P,115,23,24282,0.04717840451246741,0.00036126411310698946,0.29132304697468414,0.9993134029731562,1015.0,2.809656808319587,0.5651281618706211,6.060326141361423,-0.06423697176431743,0.579,0.9999999999995967,-42.886555111411624,0.571224241554171,115,2026-10-07 23:31:40.366244,25.0,0.4427767931528971,0.07659181027857592,0.11267879593536685
0053,cdot_cos,Q,P-Q,116,23,24390,-0.005694147424625459,-0.004281336323680717,-0.052872551937092865,0.21051668296854165,1015.0,2.8331091017756007,0.5653851255084918,6.089386098817397,-0.02345691215523959,0.108,0.9999999999995722,158.69972867363035,0.5761914099988832,116,2026-10-07 23:31:40.474244,25.0,0.17578224640835316,0.39424300942598456,0.2171508653334585
0053,cdot_cos,R,Q-R,117,23,24415,0.09290893136860305,0.09913541566315873,0.09860307879322851,0.9216570328506238,1015.0,2.8948132983556,0.5665097152119271,6.127741442066015,-0.06260990824773696,0.025,0.999999999999565,-34.815360635882904,0.5811585383610385,117,2026-10-07 23:31:40.499244,25.0,0.5350750601363747,1.5420401610954926,2.468167863199966
0053,cdot_cos,S,R-S,118,23,24445,-0.019641348415715392,-0.03387391128711381,-0.11255027978431845,0.0565852852606416,1015.0,2.9102111098303753,0.566578737389023,6.154622418378523,-0.01583354162643631,0.03,0.9999999999995446,677.7005390063756,0.5861256698003882,118,2026-10-07 23:31:40.529243,25.0,0.052117318588508994,0.469622708422716,0.513260382492516
0053,cdot_cos,T,S-T,119,23,24741,-0.2088318911178046,0.0031497019341801247,-0.1891905427020892,0.008751296817751775,1015.0,2.922990660860963,0.5665894119046402,6.180762746643367,-0.013204899748717552,0.296,0.9999999999995233,246.25397273129929,0.5910929361219123,119,2026-10-07 23:31:40.825243,25.0,0.8194960962374862,0.13401281390272618,0.043174158887119854
0053,cdot_cos,P,T-P,120,24,25297,0.03837817721453062,-0.0022345196167403397,0.24721006833233522,0.9979343688875072,982.0,2.9895466956607892,0.5678062485228935,6.220007867876443,-0.06966016447046741,0.556,0.9999999999995182,-46.3951066847302,0.596060338429573,120,2026-10-07 23:31:41.381243,25.0,0.4446631311635224,0.08099878298085639,0.11970509856083886
0053,cdot_cos,Q,P-Q,121,24,25392,-0.016365419410692247,-0.008542852396218303,-0.054743596625222865,0.20284776230914497,982.0,3.013061307535675,0.5680534924883085,6.248590653515256,-0.024982823461428223,0.095,0.9999999999994919,180.70144172801957,0.6010275022575551,121,2026-10-07 23:31:41.476243,25.0,0.16724050918544484,0.4618451364183876,0.24752223026195688
0053,cdot_cos,R,Q-R,122,24,25418,0.09689335793254106,0.09387720673833323,0.11325877734323331,0.9443528720169294,982.0,3.077297271580283,0.569204082584532,6.28706684365236,-0.06919985708392336,0.026,0.9999999999994842,-38.42987504205379,0.6059946300829235,122,2026-10-07 23:31:41.502244,25.0,0.5278327567845227,1.5257838701118616,2.4706140017156826
0053,cdot_cos,S,R-S,123,24,25443,-0.02464244049249228,-0.06712189962065714,-0.12153579842503334,0.0457211487780676,982.0,3.092402068781492,0.5692597699184783,6.313398519062751,-0.01648349736392329,0.025,0.9999999999994615,946.649013057456,0.6109617579406391,123,2026-10-07 23:31:41.527244,25.0,0.0408385197030881,0.5855216952021536,0.6041918880483621
0053,cdot_cos,T,S-T,124,24,25740,-0.16452262751572083,0.014961338780893943,-0.13988018702322855,0.029397577051329227,982.0,3.1065733563403906,0.5692955745828974,6.339409483366803,-0.015537849295666416,0.297,0.9999999999994384,26.411309353100012,0.6159290351066269,124,2026-10-07 23:31:41.824243,25.0,0.9409540825055713,0.1378027765549326,0.047714772925584605
0053,cdot_cos,P,T-P,125,25,26279,0.03761136180074344,-0.0010063099425144158,0.20213398931646426,0.9936526464489494,956.0,3.174256918055122,0.5705053614855806,6.378446207774321,-0.07513845129637439,0.539,0.999999999999433,-49.2653721647313,0.6208964493441537,125,2026-10-07 23:31:42.363244,25.0,0.4523901022888161,0.08504325594613757,0.12557247071378724
0053,cdot_cos,Q,P-Q,126,25,26380,-0.017085204430841463,-0.010286453082034748,-0.054696566231584906,0.2030379497450274,956.0,3.198249986250327,0.5707524601023661,6.406683025267926,-0.027020677019705196,0.101,0.9999999999994048,194.73105476117067,0.6258636185390564,126,2026-10-07 23:31:42.464243,25.0,0.1685073277423282,0.4422726653899108,0.23755513064559375
0053,cdot_cos,R,Q-R,127,25,26405,0.09375978637859299,0.10189073171235706,0.11084499080943445,0.9410953689764454,956.0,3.263595996463884,0.5718973174457177,6.444958030837789,-0.07457378452798123,0.025,0.9999999999993974,-41.53627330464106,0.6308307447751764,127,2026-10-07 23:31:42.489243,25.0,0.5285249827240833,1.6290095135892635,2.6138404085422806
0053,cdot_cos,S,R-S,128,25,26430,-0.017463670653709122,-0.07654232912532773,-0.1112234570323021,0.05838230912835302,956.0,3.27970046192979,0.5719683152231657,6.471085366211308,-0.01860952692884126,0.025,0.9999999999993723,788.2536554066041,0.6357978716076893,128,2026-10-07 23:31:42.514244,25.0,0.04942540488846485,0.6058584583558257,0.6441786186362464
0053,cdot_cos,T,S-T,129,25,26719,-0.16424837920766264,-0.007638084634703373,-0.1467847085539535,0.02485280721870348,956.0,3.293888919381675,0.5719985374190835,6.496657113032578,-0.01647109467755679,0.289,0.9999999999993469,70.75701107570693,0.6407651548833267,129,2026-10-07 23:31:42.803244,25.0,0.8782452514746492,0.1439831160209873,0.04909500848403159
0053,cdot_cos,P,T-P,130,26,27235,0.039761682739937534,-0.0018222638675708237,0.20401006194760019,0.9939417134181391,939.0,3.3629227029899207,0.5732067751520714,6.535565467893865,-0.08109634275475662,0.516,0.9999999999993416,-53.48719570061996,0.6457325768531428,130,2026-10-07 23:31:43.319244,25.0,0.45072642096622473,0.09122779191897734,0.13378640234156108
0053,cdot_cos,Q,P-Q,131,26,27333,-0.012123980357504888,-0.007567964642904757,-0.05188566309744242,0.21464647783781196,939.0,3.38803600064206,0.573467585726418,6.56363940622197,-0.029914009198011626,0.098,0.9999999999993116,196.2433221313061,0.6506997466281353,131,2026-10-07 23:31:43.417243,25.0,0.18068825586874468,0.46731633641270376,0.2562581393075418
0053,cdot_cos,R,Q-R,132,26,27358,0.09707265647958913,0.10456227777143084,0.10919663683709402,0.9387690043452399,939.0,3.4545167049268106,0.5746077742128181,6.601743623208191,-0.0802082975271319,0.025,0.9999999999993048,-44.11050359569483,0.6556668719318313,132,2026-10-07 23:31:43.442244,25.0,0.5341674285266754,1.6446752308458645,2.6592281713900334
0053,cdot_cos,S,R-S,133,26,27388,-0.02330354298280566,-0.048309272941027666,-0.12037619946239478,0.04700279124716987,939.0,3.470269762184353,0.5746648410316088,6.627361160766804,-0.019233648734110858,0.03,0.9999999999992774,1068.4781469360917,0.6606340010231847,133,2026-10-07 23:31:43.472243,25.0,0.0419949020048063,0.48985398897198884,0.5251019085847464
0053,cdot_cos,T,S-T,134,26,27679,-0.20428940618401056,-0.028250285617292828,-0.1809858632012049,0.010722329870138613,939.0,3.48390794426513,0.5746778589001756,6.652380079198817,-0.016722040291026717,0.291,0.9999999999992492,192.9354586873308,0.665601296483909,134,2026-10-07 23:31:43.763244,25.0,0.8605380138588867,0.1446466496028029,0.04686660508858055
0053,cdot_cos,P,T-P,135,27,28174,0.03570197822675058,-0.0020553310387691603,0.23999138441076115,0.9975268455256574,942.0,3.5544541122531843,0.5758884905627,6.691222628312602,-0.08747983893610903,0.495,0.9999999999992442,-58.447008149070484,0.6705687260726996,135,2026-10-07 23:31:44.258244,25.0,0.44537131718550343,0.09560687552370296,0.1425175110869785
0053,cdot_cos,Q,P-Q,136,27,28271,-0.022489530383975533,-0.012238801029044514,-0.05819150861072611,0.18926582536709358,942.0,3.578558751033596,0.5761180875473502,6.718636945448216,-0.03028827497789008,0.097,0.9999999999992107,249.09544890301677,0.6755358975564575,136,2026-10-07 23:31:44.355244,25.0,0.15133777137548587,0.47589956892362023,0.24850143072589256
0053,cdot_cos,R,Q-R,137,27,28297,0.09324227970077982,0.09901671633021253,0.11573181008475536,0.9475140003438864,942.0,3.6467786286243666,0.5772670139468452,6.756740433872309,-0.08676736865201375,0.026,0.9999999999992046,-49.158147727257756,0.6805030225979454,137,2026-10-07 23:31:44.381243,25.0,0.5215628417917241,1.6368113673977691,2.6238414457988752
0053,cdot_cos,S,R-S,138,27,28323,-0.01552376093042359,-0.1017388687383198,-0.1087660406312034,0.061852711910452975,942.0,3.66367294213828,0.577341985731106,6.782235941912422,-0.02173959907529106,0.026,0.9999999999991753,867.3632382892288,0.6854701482781281,138,2026-10-07 23:31:44.407244,25.0,0.050226479183934934,0.6537186654197874,0.6497812889966631
0053,cdot_cos,T,S-T,139,27,28618,-0.1216963508793017,0.021658591442444957,-0.1061725899488781,0.0657235697702668,942.0,3.6807719992261956,0.5774216454848353,6.807704067525211,-0.022104259753065736,0.295,0.9999999999991463,-4.5777279077909645,0.6904374580801836,139,2026-10-07 23:31:44.702244,25.0,0.9836380319456932,0.14911075813457408,0.0579629053827651
0053,cdot_cos,P,T-P,140,28,29116,0.036215465239850766,-0.00038856629509049817,0.15791181611915245,0.9810681344877797,979.0,3.7516482894376786,0.5786102608272058,6.8462123278136,-0.09265008093565097,0.498,0.9999999999991417,-59.35126248824526,0.6954049112566355,140,2026-10-07 23:31:45.200243,25.0,0.467001821219282,0.09742695236848814,0.14232186789454418
0053,cdot_cos,Q,P-Q,141,28,29223,-0.01516917223756596,-0.009369091166056767,-0.05138463747741673,0.2167655134635134,979.0,3.7778092437852098,0.5788727612526847,6.8737368151487654,-0.034638431621964276,0.107,0.9999999999991072,220.99640108333224,0.700372092305268,141,2026-10-07 23:31:45.307244,25.0,0.18734994998479024,0.44331518943612536,0.24449490044421668
0053,cdot_cos,R,Q-R,142,28,29248,0.09139512766559464,0.10220701220819932,0.1065642999031606,0.9348751928270884,979.0,3.8465177399770094,0.5800043713206443,6.9115534183223,-0.09205183842457602,0.025,0.9999999999991008,-50.73603392919098,0.7053392156596029,142,2026-10-07 23:31:45.332243,25.0,0.5359537897666603,1.7157168617614538,2.7483398476719856
0053,cdot_cos,S,R-S,143,28,29271,-0.01874775552767528,-0.06512525281731867,-0.11014288319326992,0.05988522924768474,979.0,3.8635950868732825,0.5800768302561727,6.936713648048682,-0.02313561325781839,0.023,0.9999999999990682,951.1073363714773,0.7103063381998664,143,2026-10-07 23:31:45.355244,25.0,0.05085412871563716,0.6890750959650672,0.7424933433162195
0053,cdot_cos,T,S-T,144,28,29575,-0.17643697128271843,-0.007269039481965595,-0.15768921575504316,0.01903550411890803,979.0,3.8782151943914025,0.5800998617965909,6.9612020015306,-0.0198877845733065,0.304,0.9999999999990359,141.01656361425296,0.7152736666770023,144,2026-10-07 23:31:45.659244,25.0,0.8493297954242216,0.14406874006207024,0.04809245894118434
0053,cdot_cos,P,T-P,145,29,30095,0.03767169284275311,-0.0020465640936331844,0.21410866412547153,0.9952870474391059,961.0,3.951188880831021,0.5813035966601195,6.999826041081892,-0.10030941612468217,0.52,0.9999999999990312,-66.8100874935418,0.7202411580625678,145,2026-10-07 23:31:46.179244,25.0,0.4485497778498605,0.09502444108902382,0.14033401238388202
0053,cdot_cos,Q,P-Q,146,29,30194,-0.016764377261026194,-0.009853364594633488,-0.05443607010377931,0.20409378294742161,961.0,3.9770406131239873,0.5815503157300085,7.02690326256996,-0.03597832164761388,0.099,0.9999999999989934,260.74633998104906,0.7252083358371737,146,2026-10-07 23:31:46.278244,25.0,0.1672857971421712,0.48567210643622666,0.2611286090198597
0053,cdot_cos,R,Q-R,147,29,30220,0.09454457262643609,0.09981183454679159,0.11130894988746229,0.9417350767392317,961.0,4.047351957905394,0.582688203399564,7.06472311094431,-0.09896438304315677,0.026,0.9999999999989867,-55.35349672973356,0.7301754587760939,147,2026-10-07 23:31:46.304243,25.0,0.5291666772447546,1.6793683786245224,2.704282491592568
0053,cdot_cos,S,R-S,148,29,30245,-0.019861666729812665,-0.08008020455984072,-0.11440623935624876,0.05415870956512019,961.0,4.064367768812462,0.5827536160982442,7.089507819167653,-0.024209603129618548,0.025,0.9999999999989515,1142.8175479962674,0.73514258160719,148,2026-10-07 23:31:46.329243,25.0,0.04560147691256508,0.6861340411614947,0.6806324362827354
0053,cdot_cos,T,S-T,149,29,30535,-0.13056877366410086,0.030479315775215263,-0.11070710693428819,0.05909601121352754,961.0,4.081658659963469,0.582824988729685,7.114289737581912,-0.024703822862913206,0.29,0.999999999998918,-6.924499255771265,0.7401099119274661,149,2026-10-07 23:31:46.619244,25.0,0.9801929884144083,0.15657361113926993,0.05962376258967707
0053,cdot_cos,P,T-P,150,30,31056,0.03360609676373657,0.00018458754319883154,0.16417487042783743,0.9837674613142493,955.0,4.155180463273239,0.5840126123884326,7.152668763087477,-0.10612643666344082,0.521,0.9999999999989125,-68.55927229202592,0.745077428075694,150,2026-10-07 23:31:47.140243,25.0,0.4643007708268789,0.09630365928748477,0.14111670500915585
0053,cdot_cos,Q,P-Q,151,30,31165,-0.018683153814690722,-0.011879841447639046,-0.05228925057842729,0.2129505225795584,955.0,4.182007072941028,0.5842695626133678,7.1796291108262755,-0.03918816562751097,0.109,0.9999999999988723,260.5106535820585,0.7500446165246205,151,2026-10-07 23:31:47.249243,25.0,0.1812053005821554,0.4496334212758763,0.24611568502558656
0053,cdot_cos,R,Q-R,152,30,31190,0.08916077326189925,0.10700008441850008,0.10784392707658998,0.9367960133093175,955.0,4.25320054911138,0.5853993731127867,7.217292756189776,-0.10513870772900932,0.025,0.999999999998865,-58.373100741603984,0.7550117374803351,152,2026-10-07 23:31:47.274244,25.0,0.5340468238945381,1.799179481362625,2.847739046814084
0053,cdot_cos,S,R-S,153,30,31222,-0.009584065609273098,-0.0911813860358099,-0.09874483887117234,0.07808745335548758,955.0,4.271966047009159,0.5854935090846975,7.242159313104399,-0.028006633055225178,0.032,0.9999999999988277,819.3687610386181,0.7599788649521207,153,2026-10-07 23:31:47.306243,25.0,0.06366855190375945,0.5668924314588958,0.5864218093055984
0053,cdot_cos,T,S-T,154,30,31514,-0.12105605100561301,0.01614304624142482,-0.11147198539633991,0.05804168105259472,955.0,4.289481664724749,0.5855634754366136,7.266656203401427,-0.02625120174558241,0.292,0.9999999999987907,25.08965040437692,0.7649462095947136,154,2026-10-07 23:31:47.598243,25.0,0.935316305437883,0.1570940455351654,0.05998499217667871
0053,cdot_cos,P,T-P,155,31,32011,0.026234384234071102,-0.0001397140177524352,0.1472904352396841,0.975451768020776,958.0,4.363708969601696,0.58673881533502,7.30484407460968,-0.11234502537495646,0.497,0.9999999999987851,-73.25014980441082,0.7699137302690944,155,2026-10-07 23:31:48.095244,25.0,0.4647135440604907,0.10090711570454762,0.14935071403812153
0053,cdot_cos,Q,P-Q,156,31,32116,-0.03080184924292913,-0.017513712724000013,-0.05703623347700024,0.19373740392212788,958.0,4.38978333773507,0.5869721359775226,7.331284650898739,-0.039915030873655194,0.105,0.9999999999987418,310.43114627330016,0.7748809185190039,156,2026-10-07 23:31:48.200243,25.0,0.16290232409025238,0.4742117224638158,0.24832731555594226
0053,cdot_cos,R,Q-R,157,31,32141,0.09177889996076583,0.10453748422656439,0.12258074920369495,0.9554052190323655,958.0,4.463293431319097,0.5881221707007606,7.3691547454155275,-0.11371600981558519,0.025,0.9999999999987342,-64.17282665530523,0.7798480383234473,157,2026-10-07 23:31:48.225244,25.0,0.5225713529404816,1.8698030703071744,2.9404037433610952
0053,cdot_cos,S,R-S,158,31,32165,0.000538989932721287,-0.14239293801035782,-0.09123991002804453,0.09270899416635481,958.0,4.483273491250428,0.5882337148356656,7.393988210643678,-0.03123189994889833,0.024,0.999999999998695,739.475095996223,0.7848151579613627,158,2026-10-07 23:31:48.249243,25.0,0.07128843265818173,0.8935028101883513,0.8325024971388059
0053,cdot_cos,T,S-T,159,31,32453,-0.07220916207763518,0.013399411127143114,-0.07274815201035648,0.13958947935247282,958.0,4.506181566208138,0.5884016467865443,7.419467525387966,-0.03597609021753558,0.288,0.9999999999986592,-28.250670845022928,0.7897825126848735,159,2026-10-07 23:31:48.537244,25.0,0.8764543603541003,0.16647776003322748,0.07954192693649141
0053,cdot_cos,P,T-P,160,32,32969,0.0353717836962022,-4.68767791893933e-05,0.10758094577383738,0.9364056205181054,1002.0,4.579164681029567,0.5895276476816191,7.457005677268327,-0.11574344409950191,0.516,0.9999999999986521,-70.84128816492894,0.79475007580836,160,2026-10-07 23:31:49.053244,25.0,0.5019906221237824,0.09984200841559752,0.14144014500277033
0053,cdot_cos,Q,P-Q,161,32,33076,-0.008544061439120253,-0.006292582691682218,-0.04391584513532245,0.25013430409352083,1002.0,4.609218518893035,0.5898282688213686,7.484087286079258,-0.04819198512811615,0.107,0.9999999999986071,224.70628322305203,0.7997172692066313,161,2026-10-07 23:31:49.160243,25.0,0.24617425659797337,0.4844764269288132,0.28087698937819777
0053,cdot_cos,R,Q-R,162,32,33100,0.10044930184097695,0.10737973736376051,0.1089933632800972,0.9384762391314264,1002.0,4.6828426363923334,0.5909555662623606,7.521642001970013,-0.11928941350554771,0.024,0.9999999999985988,-63.0689166781672,0.8046843868883503,162,2026-10-07 23:31:49.184243,25.0,0.5510069466123901,1.8970110198487007,3.067671562470786
0053,cdot_cos,S,R-S,163,32,33124,-0.019635480758764857,-0.06882330080853127,-0.1200847825997418,0.04733021011266821,1002.0,4.700275047845772,0.5910123940819929,7.545546742013447,-0.028520417946796193,0.024,0.9999999999985549,1597.2633851869696,0.8096515052827364,163,2026-10-07 23:31:49.208243,25.0,0.04147779879764871,0.7010697692373946,0.7263504772266153
0053,cdot_cos,T,S-T,164,32,33413,-0.16056339637091152,0.01408799042022661,-0.14092791561214665,0.028659338806522546,1002.0,4.716493985315728,0.5910468032213064,7.569097834163586,-0.02662958051635083,0.289,0.9999999999985112,54.95160495637613,0.8146188741894903,164,2026-10-07 23:31:49.497243,25.0,0.9314570926121835,0.16255969285644564,0.05612089089950233
0053,cdot_cos,P,T-P,165,33,33971,0.03992010305278614,-0.0014800419242407012,0.20048349942369767,0.9933870300744847,1001.0,4.794234550316798,0.5922389357976755,7.607452667742164,-0.12879784883438902,0.558,0.9999999999985058,-85.70210255407667,0.819586503122361,165,2026-10-07 23:31:50.055244,25.0,0.45237439008980795,0.09624765191581296,0.13932000896248997
0053,cdot_cos,Q,P-Q,166,33,34074,-0.006858364004241544,-0.004834500324334223,-0.046778467057027685,0.23695230257318167,1001.0,4.823906364853776,0.5925231350833973,7.634132745580043,-0.04970361437710499,0.103,0.9999999999984562,278.3055356962385,0.8245536956432548,166,2026-10-07 23:31:50.158243,25.0,0.2036571040071008,0.5053356802226167,0.2880758692910473
0053,cdot_cos,R,Q-R,167,33,34098,0.0987926117078529,0.10099203878657252,0.10565097571209445,0.9334711514695325,1001.0,4.898333700442657,0.5936421313904653,7.671553247581322,-0.12591475198805815,0.024,0.999999999998447,-68.10669269377712,0.8295208117440298,167,2026-10-07 23:31:50.182244,25.0,0.5459325749066734,1.9211252193934527,3.1011389828700477
0053,cdot_cos,S,R-S,168,33,34122,-0.019991677188147122,-0.06375030896693576,-0.11878428889600003,0.04881795830266215,1001.0,4.916120375384661,0.5937006251684891,7.6952458346331705,-0.030375196098611303,0.024,0.9999999999983986,1633.3285200105508,0.8344879285773071,168,2026-10-07 23:31:50.206244,25.0,0.04305336581064849,0.7207293918360577,0.7411114559168578
0053,cdot_cos,T,S-T,169,33,34430,-0.15380096705705487,0.03349058802013378,-0.13380928986890775,0.03405163778321249,1001.0,4.932928711250788,0.5937414243373647,7.718644742229246,-0.028804705090940068,0.308,0.9999999999983514,38.493210792144154,0.8394553298286137,169,2026-10-07 23:31:50.514244,25.0,0.9469376471786992,0.1551403920729847,0.054572519045864215
0053,cdot_cos,P,T-P,170,34,34972,0.03451257295251649,-0.0003494783762680204,0.18831354000957135,0.9910564465162256,1017.0,5.01168685690162,0.5949282954946018,7.756922386482687,-0.13615212349054273,0.542,0.9999999999983442,-90.44572171548172,0.8444229710963348,170,2026-10-07 23:31:51.056243,25.0,0.45455455373589293,0.09929117254096298,0.14531023182810404
0053,cdot_cos,Q,P-Q,171,34,35079,-0.016605854030326446,-0.009813120171003097,-0.051118426982842934,0.21789756183140846,1017.0,5.0405603422851915,0.5951890974100548,7.783114215688341,-0.05044452011242585,0.107,0.99999999999829,328.6310348958036,0.8493901705586189,171,2026-10-07 23:31:51.163244,25.0,0.1828577304812611,0.4885801764606064,0.2698456577903877
0053,cdot_cos,R,Q-R,172,34,35105,0.09061356070891885,0.09604546971195856,0.10721941473924529,0.935865262289946,1017.0,5.11624301466419,0.596308623239798,7.820521166973323,-0.1334806956378485,0.026,0.9999999999982797,-74.17084386919727,0.8543572870786057,172,2026-10-07 23:31:51.189243,25.0,0.5368246475382664,1.8142096338915614,2.9108720145768574
0053,cdot_cos,S,R-S,173,34,35135,-0.020712489762613966,-0.07898633846418428,-0.11132605047153282,0.058241469911901926,1017.0,5.134899243247553,0.5963782614052057,7.844138219647569,-0.0332075606185009,0.03,0.9999999999982279,1439.9163796521068,0.8593244085930385,173,2026-10-07 23:31:51.219244,25.0,0.04882135291382307,0.6373892147131393,0.621874286112097
0053,cdot_cos,T,S-T,174,34,35431,-0.12250973518410134,0.042038034480777135,-0.10179724542148738,0.0727677550926405,1017.0,5.154486367546978,0.596465262903448,7.867924085032025,-0.034992156133214006,0.296,0.9999999999981779,-20.51223887825024,0.8642918119540967,174,2026-10-07 23:31:51.515244,25.0,0.950278791328544,0.16679863846154894,0.06617271722778865
0053,cdot_cos,P,T-P,175,35,35989,0.032283661438759395,-0.0023081151936959732,0.15479339662286073,0.9795645083068869,960.0,5.23364403721679,0.5976358426527209,7.905986180977805,-0.1426365102993477,0.558,0.9999999999981696,-91.95815512185672,0.8692594991624845,175,2026-10-07 23:31:52.073244,25.0,0.47016291255982046,0.09663661286729375,0.14185962306417835
0053,cdot_cos,Q,P-Q,176,35,36084,-0.021018437642461443,-0.01070659897831885,-0.05330209908122084,0.2087374690136482,960.0,5.262332827506878,0.5978851406959191,7.931850264025473,-0.05222126996184996,0.095,0.9999999999981106,362.67930216196316,0.8742266886845297,176,2026-10-07 23:31:52.168243,25.0,0.1770386448965453,0.5592424585854563,0.30198726621145583
0053,cdot_cos,R,Q-R,177,35,36109,0.09499943442568765,0.09488515658914619,0.11601787206814909,0.947868519505344,960.0,5.339900104348026,0.5990165548575634,7.9694045286945885,-0.14249037591352137,0.025,0.9999999999980996,-79.78431684157246,0.8791938025350928,177,2026-10-07 23:31:52.193243,25.0,0.5307255767998741,1.9273634251550398,3.1026910736459357
0053,cdot_cos,S,R-S,178,35,36140,-0.01768828659620727,-0.10961180949422913,-0.11268772102189492,0.056402137500044726,960.0,5.35870099876463,0.5990838455992871,7.992783011737683,-0.034849068427000106,0.031,0.9999999999980436,1599.6451328865394,0.8841609238675118,178,2026-10-07 23:31:52.224244,25.0,0.045557236712376104,0.6722780044489656,0.6064804650517289
0053,cdot_cos,T,S-T,179,35,36430,-0.09810712915085468,0.02516771096482293,-0.0804188425546474,0.11810790371074391,960.0,5.381581340623862,0.5992247424883689,8.017088259851054,-0.04257094783291333,0.29,0.9999999999979923,-54.80518027214664,0.8891283352761605,179,2026-10-07 23:31:52.514244,25.0,0.8341112624315656,0.1757314574620813,0.07889773054907678
0053,cdot_cos,P,T-P,180,36,36949,0.02990032989782284,0.0007950782032570012,0.12800745904867752,0.9608412940301382,915.0,5.460625244092637,0.6003703672503781,8.054821543538978,-0.14832261058442153,0.519,0.9999999999979823,-92.30916287636937,0.8940960092378111,180,2026-10-07 23:31:53.033243,25.0,0.4901792697231552,0.10279829869976484,0.15230039204002865
0053,cdot_cos,Q,P-Q,181,36,37059,-0.028824980899383304,-0.019319540190474178,-0.058725310797206144,0.18722658965444175,915.0,5.488285974674218,0.6005934728271564,8.080167048239568,-0.05240524899037641,0.11,0.9999999999979191,429.9191574640073,0.899063218844859,181,2026-10-07 23:31:53.143244,25.0,0.16036534575633424,0.48342765692207623,0.2514611871052821
0053,cdot_cos,R,Q-R,182,36,37084,0.08762931879876824,0.11512129908501106,0.11645429969815155,0.948405031062974,915.0,5.566979328615494,0.6017229815556623,8.117695157911186,-0.15039501106995184,0.025,0.9999999999979075,-86.75432035765941,0.9040303312161326,182,2026-10-07 23:31:53.168243,25.0,0.5212376047576762,2.110256716781951,3.14773415765103
0053,cdot_cos,S,R-S,183,36,37115,0.024723488822232624,-0.1599486229678067,-0.06290582997653563,0.17183954627005912,915.0,5.593798810513316,0.6019275194427577,8.1427328813166,-0.05173633480704967,0.031,0.9999999999978542,482.34915136717535,0.9089974515058015,183,2026-10-07 23:31:53.199244,25.0,0.14853251279555635,0.8052420478723064,0.8651445773490902
0053,cdot_cos,T,S-T,184,36,37408,-0.05635503001096548,-0.00023679196423735175,-0.08107851883319811,0.1164009221058057,915.0,5.616904335583577,0.6020660494013189,8.166829569084928,-0.04476600022722736,0.293,0.9999999999977986,50.31644167237297,0.913964882140373,184,2026-10-07 23:31:53.492243,25.0,0.855810766561317,0.17124573173201987,0.07885844733877544
0053,cdot_cos,P,T-P,185,37,37864,0.04011017717166992,-0.00046619170470452826,0.0964652071826354,0.9177098743834855,863.0,5.694148809308279,0.6031576513628357,8.203839582471328,-0.15085637507123364,0.456,0.9999999999977853,-97.18778326175875,0.9189325109199928,185,2026-10-07 23:31:53.948243,25.0,0.49497195725564674,0.11395114947568626,0.16939577571206677
0053,cdot_cos,Q,P-Q,186,37,37964,-0.02419062436410707,-0.015347714988336323,-0.064300801535777,0.16693320837717468,863.0,5.720827783905403,0.6033561058653043,8.228689180789146,-0.05257303903246368,0.1,0.9999999999977192,495.24366953745414,0.9238997126998438,186,2026-10-07 23:31:54.048243,25.0,0.1542064931200929,0.5352058424150075,0.2667897459712343
0053,cdot_cos,R,Q-R,187,37,37990,0.09991578040322341,0.12903791235147563,0.12410640476733048,0.9570023391029712,863.0,5.801189977791281,0.6044931566990556,8.266328636763925,-0.15968718156724324,0.026,0.9999999999977089,-94.20347741305244,0.9288668252474793,187,2026-10-07 23:31:54.074244,25.0,0.5113122427030444,1.9562918503673097,3.0908536109953104
0053,cdot_cos,S,R-S,188,37,38018,0.00550658021172498,-0.11908141472874276,-0.09440920019149843,0.0862560647234982,863.0,5.822554960124503,0.6045955855065568,8.289806059039412,-0.04282521671780033,0.028,0.9999999999976477,1140.909161204973,0.9338339411195683,188,2026-10-07 23:31:54.102243,25.0,0.0652968168856471,0.7176412076798881,0.7630350833293584
0053,cdot_cos,T,S-T,189,37,38307,-0.1129709461925868,-0.014504081277299137,-0.11847752640431178,0.04917530412617706,863.0,5.8413778854213545,0.6046539769185165,8.312626903479028,-0.03785828321853313,0.289,0.9999999999975855,85.06274009424962,0.9388013820267511,189,2026-10-07 23:31:54.391244,25.0,0.8770440455326798,0.17547783263084338,0.06513122940087095
0053,cdot_cos,P,T-P,190,38,38727,0.04488302005275478,0.0007603467207738777,0.1578539662453416,0.9810412539971044,919.0,5.92398114738513,0.6058182525587762,8.350637630069343,-0.16741161215149605,0.42,0.9999999999975765,-111.27376065694233,0.9437689908533842,190,2026-10-07 23:31:54.811244,25.0,0.4612287903120531,0.13264339569630115,0.19667443324708517
0053,cdot_cos,Q,P-Q,191,38,38833,-0.01235073028089532,-0.009132735186760674,-0.0572337503336501,0.19296725095343606,919.0,5.9527983378062475,0.6060471204820946,8.375747539324882,-0.058944789262987136,0.106,0.9999999999975098,473.9275880857708,0.9487362041180505,191,2026-10-07 23:31:54.917243,25.0,0.15879476656986832,0.5166185497994,0.2718602869916716
0053,cdot_cos,R,Q-R,192,38,38858,0.10255334994342126,0.12651306678615265,0.11490408022431658,0.9464753182904786,919.0,6.033504279942603,0.6071690077854668,8.413190330112554,-0.16643720349018082,0.025,0.9999999999974993,-95.8139145563863,0.9537033145282359,192,2026-10-07 23:31:54.942244,25.0,0.5242200870423087,1.9990132658384319,3.228237685454225
0053,cdot_cos,S,R-S,193,38,38881,-0.013988321067903715,-0.07357164623773017,-0.11654167101132498,0.05148819020852616,919.0,6.052749001098169,0.6072300060663246,8.435918615932398,-0.04001652133616572,0.023,0.9999999999974333,2072.528608612691,0.9586704231586497,193,2026-10-07 23:31:54.965244,25.0,0.04245917751630048,0.7925150735784655,0.8367270067637378
0053,cdot_cos,T,S-T,194,38,39186,-0.1650056908514303,-0.03183929765886035,-0.1510173697835266,0.022413260699011013,919.0,6.0699599733272125,0.6072565581078277,8.45811489180956,-0.03589473548527785,0.305,0.9999999999973666,155.23423501726998,0.9636379004940083,194,2026-10-07 23:31:55.270243,25.0,0.8915178535746161,0.16688287814935276,0.05642941714440473
0053,cdot_cos,P,T-P,195,39,39646,0.04098572922686975,0.0007713689937377427,0.20599142007830004,0.9942328046536607,938.0,6.154547556769274,0.6084337436450106,8.496324898630023,-0.1777054929336132,0.46,0.9999999999973591,-120.46593588612139,0.968605585777386,195,2026-10-07 23:31:55.730243,25.0,0.45022402655866556,0.1220543998559396,0.18388605096100377
0053,cdot_cos,Q,P-Q,196,39,39753,-0.02195966880712721,-0.014295071910690765,-0.06294539803399696,0.17169881799899206,938.0,6.182250021194677,0.6086369101940682,8.520927251954426,-0.05872234766938225,0.107,0.9999999999972866,585.6433837958841,0.973572804101307,196,2026-10-07 23:31:55.837244,25.0,0.13183571526355922,0.5117891407632389,0.2589015366860065
0053,cdot_cos,R,Q-R,197,39,39778,0.09390145449834782,0.11360353642131506,0.11586112330547503,0.9476745405487101,938.0,6.264070432892607,0.609757588756538,8.558366179963938,-0.17479886902583586,0.025,0.9999999999972761,-103.57699811856962,0.97853991315774,197,2026-10-07 23:31:55.862243,25.0,0.5147583960088031,2.0732390038673465,3.2728164679172167
0053,cdot_cos,S,R-S,198,39,39802,-0.000986826758358941,-0.11863801173808103,-0.09488828125670676,0.08531674984968647,938.0,6.285911971388044,0.6098584239907278,8.581479275755806,-0.047045930775710995,0.024,0.9999999999972089,1266.9474046111523,0.9835070217040818,198,2026-10-07 23:31:55.886244,25.0,0.06617226216060926,0.9135368954582741,0.9100641039765378
0053,cdot_cos,T,S-T,199,39,40105,-0.09459976495484139,0.010539510659030343,-0.09361293819648245,0.08783799536370414,938.0,6.3079202038746045,0.6099622292574522,8.604586710909903,-0.047566055058698,0.303,0.9999999999971426,-5.010577010196204,0.9884745131924062,199,2026-10-07 23:31:56.189243,25.0,0.9891247887326085,0.1747706097822012,0.07263443064871371
0053,cdot_cos,P,T-P,200,40,40584,0.04316757048785159,-0.0015124202943256604,0.13776733544269298,0.9690572025421212,957.0,6.391822960916058,0.6111067796244077,8.642365841448036,-0.1826681932877371,0.479,0.9999999999971334,-118.03948705936965,0.9934422521583848,200,2026-10-07 23:31:56.668243,25.0,0.47730285921154286,0.11740484950110924,0.175162332028087
0053,cdot_cos,Q,P-Q,201,40,40683,-0.017742442245105086,-0.010431410313221211,-0.060910012732956674,0.17905687803571269,957.0,6.420394049696667,0.611318129537595,8.666941696577315,-0.06274180883883403,0.099,0.9999999999970576,567.4304883325754,0.9984094631854776,201,2026-10-07 23:31:56.767244,25.0,0.1478692336396584,0.5609631769482721,0.28859685636978777
0053,cdot_cos,R,Q-R,202,40,40709,0.09424289332387079,0.10064077470657679,0.11198533556897587,0.9426560099305538,957.0,6.502893669951816,0.6124301025206595,8.704278653928204,-0.18254746466043556,0.026,0.999999999997046,-107.74151678705705,1.0033765722497603,202,2026-10-07 23:31:56.793243,25.0,0.5187679235586594,1.9775243986626283,3.173062317505727
0053,cdot_cos,S,R-S,203,40,40734,-0.015727327300299975,-0.10183791936251854,-0.10997022062417076,0.06012870962976706,957.0,6.523225318427124,0.6125009917736024,8.726807287972932,-0.045342921492258804,0.025,0.9999999999969726,1935.4773463163153,1.008343680749636,203,2026-10-07 23:31:56.818244,25.0,0.048512644183300264,0.8193286136096312,0.8132659390123109
0053,cdot_cos,T,S-T,204,40,41025,-0.12259545110296072,0.02132844411199419,-0.10686812380266074,0.06466388481259905,957.0,6.543860100632298,0.6125772224936209,8.749364245536785,-0.04616034901570267,0.291,0.9999999999969008,-10.723072315799893,1.0133111717561532,204,2026-10-07 23:31:57.109244,25.0,0.9824474382455501,0.18299783597262118,0.07090990448513329
0053,cdot_cos,P,T-P,205,41,41541,0.0377243178423269,-0.0011672586955783586,0.16031976894528763,0.9821544469154332,955.0,6.629730058963189,0.6137343814024966,8.78735081612092,-0.19344440417537742,0.516,0.9999999999968925,-127.28075118289325,1.0182789928734948,205,2026-10-07 23:31:57.625243,25.0,0.4670230503395943,0.11172253554412813,0.16641464792808475
0053,cdot_cos,Q,P-Q,206,41,41640,-0.021269842109492922,-0.011848037588016076,-0.05899415995181982,0.18620595093147674,955.0,6.659157757313838,0.6139536219529604,8.811904547107316,-0.06685969019299104,0.099,0.9999999999968119,577.378198123336,1.0232462071234765,206,2026-10-07 23:31:57.724244,25.0,0.1505757543851643,0.5718085958741392,0.2972494782893789
0053,cdot_cos,R,Q-R,207,41,41665,0.09371299698312666,0.09950298968941883,0.11498283909261958,0.9465749783409347,955.0,6.742948160946269,0.6150674116019867,8.849291459634403,-0.19178691549805238,0.025,0.9999999999967998,-112.16411053404433,1.0282133131057618,207,2026-10-07 23:31:57.749243,25.0,0.521322957453902,2.087305956310317,3.3516161452972426
0053,cdot_cos,S,R-S,208,41,41690,-0.016258418105057494,-0.09912707018582916,-0.10997141508818414,0.060127022075911016,955.0,6.763523055129354,0.6151381196257066,8.87166054191058,-0.04745713464336636,0.025,0.9999999999967218,2041.207960025147,1.0331804199695784,208,2026-10-07 23:31:57.774244,25.0,0.04777435796312556,0.8516336718188278,0.8229957673233912
0053,cdot_cos,T,S-T,209,41,41983,-0.11377699090053638,0.02378540862789756,-0.09751857279547888,0.0803231621999626,955.0,6.78552984453721,0.6152325702678232,8.894326505274938,-0.050915228248118075,0.293,0.9999999999966475,-36.61270614216147,1.0381479302669259,209,2026-10-07 23:31:58.067244,25.0,0.9343364780664245,0.18523928947071544,0.07510849627254816
0053,cdot_cos,P,T-P,210,42,42496,0.03625793077563811,-0.0009159910952672114,0.1500349216761745,0.9770422212057911,940.0,6.872073278759193,0.6163807604525553,8.932218551530418,-0.20160546724530137,0.513,0.9999999999966377,-131.24153210937033,1.0431157784613936,210,2026-10-07 23:31:58.580243,25.0,0.4735720783837273,0.11324283867044398,0.16870065150483943
0053,cdot_cos,Q,P-Q,211,42,42594,-0.02323751603581364,-0.013229508692512272,-0.059495446811451747,0.18431437312081528,940.0,6.901716997013086,0.616597216085055,8.956605254251851,-0.06962854677238349,0.098,0.9999999999965521,609.7181161274998,1.0480829945180778,211,2026-10-07 23:31:58.678244,25.0,0.15025180431854004,0.5841465889207927,0.3024869209580907
0053,cdot_cos,R,Q-R,212,42,42621,0.09234510185929343,0.1010000440947206,0.11558261789510707,0.9473282026987646,940.0,6.986566010187668,0.6177090113290025,8.99399237895457,-0.20073244393188086,0.027,0.9999999999965394,-117.92090123898281,1.0530501019402085,212,2026-10-07 23:31:58.705244,25.0,0.5204155826970601,1.9705623199977205,3.1425560435030553
0053,cdot_cos,S,R-S,213,42,42651,-0.010880729350572096,-0.11568756917330573,-0.10322583120986552,0.07039445990184391,940.0,7.008127362292963,0.6177915780685179,9.016384661729882,-0.051395614641216475,0.03,0.9999999999964573,1808.6802284679197,1.0580172149900275,213,2026-10-07 23:31:58.735244,25.0,0.05471410796804505,0.7691362645808535,0.7187117368431473
0053,cdot_cos,T,S-T,214,42,42941,-0.09360603604682272,0.015233409250437027,-0.08272530669625063,0.11223295877802833,940.0,7.0327141860625195,0.6179232037565207,9.03945059241975,-0.058792935539073714,0.29,0.999999999996381,-56.19967507940824,1.0629847375078356,214,2026-10-07 23:31:59.025243,25.0,0.8817736455010835,0.19181796139127566,0.08478215092950617
0053,cdot_cos,P,T-P,215,43,43436,0.03858626873884432,-0.0014281232449061766,0.13219230478566704,0.9645933725985267,960.0,7.119381779899903,0.6190537539204733,9.077123607296555,-0.20864778255907296,0.495,0.9999999999963695,-132.5503739666609,1.067952589602051,215,2026-10-07 23:31:59.520243,25.0,0.4876198283485886,0.11835711799610023,0.1750860481563295
0053,cdot_cos,Q,P-Q,216,43,43532,-0.019074523987352703,-0.010303530888722575,-0.05766079272619702,0.19131010634030315,960.0,7.149887732878659,0.6192778257936804,9.101502460436796,-0.07403283582731637,0.096,0.9999999999962806,600.7668200611911,1.0729198059826552,216,2026-10-07 23:31:59.616243,25.0,0.16229914605219853,0.6072535237913734,0.31777034352870975
0053,cdot_cos,R,Q-R,217,43,43558,0.09919918952736716,0.0999966906596734,0.11827371351471985,0.9505859054067239,960.0,7.235974456467846,0.6203904442953178,9.138936364378889,-0.21038680670344398,0.026,0.9999999999962674,-122.55231301247129,1.0778869103568325,217,2026-10-07 23:31:59.642244,25.0,0.5230329347841645,2.0378635906860887,3.311027830353368
0053,cdot_cos,S,R-S,218,43,43588,-0.02392003386412644,-0.07249105284982633,-0.1231192233914936,0.04402472740091212,960.0,7.255856639594335,0.6204419427279161,9.16072995060846,-0.0489453197441043,0.03,0.9999999999961793,3134.8815646202297,1.0828540222093472,218,2026-10-07 23:31:59.672243,25.0,0.03694204330441598,0.6302256806707411,0.6627394375496347
0053,cdot_cos,T,S-T,219,43,43880,-0.1843374186000711,-0.012537572997953803,-0.16041738473594466,0.01780283035829915,960.0,7.273787997308091,0.6204627670238314,9.182024905246873,-0.044257083492479726,0.292,0.9999999999960896,225.13300188819065,1.0878215646316896,219,2026-10-07 23:31:59.964243,25.0,0.899485915027968,0.18473612704356482,0.06140875929368297
0053,cdot_cos,P,T-P,220,44,44396,0.03440506047018294,-0.0006692684332044737,0.21874247907025404,0.9958004184989576,979.0,7.363742537787777,0.6216268645662084,9.220231229584341,-0.2234010188249775,0.516,0.9999999999960806,-153.89082856982773,1.0927894819537927,220,2026-10-07 23:32:00.480243,25.0,0.4484787429988481,0.1167115338884117,0.17433050480559384
0053,cdot_cos,Q,P-Q,221,44,44494,-0.02450894948111643,-0.01311374313399497,-0.058914009951299376,0.18650977670614824,979.0,7.394234300280932,0.6218447404902141,9.244402138708026,-0.07633185113061211,0.098,0.9999999999959861,675.0133974900722,1.0977567047312768,221,2026-10-07 23:32:00.578244,25.0,0.14562685289609517,0.599533298338907,0.3111404336036167
0053,cdot_cos,R,Q-R,222,44,44520,0.09324605837328424,0.09424432883403953,0.11775500785440067,0.9499732135216142,979.0,7.481251064262203,0.622953709925822,9.281816791392897,-0.2193151742399549,0.026,0.9999999999959719,-128.9335111665763,1.102723807325719,222,2026-10-07 23:32:00.604243,25.0,0.5210268900804731,2.0806182978390613,3.3467986146642823
0053,cdot_cos,S,R-S,223,44,44548,-0.01783758905127297,-0.11370150067145059,-0.11108364742455722,0.05857475266873326,979.0,7.502426451768563,0.6230220462961608,9.303718740724971,-0.05375434787073772,0.028,0.9999999999958795,2422.7336855687167,1.1076909142802578,223,2026-10-07 23:32:00.632244,25.0,0.04596144980457346,0.820467588577678,0.7562638395128511
0053,cdot_cos,T,S-T,224,44,44840,-0.1026312102642108,0.028145713541740378,-0.08479362121293783,0.1071833299914708,979.0,7.527197249222553,0.6231470793083286,9.326427054097351,-0.06306594903028204,0.292,0.9999999999957927,-74.4731411176939,1.1126584739805063,224,2026-10-07 23:32:00.924243,25.0,0.8627341980687696,0.19555397641031233,0.08483149813010321
0053,cdot_cos,P,T-P,225,45,45375,0.043993261297929284,-0.0017613842864180385,0.1466244715621401,0.9750499235997884,979.0,7.616629973992185,0.6242837536070275,9.36427223455683,-0.22914915622340842,0.535,0.9999999999957814,-146.11327746499936,1.1176264580856496,225,2026-10-07 23:32:01.459244,25.0,0.4844301136524426,0.11237529315300869,0.16716397153202292
0053,cdot_cos,Q,P-Q,226,45,45472,-0.01502106034489092,-0.0086454850333009,-0.05901432164282021,0.1861295838250974,979.0,7.647438812896272,0.6245005809352432,9.388318986362107,-0.07954851456431078,0.097,0.9999999999956809,689.9528896572932,1.1225936824484049,226,2026-10-07 23:32:01.556243,25.0,0.15249531029195942,0.6092989233720957,0.317616895918423
0053,cdot_cos,R,Q-R,227,45,45498,0.09645662022111615,0.0957859498847888,0.11147768056600707,0.9419661027357056,979.0,7.734833965126372,0.6255971354333661,9.425587986859405,-0.2271359570417237,0.026,0.9999999999956649,-134.59198127411594,1.1275607831681103,227,2026-10-07 23:32:01.582243,25.0,0.5221628456910579,2.0842149003353136,3.3613520088499818
0053,cdot_cos,S,R-S,228,45,45527,-0.018962610109626226,-0.08362888066246572,-0.11541923033074238,0.05287598579920156,979.0,7.755817987713709,0.6256586509389659,9.44725520700406,-0.054917169088453115,0.029,0.999999999995566,2799.599650108321,1.132527890188605,228,2026-10-07 23:32:01.611244,25.0,0.043457426635826135,0.7340408864202695,0.7235869857702338
0053,cdot_cos,T,S-T,229,45,45817,-0.1281759836407869,0.03278175152064411,-0.10921337353116066,0.06120694870372234,979.0,7.777408336538747,0.6257298535508262,9.46902766494168,-0.05665494536652345,0.29,0.9999999999954702,-24.406074899036945,1.1374954635714989,229,2026-10-07 23:32:01.901243,25.0,0.9697926581674791,0.19441323130117572,0.07444947870703053
0053,cdot_cos,P,T-P,230,46,46354,0.03937158917312491,-0.0011220097887190952,0.1675475728139118,0.9850604260015646,997.0,7.8685776618683905,0.6268750329133121,9.507047724454354,-0.24067505016973384,0.537,0.9999999999954584,-160.69107672683188,1.142463485903623,230,2026-10-07 23:32:02.438244,25.0,0.4655201763555301,0.11415960168172004,0.16977527994346936
0053,cdot_cos,Q,P-Q,231,46,46451,-0.018614998537919165,-0.010048148587603783,-0.05798658771104408,0.19005317548667797,997.0,7.900015748744915,0.6270958155433937,9.531049143530144,-0.08362276308802247,0.097,0.9999999999953526,711.3434921203923,1.147430713434265,231,2026-10-07 23:32:02.535244,25.0,0.1528796156513316,0.6170082881644118,0.324103988417776
0053,cdot_cos,R,Q-R,232,46,46477,0.09203388889120949,0.08944649141452744,0.11064888742912865,0.9408230063742005,997.0,7.988277269772286,0.6281879772947282,9.568292204266516,-0.23626847911435,0.026,0.9999999999953351,-139.7647517318815,1.1523978122074667,232,2026-10-07 23:32:02.561243,25.0,0.5241020307768206,2.108787371588594,3.3946738856681393
0053,cdot_cos,S,R-S,233,46,46506,-0.021438169080588307,-0.10160760466576321,-0.1134720579717978,0.05536759072621336,997.0,8.009672692067522,0.6282522105447368,9.58987178997814,-0.05766496726611312,0.029,0.9999999999952307,2780.5460851559087,1.1573649175184118,233,2026-10-07 23:32:02.590244,25.0,0.04517271611997747,0.8705833349949775,0.7377731825943199
0053,cdot_cos,T,S-T,234,46,46797,-0.08866887386698664,0.032639470192848914,-0.06723070478639834,0.15699385014325318,997.0,8.038771103201995,0.6284343181738862,9.613214556697264,-0.07865783754195287,0.291,0.9999999999951392,-115.27726967780639,1.1623325105755506,234,2026-10-07 23:32:02.881243,25.0,0.7657584682331879,0.20489687471291135,0.09999453998100834
0053,cdot_cos,P,T-P,235,47,47351,0.037004814096786964,-0.0019465003591786771,0.1256736879637736,0.9585860756272958,983.0,8.128922673150436,0.6295454531437068,9.650767451423244,-0.2452039511766391,0.554,0.9999999999951239,-149.88828374429818,1.1673006017572924,235,2026-10-07 23:32:03.435244,25.0,0.507015024932318,0.11020406714162762,0.1627284656109043
0053,cdot_cos,Q,P-Q,236,47,47444,-0.020400226587754755,-0.01038175916757157,-0.05740504068454172,0.19230124765395973,983.0,8.160877209594918,0.6297681924631552,9.67470178701641,-0.0875481523805411,0.093,0.9999999999950114,707.8040787164747,1.1722678250057645,236,2026-10-07 23:32:03.528243,25.0,0.1651684263571448,0.6540964607864449,0.34359716606970353
0053,cdot_cos,R,Q-R,237,47,47470,0.09512932653707623,0.08885880043772953,0.11552955312483099,0.9472619684462017,983.0,8.250584614856715,0.6308645827830806,9.712056129253273,-0.24730988336514742,0.026,0.9999999999949937,-145.71610865324095,1.177234921750248,237,2026-10-07 23:32:03.554244,25.0,0.5241391032967633,2.1294196528006255,3.450284817761397
0053,cdot_cos,S,R-S,238,47,47500,-0.02486609168516475,-0.10381582900662881,-0.11999541822224098,0.0474310481812021,983.0,8.271607031540551,0.6309194455526662,9.733370472692958,-0.05834314149792918,0.03,0.9999999999948824,3444.352942703132,1.1822020272109988,238,2026-10-07 23:32:03.584243,25.0,0.03920757643234689,0.8069045005574557,0.7007472227945399
0053,cdot_cos,T,S-T,239,47,47794,-0.10067391874825846,0.0337956088223858,-0.0758078270630937,0.13065319589874336,983.0,8.298998884890162,0.6310705526060089,9.756133319387045,-0.07622990221037643,0.294,0.999999999994782,-118.37144803484185,1.1871696441668753,239,2026-10-07 23:32:03.878243,25.0,0.7908536756909551,0.2026596341388038,0.09316956921636442
0053,cdot_cos,P,T-P,240,48,48334,0.034682199372774024,-0.0007664537575223591,0.1353561181210325,0.9671976576964079,995.0,8.390770896414168,0.6321883646579599,9.793839786642112,-0.25690738653392187,0.54,0.9999999999947663,-161.6349403356204,1.192137746041563,240,2026-10-07 23:32:04.418243,25.0,0.49495983212896927,0.11478421932150115,0.16994816948889904
0053,cdot_cos,Q,P-Q,241,48,48433,-0.02305659694667334,-0.012203344373760404,-0.057738796319447366,0.1910085884720075,995.0,8.422965841757383,0.6324089501245485,9.81764763128251,-0.09077350686879532,0.099,0.9999999999946488,753.1497076143136,1.197104984230522,241,2026-10-07 23:32:04.517244,25.0,0.16038112184010064,0.6193322643412676,0.32520146811329054
0053,cdot_cos,R,Q-R,242,48,48458,0.09024990918255091,0.08955953941859257,0.11330650612922424,0.9444155430998139,995.0,8.513398684753739,0.6334987885812672,9.854949073797037,-0.2565143031523286,0.025,0.9999999999946283,-152.0783151500669,1.2020720769306146,242,2026-10-07 23:32:04.542243,25.0,0.5240716231282325,2.251072245922323,3.6173137198542094
0053,cdot_cos,S,R-S,243,48,48483,-0.020703032959649096,-0.10841111312534332,-0.1109529421422,0.05875520228012827,995.0,8.5355194540535,0.633566546044847,9.876345737746263,-0.063158064449099,0.025,0.9999999999945125,2853.652254493624,1.2070391706334602,243,2026-10-07 23:32:04.567244,25.0,0.04681902914813554,1.0116741377930794,0.8848307719904369
0053,cdot_cos,T,S-T,244,48,48773,-0.09307596304961786,0.030583489131915737,-0.07237293008996877,0.14071993671295535,995.0,8.563982391643393,0.6337288051056595,9.899181094575127,-0.08149175681413354,0.29,0.9999999999944079,-112.99025319893677,1.21200679831675,244,2026-10-07 23:32:04.857243,25.0,0.7985353551181924,0.20896304536904795,0.09814806065480361
0053,cdot_cos,P,T-P,245,49,49329,0.04235932973684849,-0.001276938001427333,0.13543529278646635,0.9672603977327141,1002.0,8.656718020367547,0.634843295613546,9.936890487910702,-0.2670467136571371,0.556,0.999999999994391,-166.49307960001406,1.2169749707923345,245,2026-10-07 23:32:05.413243,25.0,0.4991538981991837,0.1142840475987164,0.1667906991441632
0053,cdot_cos,Q,P-Q,246,49,49424,-0.009607841341044934,-0.006084592513578563,-0.05196717107789343,0.21430317570633903,1002.0,8.691066252573165,0.6350900236962004,9.961019864463958,-0.09961245122162685,0.095,0.9999999999942697,678.618585424951,1.2219422043876866,246,2026-10-07 23:32:05.508243,25.0,0.18621436587078025,0.6566216266940977,0.3615603390065041
0053,cdot_cos,R,Q-R,247,49,49452,0.09515634372543835,0.09157673312700301,0.10476418506648329,0.9320810458697871,1002.0,8.781476129439426,0.6361623054709543,9.998097588991001,-0.26374945237405056,0.028,0.9999999999942466,-153.07263912984942,1.2269093011529926,247,2026-10-07 23:32:05.536243,25.0,0.5366969537811604,1.997724001730943,3.228924173795024
0053,cdot_cos,S,R-S,248,49,49478,-0.024903135904690163,-0.06585543638509624,-0.12005947963012852,0.047358741092772626,1002.0,8.802938796670098,0.6362167517738457,10.019173590034617,-0.06300918039068558,0.026,0.9999999999941228,3686.9403673504366,1.2318763947747848,248,2026-10-07 23:32:05.562243,25.0,0.041341465550467145,0.8673435709468914,0.8254872011796976
0053,cdot_cos,T,S-T,249,49,49772,-0.12516888547535102,0.04127699680542037,-0.10026574957066085,0.07539373965601659,1002.0,8.826577995128664,0.6363034215067086,10.04072079599747,-0.0695698381449707,0.294,0.9999999999940038,-75.69721905876696,1.236844049141774,249,2026-10-07 23:32:05.856243,25.0,0.9100068142745552,0.20153132714880284,0.08040543693389869
0053,cdot_cos,P,T-P,250,50,50331,0.03565193335226765,-0.0006319826133182186,0.16082081882761867,0.9823726747075606,1018.0,8.921439217033594,0.637431908781612,10.078706050371743,-0.2806763868285307,0.559,0.9999999999939875,-187.07038473395514,1.2418122665771427,250,2026-10-07 23:32:06.415244,25.0,0.47135910165065736,0.11496671492979274,0.1696980713862788
0053,cdot_cos,Q,P-Q,251,50,50431,-0.019471536550943375,-0.010178397019470483,-0.05512346990321103,0.20131645225552863,1018.0,8.955110782420173,0.6376629819221148,10.102505157799888,-0.10032175174557448,0.1,0.9999999999938576,780.5088669784727,1.2467795138752575,251,2026-10-07 23:32:06.515244,25.0,0.16566923806607708,0.6285997757122708,0.3367156538657845
0053,cdot_cos,R,Q-R,252,50,50456,0.09156249711451456,0.08902367664088989,0.11103403366545793,0.9413568126512712,1018.0,9.047159172176048,0.6387426355877722,10.139748697598208,-0.2758226930180574,0.025,0.9999999999938338,-162.55299903568186,1.2517466020457566,252,2026-10-07 23:32:06.540244,25.0,0.5292566873242636,2.283526102599893,3.681935590235028
0053,cdot_cos,S,R-S,253,50,50481,-0.02367921483335116,-0.09027500925710011,-0.11524171194786571,0.05309868086141324,1018.0,9.069287087550167,0.638803493491281,10.16081528273097,-0.06672195011241974,0.025,0.9999999999937033,3435.8847553073606,1.2567136912509802,253,2026-10-07 23:32:06.565243,25.0,0.04354709244616647,0.9997803369346414,0.8851166149647582
0053,cdot_cos,T,S-T,254,50,50788,-0.10123876778801036,0.040386856609359645,-0.0775595529546592,0.12575898686068737,1018.0,9.09714818902278,0.6389476116550754,10.183172957280304,-0.08422630258789564,0.307,0.999999999993585,-121.45833678842727,1.261681392791758,254,2026-10-07 23:32:06.872243,25.0,0.8123489814877113,0.1998679496589405,0.09075277352642709
0053,cdot_cos,P,T-P,255,51,51349,0.038261478974038296,-0.0008677687189581543,0.13950024676204864,0.9703301837792462,1038.0,9.192006008640757,0.6400587546720417,10.22094287114663,-0.28831159563117364,0.561,0.9999999999935641,-183.67148956260615,1.2666496548934394,255,2026-10-07 23:32:07.433243,25.0,0.49269565346116617,0.11614609815693601,0.16908702249193644
0053,cdot_cos,Q,P-Q,256,51,51448,-0.01247198034500929,-0.006938075997990982,-0.05073345931904759,0.21954215175835298,1038.0,9.227464111154863,0.6403099488323695,10.244984402956282,-0.10850641916220882,0.099,0.9999999999934298,715.8015784853959,1.271616903539223,256,2026-10-07 23:32:07.532243,25.0,0.19069260823959736,0.6452426396012259,0.35816265165763495
0053,cdot_cos,R,Q-R,257,51,51473,0.09288082533138964,0.08662564627990971,0.10535280567639893,0.9330067233983749,1038.0,9.3197640512818,0.6413766110170485,10.282074592148462,-0.28403772550572903,0.025,0.9999999999934028,-164.56129116112425,1.2765839892678748,257,2026-10-07 23:32:07.557244,25.0,0.5390290091902095,2.286588355616317,3.691997605077475
0053,cdot_cos,S,R-S,258,51,51499,-0.025682012526683232,-0.0715115026557649,-0.11856283785807287,0.04907567706593558,1038.0,9.341793528935678,0.6414326783108585,10.302959729948372,-0.06820532318086783,0.026,0.999999999993265,3849.5241638766292,1.2815510782907238,258,2026-10-07 23:32:07.583244,25.0,0.04223732424871678,0.8984853683039218,0.8472876020722682
0053,cdot_cos,T,S-T,259,51,51808,-0.12196821776108686,0.05069732734920351,-0.09628620523440364,0.0826287067421634,1038.0,9.366485290433603,0.6415270700664788,10.324426437903252,-0.07663048556116858,0.309,0.9999999999931334,-89.25739673907958,1.2865188044062283,259,2026-10-07 23:32:07.892244,25.0,0.8958831310931509,0.19615583405134676,0.07990861326189307
0053,cdot_cos,P,T-P,260,52,52387,0.033067479259453594,-0.0007023870095816934,0.15503569702054046,0.9796854152280788,980.0,9.46301783437941,0.64264538641968,10.362371351596984,-0.3011114277285751,0.579,0.9999999999931122,-200.73116298873305,1.291487147561286,260,2026-10-07 23:32:08.471244,25.0,0.47449325304086165,0.11247459556702259,0.16672287382695572
0053,cdot_cos,Q,P-Q,261,52,52490,-0.024029355683646888,-0.013331476650026283,-0.057096834943100486,0.19350086011653783,980.0,9.496730872100215,0.6428660855640496,10.385846417111267,-0.10585861310181477,0.103,0.9999999999929658,884.7012759589896,1.2964544085330354,261,2026-10-07 23:32:08.574244,25.0,0.15810942731010136,0.6203538207930916,0.32731104583305637
0053,cdot_cos,R,Q-R,262,52,52515,0.08901825086094396,0.09442977429577228,0.11304760654459085,0.9440747919171236,980.0,9.590810721462788,0.6439419880029924,10.42313872489666,-0.29700100785534245,0.025,0.9999999999929378,-177.65773906167516,1.3014214915218714,262,2026-10-07 23:32:08.599244,25.0,0.5254107702635725,2.360237799903757,3.763193974502883
0053,cdot_cos,S,R-S,263,52,52539,-0.014389252248648546,-0.11089406115125672,-0.10340750310959251,0.07009782814498557,980.0,9.614742762095403,0.6440218162943313,10.444305809278132,-0.07601072054576541,0.024,0.9999999999927939,2768.3203987341935,1.3063885732662532,263,2026-10-07 23:32:08.623244,25.0,0.05461990910486665,1.0634015989363643,0.9971683596923242
0053,cdot_cos,T,S-T,264,52,52845,-0.0981602485424326,0.024379349238440335,-0.08377099629378405,0.109654516460905,980.0,9.641853998211733,0.6441466761830925,10.466171740796932,-0.08632347173448551,0.306,0.9999999999926589,-82.59458895116424,1.3113563128239747,264,2026-10-07 23:32:08.929244,25.0,0.8873938567993702,0.20212654320630347,0.08859881083767879
0053,cdot_cos,P,T-P,265,53,53367,0.03939097335504873,0.0009897436772947396,0.13755122189748134,0.9688947853757587,895.0,9.738444206537661,0.6452490704235118,10.503921471106786,-0.3090923610077906,0.522,0.9999999999926342,-202.07733413827057,1.3163245646781285,265,2026-10-07 23:32:09.451244,25.0,0.48640216777361256,0.12502392796363396,0.18503871326806132
0053,cdot_cos,Q,P-Q,266,53,53474,-0.018030848053537166,-0.012792179698366019,-0.0574218214085859,0.19223609589361365,895.0,9.772378979005767,0.6454676110278478,10.527286793114552,-0.10929366870231119,0.107,0.9999999999924828,914.2405957580353,1.3212918393174313,266,2026-10-07 23:32:09.558244,25.0,0.16072020711599497,0.5998066445225477,0.31714740624397975
0053,cdot_cos,R,Q-R,267,53,53499,0.09012663037598118,0.11832131513781258,0.10815747842951834,0.9372585556734528,895.0,9.866802828465486,0.6465322479435792,10.564452753162003,-0.3056953511721822,0.025,0.9999999999924521,-184.47761820745828,1.326258920080017,267,2026-10-07 23:32:09.583244,25.0,0.5259888827529638,2.4056307240613606,3.776953978388775
0053,cdot_cos,S,R-S,268,53,53523,-0.0019428242691382682,-0.09760238713321501,-0.09206945464511944,0.09097925798354267,895.0,9.892660515208835,0.6466355146081062,10.585908373191728,-0.08421540277142225,0.024,0.9999999999923053,2144.738085763344,1.3312259995387776,268,2026-10-07 23:32:09.607244,25.0,0.07208407780467821,1.0104657133289674,1.0774036143061938
0053,cdot_cos,T,S-T,269,53,53825,-0.11837362722093711,-0.004873195940216846,-0.11643080295179885,0.051623720624443016,895.0,9.915305182705277,0.646694104400198,10.606600699597402,-0.07392647034091979,0.302,0.9999999999921548,175.60964227992943,1.3361937501850247,269,2026-10-07 23:32:09.909244,25.0,0.8700732106070346,0.2010761407410647,0.07498234270344961
0053,cdot_cos,P,T-P,270,54,54262,0.0488745633516635,-0.00308276642267481,0.1672481905726006,0.9849498795889602,862.0,10.014110504216438,0.6478111168464824,10.644652172796244,-0.3240728636556253,0.437,0.999999999992132,-223.94235099778183,1.3411618335235433,270,2026-10-07 23:32:10.346244,25.0,0.46214195076302983,0.15005684995458776,0.22609913389281758
0053,cdot_cos,Q,P-Q,271,54,54356,-0.014855079072164091,-0.009910460983527642,-0.06372964242382759,0.168928390915048,862.0,10.046454869565586,0.6480025333299145,10.66749821617542,-0.10675842188968851,0.094,0.9999999999919754,1135.2963855016815,1.346129081454668,271,2026-10-07 23:32:10.440243,25.0,0.13060577005299248,0.6805532273029328,0.344088993076047
0053,cdot_cos,R,Q-R,272,54,54383,0.09586395668131788,0.11531667251910388,0.11071903575348196,0.9409205687602507,862.0,10.14205451094939,0.6490678399933184,10.704731364568543,-0.3171155057650405,0.027,0.9999999999919481,-197.46153018814087,1.3510961657717262,272,2026-10-07 23:32:10.467244,25.0,0.515125194752632,2.216624230483143,3.540727458659368
0053,cdot_cos,S,R-S,273,54,54409,-0.009694118209704937,-0.09246004375967108,-0.10555807489102281,0.06667322875656119,862.0,10.166152578011676,0.6491432709887422,10.725637396542549,-0.08040229915860417,0.026,0.9999999999917933,3138.142421114292,1.356063248717558,273,2026-10-07 23:32:10.493243,25.0,0.05264890065953895,0.8676191574162286,0.9268487331648765
0053,cdot_cos,T,S-T,274,54,54704,-0.1495920341541703,-0.018750288294076448,-0.13989791594446535,0.02938493304675935,862.0,10.187170707135033,0.6491765133722229,10.745813670161,-0.07027895083642367,0.295,0.9999999999916347,304.53136214086084,1.361031002691122,274,2026-10-07 23:32:10.788243,25.0,0.8658485764053248,0.20548352648428095,0.0712478953334139
0053,cdot_cos,P,T-P,275,55,55124,0.039156860536075165,-0.0006447702539660143,0.18874889469024547,0.9911524026000562,838.0,10.287387858637402,0.6502969278601737,10.783985436716604,-0.33659791636527875,0.42,0.9999999999916148,-237.6968241600976,1.3659990749744284,275,2026-10-07 23:32:11.208243,25.0,0.45329688000201096,0.1559683915089168,0.23861226548183012
0053,cdot_cos,Q,P-Q,276,55,55227,-0.03127375572364773,-0.021190123760019254,-0.0704306162597229,0.14669450395880046,838.0,10.318184156002523,0.6504626131490996,10.806328283615755,-0.10407424406591216,0.103,0.9999999999914521,1403.4056602535504,1.3709663499083138,276,2026-10-07 23:32:11.311244,25.0,0.10707673285132728,0.6205248748574933,0.2989931783021501
0053,cdot_cos,R,Q-R,277,55,55251,0.08470325438821295,0.11904545659847586,0.11597701011186068,0.9478180178018216,838.0,10.415215982858046,0.6515322568445283,10.843689757585233,-0.329478354095883,0.024,0.9999999999914273,-210.72821818449245,1.3759334253323598,277,2026-10-07 23:32:11.335244,25.0,0.5045319134227125,2.747334004671272,4.042992785646756
0053,cdot_cos,S,R-S,278,55,55275,0.027704976178745087,-0.1651266709028878,-0.056998278209467866,0.19388566537405671,838.0,10.450056188226744,0.651750875557617,10.86689060404628,-0.11902013761508513,0.024,0.9999999999912886,962.6724698329277,1.3809005019250584,278,2026-10-07 23:32:11.359244,25.0,0.17063010227189962,1.2247984178225257,1.4516752236957882
0053,cdot_cos,T,S-T,279,55,55583,-0.08072652818145999,-0.015927611334168628,-0.10843150436020507,0.062339796967435517,838.0,10.474006306913527,0.6518211541677777,10.887591648997812,-0.08204059743468704,0.308,0.9999999999911313,526.1848533404695,1.38586831136744,279,2026-10-07 23:32:11.667244,25.0,0.6371521221452208,0.19761193723206988,0.0777601256064361
0053,cdot_cos,P,T-P,280,56,55962,0.03768352813638307,-0.0009096692428871966,0.11841005631784307,0.9507457682449474,835.0,10.5717851415617,0.6528921547211753,10.925007831575467,-0.33640281573498315,0.379,0.999999999991107,-237.4996142563781,1.3908363096634957,280,2026-10-07 23:32:12.046243,25.0,0.4694826535635442,0.17096279165162664,0.25799164814821296
0053,cdot_cos,Q,P-Q,281,56,56062,-0.030005595625049956,-0.019026507880427892,-0.06768912376143303,0.155483048765178,835.0,10.60359610298546,0.6530671571846981,10.947433721874104,-0.1100918982044385,0.1,0.9999999999909439,1293.1870384848478,1.3958035823798318,281,2026-10-07 23:32:12.146244,25.0,0.12800901278971474,0.649849610957034,0.31810961423760276
0053,cdot_cos,R,Q-R,282,56,56087,0.0884404860960317,0.12013706701378746,0.11844608172108165,0.9507879262946234,835.0,10.701755063753106,0.6541364060815079,10.984851653134925,-0.34129930968374034,0.025,0.9999999999909219,-216.23348143647985,1.4007706593582034,282,2026-10-07 23:32:12.171244,25.0,0.5079191544096355,2.6114407389463423,3.9263584307058608
0053,cdot_cos,S,R-S,283,56,56112,0.02241597407675343,-0.1442204995191465,-0.06602451201927827,0.16102614504015014,835.0,10.734168139932777,0.6543173410627133,11.007354834740994,-0.1133633107073306,0.025,0.9999999999907756,1259.7674449565566,1.405737737506459,283,2026-10-07 23:32:12.196243,25.0,0.1338991791410215,1.131347212321998,1.2965230471868239
0053,cdot_cos,T,S-T,284,56,56402,-0.08611391615467204,-0.017399648137510913,-0.10852989023142547,0.06219617656779151,835.0,10.758322424369206,0.6543872150520007,11.027962784971306,-0.08469344837142798,0.29,0.9999999999906151,410.3080792767026,1.410705522034625,284,2026-10-07 23:32:12.486243,25.0,0.7128292680656129,0.21270840810087127,0.08329063598768727
0053,cdot_cos,P,T-P,285,57,56797,0.03846478896031724,-0.0014065467661089964,0.12457870511498928,0.9574855913770333,863.0,10.857539016631282,0.6554620550044225,11.065507070009934,-0.3493695385289478,0.395,0.9999999999905952,-246.24697803721568,1.415673592609696,285,2026-10-07 23:32:12.881243,25.0,0.46879859065866264,0.16634990483284742,0.25118124623310384
0053,cdot_cos,Q,P-Q,286,57,56893,-0.02884980479111441,-0.01709440385117857,-0.06731459375143165,0.15671648890528259,863.0,10.889738849187156,0.6556378284501392,11.087876667305576,-0.1140465088578339,0.096,0.9999999999904284,1338.7860078157075,1.4206408598578262,286,2026-10-07 23:32:12.977243,25.0,0.12702196001450425,0.6868803816067285,0.33541492245701504
0053,cdot_cos,R,Q-R,287,57,56920,0.0967702890134964,0.11946044680084274,0.1256200938046108,0.9585328523226117,863.0,10.989420049899774,0.6567119921141892,11.12544169983309,-0.3546671743781039,0.027,0.9999999999904103,-224.00745209816552,1.4256079412462896,287,2026-10-07 23:32:13.004243,25.0,0.5074075486081919,2.31817033329468,3.691896322689572
0053,cdot_cos,S,R-S,288,57,56948,-0.0033851086104282335,-0.11067048735192865,-0.10015539762392463,0.07558627961691664,863.0,11.014920047185068,0.6567966285812956,11.146243417318052,-0.09123787773702932,0.028,0.9999999999902461,3112.479828698367,1.4305750265289572,288,2026-10-07 23:32:13.032243,25.0,0.05572758751102687,0.8695839013738001,0.9107141887605101
0053,cdot_cos,T,S-T,289,57,57240,-0.12249582125321001,-0.010071198471171416,-0.11911071264278178,0.048440415227406344,863.0,11.038116748376707,0.6568508636838569,11.166499707988152,-0.08317420130526484,0.292,0.9999999999900797,148.68002549915795,1.4355428373694086,289,2026-10-07 23:32:13.324243,25.0,0.9076020658144038,0.21480964758414917,0.07944075750561139
0053,cdot_cos,P,T-P,290,58,57660,0.04035427901270934,-0.0005824938577553094,0.16285010026591934,0.9832300166880241,937.0,11.140368881374211,0.6579508263085049,11.204534469105461,-0.36815419369428615,0.42,0.9999999999900657,-259.08152332014896,1.440511006838856,290,2026-10-07 23:32:13.744244,25.0,0.46112883288738193,0.16274212911131938,0.24345745951786804
0053,cdot_cos,Q,P-Q,291,58,57763,-0.020286254449300965,-0.012625633883548358,-0.0606405334620103,0.18004932622985245,937.0,11.174820136830215,0.6581520683175339,11.227269854825796,-0.1247696026527069,0.103,0.9999999999898986,1209.412449298551,1.4454782981557217,291,2026-10-07 23:32:13.847244,25.0,0.14217847194409103,0.6496181284317029,0.3344782083107155
0053,cdot_cos,R,Q-R,292,58,57788,0.09324163958501894,0.10686116055157219,0.1135278940343199,0.9447053724487293,937.0,11.274190215831142,0.6592070359827921,11.264571527721621,-0.3615003840863146,0.025,0.9999999999898782,-224.39624381822273,1.4504453725812285,292,2026-10-07 23:32:13.872243,25.0,0.519516744164119,2.497697597106736,3.9748031600370837
0053,cdot_cos,S,R-S,293,58,57811,-0.008281219360943066,-0.11461205288924786,-0.101522858945962,0.07323195296645175,937.0,11.299705016685552,0.659288749602621,11.285242337209644,-0.09332651473887577,0.023,0.9999999999897095,3281.8747952787835,1.4554124424862418,293,2026-10-07 23:32:13.895243,25.0,0.056500748966575226,1.134460483263141,1.109339167583031
0053,cdot_cos,T,S-T,294,58,58099,-0.10234598961688819,0.016646805297669962,-0.09406477025594512,0.08693715135138778,937.0,11.326375398061247,0.6593857434531455,11.306147053072694,-0.0977653823553281,0.288,0.9999999999895453,-45.76442313041032,1.460380263443118,294,2026-10-07 23:32:14.183244,25.0,0.9556120387081694,0.22371601039978942,0.09260549088782909
0053,cdot_cos,P,T-P,295,59,58597,0.03982384842885076,-0.001316419967491335,0.14216983804573896,0.9721924429443887,940.0,11.42856543867583,0.6604694861132867,11.343973323103596,-0.3761484666558358,0.498,0.9999999999895306,-256.8719443638333,1.4653486881854922,295,2026-10-07 23:32:14.681243,25.0,0.47707178179752585,0.13793153864210983,0.2052008847682408
0053,cdot_cos,Q,P-Q,296,59,58697,-0.01942487129765892,-0.011687730377464536,-0.059248719726509684,0.18524351910588865,940.0,11.463755210548788,0.6606757945438626,11.366734744927413,-0.13027270253695722,0.1,0.9999999999893553,1191.7872838862293,1.4703159754293522,296,2026-10-07 23:32:14.781244,25.0,0.1514661933043428,0.6762116733064705,0.35189771872957465
0053,cdot_cos,R,Q-R,297,59,58723,0.09265091640691135,0.10273491902357568,0.11207578770457027,0.9427781238850751,940.0,11.563807773337125,0.6617248339953827,11.40399801298048,-0.3720207385780727,0.026,0.9999999999893338,-230.44703961400728,1.4752830506009977,297,2026-10-07 23:32:14.807244,25.0,0.5221376205309349,2.414059545817458,3.8481754918591013
0053,cdot_cos,S,R-S,298,59,58747,-0.010636092336640474,-0.10494843726376066,-0.10328700874355183,0.07029444060164011,940.0,11.589286306931296,0.6618029878739539,11.4245296086916,-0.09524148647343599,0.024,0.9999999999891579,3541.4653394678594,1.480250121096471,298,2026-10-07 23:32:14.831244,25.0,0.054689766697874995,1.0722560885761956,1.0616055664237993
0053,cdot_cos,T,S-T,299,59,59037,-0.11033297489922957,0.01843195923617775,-0.09969688256258909,0.07639113191474184,940.0,11.615276065588782,0.6618879100867026,11.445150600115273,-0.09735650287191651,0.29,0.9999999999889857,-24.905337838279884,1.4852179684703308,299,2026-10-07 23:32:15.121243,25.0,0.9785098270966386,0.22262410010612302,0.08961985743960761
0053,cdot_cos,P,T-P,300,60,59537,0.03325295018366186,-0.0007453628951299877,0.14358592508289142,0.973133683198568,899.0,11.718408284992847,0.6629688053999265,11.482995910791882,-0.38786826700688015,0.5,0.999999999988969,-268.76956591518365,1.4901864378494853,300,2026-10-07 23:32:15.621243,25.0,0.4728410668848044,0.13685627855483062,0.20626443880813028
0053,cdot_cos,Q,P-Q,301,60,59643,-0.031656812746992384,-0.019730761021607635,-0.06490976293065424,0.1648267765444901,899.0,11.752132344143613,0.663151716275002,11.505292896488262,-0.12754225448605483,0.106,0.9999999999887836,1423.2396647459109,1.4951537470515432,301,2026-10-07 23:32:15.727243,25.0,0.12988624992342054,0.6371800022683137,0.3181515014223159
0053,cdot_cos,R,Q-R,302,60,59668,0.08466263496937722,0.10851652032911342,0.1163194477163696,0.9482398139011299,899.0,11.85349044547373,0.6642030426246783,11.54265902492175,-0.3849416268561694,0.025,0.9999999999887614,-244.832988775907,1.5001208169958598,302,2026-10-07 23:32:15.752243,25.0,0.5123889976793587,2.7027136068832647,4.054324053204681
0053,cdot_cos,S,R-S,303,60,59691,0.019475899856861528,-0.16299305813455306,-0.06518673511251569,0.16387579520276016,899.0,11.887268024487776,0.6643845694849789,11.564913335266985,-0.12898181359951194,0.023,0.999999999988596,1410.0382325392818,1.5050878821455163,303,2026-10-07 23:32:15.775244,25.0,0.13745421922934778,1.369924656677807,1.4685903919150527
0053,cdot_cos,T,S-T,304,60,59996,-0.06362376301067116,0.00011061356428350223,-0.08309966286753269,0.11130384683450617,899.0,11.916506979680909,0.6645078341749365,11.586130745664022,-0.11192683518502086,0.305,0.999999999988423,138.36061584511486,1.5100557965705554,304,2026-10-07 23:32:16.080243,25.0,0.8586652469666521,0.21162228628494786,0.09586542686273085
0053,cdot_cos,P,T-P,305,61,60436,0.03701950779547552,-0.00034984818726161885,0.10064327080614668,0.92526155007846,843.0,12.016357619121594,0.6655316563810675,11.623052168771444,-0.38371836085488287,0.44,0.9999999999883956,-265.4675040669104,1.515024124862615,305,2026-10-07 23:32:16.520243,25.0,0.49247581266307205,0.1527558884915918,0.22693327145610293
0053,cdot_cos,Q,P-Q,306,61,60543,-0.026029505258951216,-0.019002308180650802,-0.06304901305442673,0.1713307323441424,843.0,12.05093216155351,0.6657210670079843,11.645405166120685,-0.13357611257831542,0.107,0.9999999999882077,1320.6347096166253,1.519991442595385,306,2026-10-07 23:32:16.627244,25.0,0.1537146918614532,0.6372950542524788,0.32312656478425694
0053,cdot_cos,R,Q-R,307,61,60568,0.08672972174186194,0.12789423930315177,0.11275922700081316,0.9436929274672384,843.0,12.152738760731625,0.6667633856726116,11.682681078142569,-0.39493432789925875,0.025,0.999999999988184,-250.74693967452532,1.5249585107078503,307,2026-10-07 23:32:16.652243,25.0,0.5159340179636558,2.743206734793162,4.072263967124599
0053,cdot_cos,S,R-S,308,61,60600,0.025721244811264556,-0.14625178361802768,-0.06100847693059738,0.17869531898286606,843.0,12.188092498293168,0.6669605733898033,11.705153325969311,-0.13788289492764005,0.032,0.9999999999880166,1303.5874476996141,1.5299256017081742,308,2026-10-07 23:32:16.684243,25.0,0.15500877628664517,0.9447123272341706,1.1048042987982232
0053,cdot_cos,T,S-T,309,61,60894,-0.08354009667982377,-0.01912555803938902,-0.10926134149108833,0.06113807818798422,843.0,12.213200349674612,0.6670280249666648,11.72532543861358,-0.09815633960356748,0.294,0.9999999999878274,588.9640713017665,1.5348935053384773,309,2026-10-07 23:32:16.978244,25.0,0.6671586861271994,0.21747700729013972,0.08540085503892443
0053,cdot_cos,P,T-P,310,62,61279,0.03362722692255881,7.281661276933004e-05,0.11716732360238258,0.9492703502641,814.0,12.31596897857977,0.6680744437098799,11.762707870088851,-0.40322939355779663,0.385,0.9999999999878049,-291.5401276327488,1.5398616974896318,310,2026-10-07 23:32:17.363244,25.0,0.4692711919084309,0.1781601688922052,0.266931503649762
0053,cdot_cos,Q,P-Q,311,62,61383,-0.030873841875251454,-0.02187406637751858,-0.06450106879781026,0.1662381072100709,814.0,12.35038367972161,0.668257524330925,11.784894319032222,-0.1357493366378916,0.104,0.9999999999876136,1460.9960103533015,1.544829011888106,311,2026-10-07 23:32:17.467244,25.0,0.13940153234820185,0.6622884930761208,0.33091058790230427
0053,cdot_cos,R,Q-R,312,62,61409,0.08836976320242694,0.1352978281792852,0.1192436050776784,0.9517124936374732,814.0,12.453724985139603,0.669304679725377,11.822322428199971,-0.4092537464595464,0.026,0.9999999999875925,-261.1879872564546,1.5497960818755356,312,2026-10-07 23:32:17.493243,25.0,0.5125790580543544,2.6143005219223525,3.9746655929997488
0053,cdot_cos,S,R-S,313,62,61441,0.017094771926623585,-0.12918863552040125,-0.07127499127580336,0.14407179085027635,814.0,12.486327306861572,0.6694630540464394,11.844055150812554,-0.12978855687584528,0.032,0.9999999999874143,1764.5865043592603,1.5547631721976045,313,2026-10-07 23:32:17.525243,25.0,0.11610800629723235,0.8642168872315947,1.018822553811527
0053,cdot_cos,T,S-T,314,62,61733,-0.11986264219096146,-0.04714191499016306,-0.13695741411758505,0.0315557421225732,814.0,12.509034865922425,0.6694977373151744,11.863574817491322,-0.0905936535895211,0.292,0.9999999999872158,1130.0810078133002,1.5597310920475709,314,2026-10-07 23:32:17.817244,25.0,0.6487906855049549,0.22103544993650773,0.0777656132221
0053,cdot_cos,P,T-P,315,63,62093,0.0376081055198413,-0.0005510857126853442,0.15747074771080277,0.9808622403375736,840.0,12.615412009624492,0.6705748936693345,11.901569118804261,-0.4258846291576863,0.36,0.9999999999872005,-311.2741936425589,1.5646992348052513,315,2026-10-07 23:32:18.177243,25.0,0.4550803728145894,0.19586983227804192,0.29549206583907583
0053,cdot_cos,Q,P-Q,316,63,62196,-0.02703072711787509,-0.018266163661677583,-0.06463883263771639,0.1657612937484336,840.0,12.650061145162615,0.6707567517620562,11.923679218400663,-0.13945868714831292,0.103,0.9999999999870067,1574.9969535190553,1.5696665519817794,316,2026-10-07 23:32:18.280244,25.0,0.1282414064926607,0.6759671487556757,0.3363993741565328
0053,cdot_cos,R,Q-R,317,63,62221,0.09668629453198133,0.13710632900636194,0.12371702164985642,0.9565999855151848,840.0,12.754661242268162,0.6718052453804717,11.961198881226538,-0.42263423955904866,0.025,0.9999999999869894,-270.07847013763273,1.5746336177110059,317,2026-10-07 23:32:18.305243,25.0,0.5116957294776873,2.6614631724743987,4.184003884221852
0053,cdot_cos,S,R-S,318,63,62245,0.0062958298532075204,-0.11485122445031941,-0.0903904646787738,0.09451076743627282,840.0,12.783134303786335,0.6719087423935899,11.981895807521004,-0.11562894026188372,0.024,0.9999999999867974,2966.3203801505047,1.579600681363641,318,2026-10-07 23:32:18.329243,25.0,0.07029247783054883,1.099049042211253,1.1863775632572349
0053,cdot_cos,T,S-T,319,63,62533,-0.1137970833822305,-0.023467530032035076,-0.12009291323543803,0.04732104568438663,840.0,12.807415596294302,0.6719605565303908,12.001645831829212,-0.09880194733279118,0.288,0.9999999999865982,324.7567935707534,1.584568610833542,319,2026-10-07 23:32:18.617243,25.0,0.8434030369589021,0.22789016783848914,0.08431004343043928
0053,cdot_cos,P,T-P,320,64,62933,0.03843161443430024,0.0006779733784506991,0.15222869781653076,0.9782407626546095,894.0,12.914399040461305,0.6730307407764774,12.03958715969363,-0.4368205687422181,0.4,0.9999999999865852,-315.8508664703949,1.5895369145372862,320,2026-10-07 23:32:19.017244,25.0,0.46124970805990884,0.17745350796132042,0.26745861041750807
0053,cdot_cos,Q,P-Q,321,64,63042,-0.026013244805646044,-0.0180402572658815,-0.06444485923994628,0.1664329689033026,894.0,12.949378402663358,0.6732126377931181,12.061644352753238,-0.14357046735859674,0.109,0.9999999999863862,1612.176531530623,1.5945042571593784,321,2026-10-07 23:32:19.126244,25.0,0.12969734028994245,0.6398688253991595,0.3209115798353496
0053,cdot_cos,R,Q-R,322,64,63067,0.08884756993939123,0.12082689975443,0.11486081474503727,0.9464204963184317,894.0,13.053890444398322,0.6742460031429048,12.098960535995332,-0.43057166702860256,0.025,0.9999999999863668,-277.73449122253265,1.5994713213649216,322,2026-10-07 23:32:19.151244,25.0,0.5134726624348942,2.7689550365094107,4.180481669398546
0053,cdot_cos,S,R-S,323,64,63097,0.020477768029299112,-0.14865323092421137,-0.06836980191009212,0.1532616621804171,894.0,13.087826154488829,0.6744131855500081,12.120737727870319,-0.1405166202741654,0.03,0.9999999999861829,1734.961541589365,1.6044384036266754,323,2026-10-07 23:32:19.181243,25.0,0.12691920845945742,1.0191214986971768,1.1311903363502296
0053,cdot_cos,T,S-T,324,64,63391,-0.07835407056313164,-0.0015567911984409855,-0.09883183859243075,0.07793101964979143,894.0,13.115037734320152,0.6744981780157626,12.141015781667102,-0.11292257891237387,0.294,0.9999999999859851,324.6645584030918,1.6094063761387358,324,2026-10-07 23:32:19.475244,25.0,0.7832036876110575,0.2257074172784021,0.09255639398409428
0053,cdot_cos,P,T-P,325,65,63827,0.04142492489976708,-0.0021934605574496432,0.11977899546289872,0.9523238955806358,884.0,13.220542115848529,0.6755358647830477,12.178445338962264,-0.4393104093882465,0.436,0.9999999999859669,-314.5340586059501,1.6143748351454068,325,2026-10-07 23:32:19.911244,25.0,0.47570616254422476,0.16285827671162373,0.241982526441231
0053,cdot_cos,Q,P-Q,326,65,63925,-0.01912132695303029,-0.011612126015419251,-0.06054625185279737,0.1803975622273063,884.0,13.257050151612688,0.6757322387777883,12.200713848908105,-0.15278792985427403,0.098,0.9999999999857635,1459.0652897419595,1.6193421460031245,326,2026-10-07 23:32:20.009243,25.0,0.1533096950521258,0.7234138958009043,0.3725309771852977
0053,cdot_cos,R,Q-R,327,65,63951,0.09533829261002358,0.11499393679900326,0.11445961956305387,0.9459096105287894,884.0,13.362331239425506,0.6767609070620508,12.238013898701347,-0.4422322567267191,0.026,0.9999999999857431,-281.37771067760445,1.624309211766195,327,2026-10-07 23:32:20.035244,25.0,0.5196979530396105,2.57017833488149,4.049272608185311
0053,cdot_cos,S,R-S,328,65,63980,0.0020054339908012505,-0.10672237282038517,-0.09333285861922233,0.0884006335847143,884.0,13.390699425026526,0.6768569548444152,12.25845159343224,-0.11974027379798144,0.029,0.9999999999855396,3357.6202905474306,1.6292762891101404,328,2026-10-07 23:32:20.064243,25.0,0.06765984219460258,0.9277832877454003,0.9782132965868755
0053,cdot_cos,T,S-T,329,65,64270,-0.11097678936172853,-0.0020531468537808126,-0.11298222335252978,0.05601157261006057,884.0,13.41614267011474,0.6769178040115641,12.27822767425757,-0.10759975272987046,0.29,0.9999999999853298,199.51827834235988,1.6342442700773399,329,2026-10-07 23:32:20.354244,25.0,0.8933021685184814,0.2312101283250591,0.08773532789039251
0053,cdot_cos,P,T-P,330,66,64711,0.041503071512359116,0.0014411704829517113,0.15247986087408766,0.9783740170610871,911.0,13.52480129945506,0.6779797106129454,12.316164623738292,-0.46102011362467,0.441,0.9999999999853172,-332.8168036954347,1.639212781810365,330,2026-10-07 23:32:20.795244,25.0,0.46458763207701637,0.1657654737936332,0.2463914497512935
0053,cdot_cos,Q,P-Q,331,66,64821,-0.016803179848732704,-0.012304392239977088,-0.05830625136109182,0.18882605221890128,911.0,13.562347818000724,0.6781844473879253,12.338537478599793,-0.1601147834648868,0.11,0.9999999999851096,1469.7180327732,1.64418013939483,331,2026-10-07 23:32:20.905244,25.0,0.1526954135779889,0.6427360492401587,0.34133198677876403
0053,cdot_cos,R,Q-R,332,66,64850,0.0816036064007883,0.11529013104058408,0.09840678624952101,0.9213019645756675,911.0,13.666203230287895,0.6791823970689806,12.37534531944861,-0.444468663815012,0.029,0.9999999999850823,-284.9380943229604,1.649147213716551,332,2026-10-07 23:32:20.934243,25.0,0.5274182679571245,2.3185801943063344,3.5812211133507197
0053,cdot_cos,S,R-S,333,66,64875,-0.001640842207044938,-0.09402836645908025,-0.08324444860783324,0.11094631212998457,911.0,13.696825469270491,0.6793024633677864,12.396159804301382,-0.13167513752914417,0.025,0.9999999999848762,2605.173386678843,1.6541142750955433,333,2026-10-07 23:32:20.959244,25.0,0.09296853224118694,1.1029842983196403,1.2248895593038611
0053,cdot_cos,T,S-T,334,66,65170,-0.12496503176913155,-0.003087218642153214,-0.12332418956208661,0.0438095725995595,911.0,13.721352445203877,0.679349867632851,12.41562496855244,-0.10567000304603302,0.295,0.9999999999846578,548.582167610819,1.6590822959385945,334,2026-10-07 23:32:21.254244,25.0,0.7818459105137434,0.2280571163170759,0.08314229129961183
0053,cdot_cos,P,T-P,335,67,65622,0.040882139110927675,-0.001262799841958083,0.16584717088005924,0.9844217587365771,865.0,13.831379167897566,0.680414086840893,12.453676481660246,-0.47551758156212875,0.452,0.9999999999846446,-347.52950869638653,1.6640508829153182,335,2026-10-07 23:32:21.706244,25.0,0.45942527271237793,0.16092773348491243,0.24342195286214444
0053,cdot_cos,Q,P-Q,336,67,65724,-0.024637297968494436,-0.015960265634265308,-0.06551943707942211,0.16273930417236745,865.0,13.866831116274238,0.6805898373364802,12.475473099024402,-0.15398188729612566,0.102,0.9999999999844235,1829.5009251143158,1.6690182171548837,336,2026-10-07 23:32:21.808243,25.0,0.12391744328335651,0.6960048657096517,0.34756812133991705
0053,cdot_cos,R,Q-R,337,67,65750,0.08699780810829806,0.11687544236440743,0.1116351060767925,0.9421808743135922,865.0,13.973364160502335,0.6816063372062059,12.512684541147058,-0.46429864868465753,0.026,0.9999999999843997,-305.2796863341044,1.67398527874801,337,2026-10-07 23:32:21.834244,25.0,0.5125505475540667,2.731309620215915,4.097424778003746
0053,cdot_cos,S,R-S,338,67,65778,0.021212406647088046,-0.1376132916668277,-0.06578540146121001,0.1618353586812831,865.0,14.008859216525465,0.6817807645488235,12.534442318461535,-0.15544075088583115,0.028,0.9999999999841993,1770.6965729328426,1.6789523488964049,338,2026-10-07 23:32:21.862243,25.0,0.1371086626812466,1.1346038491185175,1.2676805722546496
