record_id,input,event,transition,event_index,k,peak,value_cos,value_sin,value_return,x_input,rr,knowledge,decision,decision_norm,entropy,delta_t,cosine_similarity,delta_h_over_delta_d,frobenius_norm,matrix_size,timestamp,scale,P,zdot,zdot_back
0082,cdot_cos,Q,P-Q,1,0,1347,-0.05092211584026942,-0.04463715913576702,-0.09513061774993518,0.0052138455562825235,786.0,2.589790879420253e-05,0.5000064744771981,0.5000064744771981,,,1.0,,0.004967141530112327,1,2026-10-07 23:01:17.431243,55.2,,,
0082,cdot_cos,R,Q-R,2,0,1380,0.06632945145201992,0.2271928564989381,0.11725156729228933,0.9984566980100431,786.0,0.007050383014476393,0.5012463408285013,0.7088693732895534,-8.963991070230916e-06,,1.0,,0.009934283060224654,2,2026-10-07 23:01:17.464243,55.2,,,
0082,cdot_cos,S,R-S,3,0,1419,0.09829871426542983,-0.11480829830531558,0.03196926281340991,0.8537977381828075,786.0,0.01598043395059404,0.5023065605986914,0.8700204839321086,-3.708844196508781e-05,0.039,1.0,-0.026527000991326467,0.014901424598996297,3,2026-10-07 23:01:17.503244,55.2,0.46845853183562974,0.14620458087399793,0.22897566502865763
0082,cdot_cos,T,S-T,4,0,1670,-0.05855926822489627,-0.027326711075866886,-0.1568579824903261,0.00017360390661588175,786.0,0.01845434032264823,0.5023067761728969,1.0046135523472974,-1.5362284638132572e-05,0.251,0.9999999999999998,100.78273176476542,0.01986856624298429,4,2026-10-07 23:01:17.754244,55.2,0.24310714365962177,0.031378938292140744,0.009856200685474865
0082,cdot_cos,P,T-P,5,1,2006,0.07549869705143174,0.006023001991705668,0.13405796527632802,0.9993891204471896,803.0,0.03173266097324869,0.5035477598000334,1.125967020855986,-0.00012017028338161899,0.336,1.0,-0.08445558543372708,0.024835708003698036,5,2026-10-07 23:01:18.090244,55.2,0.41804660119743065,0.024501555328204864,0.03951881146012042
0082,cdot_cos,Q,P-Q,6,1,2145,-0.0029584270011279077,-0.005334782875085107,-0.07845712405255964,0.012985732401061914,803.0,0.0349193855032019,0.5035638844771545,1.2334745699251735,-3.8301915947053675e-05,0.139,1.0,5.077209721458471,0.029802849644795272,6,2026-10-07 23:01:18.229243,55.2,0.11795543914218493,0.06715739553359987,0.02292607575505905
0082,cdot_cos,R,Q-R,7,1,2179,0.057263825622069796,0.27438932534077565,0.060222252623197706,0.9652520387076129,803.0,0.05040241693158946,0.5047624366765828,1.3354758787002037,-0.0002382106457084057,0.034,0.9999999999999996,-0.16679184257198185,0.034769991165992484,7,2026-10-07 23:01:18.263244,55.2,0.4320517570560814,0.2872707623229411,0.4553832773055163
0082,cdot_cos,S,R-S,8,1,2218,2.8494476442356685e-06,-3.187554676936116e-05,-0.05726097617442556,0.04066760134328779,803.0,0.054453797341161896,0.5048129324791623,1.4278265912362789,-7.660224665819074e-05,0.039,0.9999999999999998,3.2004323289247876,0.03973713272995311,8,2026-10-07 23:01:18.302243,55.2,0.12127333120240322,0.09428937493994267,0.10388154896339587
0082,cdot_cos,T,S-T,9,1,2483,-0.25125458299104775,-0.4150350309625596,-0.251257432438692,9.475262289133982e-07,803.0,0.057756988176904986,0.5048129336556775,1.5144388010658818,-6.683632730102101e-05,0.265,1.0,8300.716559317534,0.04470427483878331,9,2026-10-07 23:01:18.567244,55.2,0.8640566579675116,0.04176395208100763,0.012464871078275812
0082,cdot_cos,P,T-P,10,2,2809,0.07180126226633506,0.005198722543203248,0.3230558452573828,0.9999999819961943,810.0,0.07658869194409594,0.5060545717192375,1.6002850671749589,-0.0004561778418426584,0.326,1.0000000000000002,-0.31357085930928535,0.049671417254345734,10,2026-10-07 23:01:18.893243,55.2,0.4259274519717134,0.03506918858750249,0.05776596247604587
0082,cdot_cos,Q,P-Q,11,2,2950,-0.0007315256194294373,-0.001411081733632866,-0.07253278788576449,0.017919040404235212,810.0,0.08062209913595661,0.5060768200468936,1.6784669275252073,-0.00011433384754988805,0.141,1.0000000000000002,15.364929875953315,0.05463855915419842,11,2026-10-07 23:01:19.034244,55.2,0.05029368704170879,0.027581769120467794,0.028605724764969285
0082,cdot_cos,R,Q-R,12,2,2984,-0.08533914217147828,0.3308973657751011,-0.08460761655204885,0.00928211456522787,810.0,0.08436675083606786,0.5060883447352738,1.7531414528027027,-0.0001114002532132787,0.034,0.9999999999999998,0.25454869058817714,0.05960570062454732,12,2026-10-07 23:01:19.068243,55.2,0.9740098902971065,0.10676701715256394,0.11013681470915436
0082,cdot_cos,S,R-S,13,2,3022,-0.18556906900146203,0.29896147613990265,-0.10022992682998375,0.0039397441811104125,810.0,0.08788225630233096,0.5060932363260333,1.8247451141474569,-0.00010918539632941729,0.038,0.9999999999999997,0.4527886719740585,0.06457284213158018,13,2026-10-07 23:01:19.106244,55.2,0.9799190771991294,0.09001862404127334,0.09251330174376578
0082,cdot_cos,T,S-T,14,2,3266,-0.3250042980337387,-0.3967577480897222,-0.13943522903227668,0.0004540610912323292,810.0,0.09120816626320463,0.5060938000887145,1.893629605921179,-0.00010739965520322328,0.244,1.0,3.1675405019312097,0.06953998447799062,14,2026-10-07 23:01:19.350244,55.2,0.9835104009858239,0.05279676655460186,0.013630778528170797
0082,cdot_cos,P,T-P,15,3,3619,0.06487629540140745,0.0035063089394921886,0.38988059343514614,0.9999999995498359,821.0,0.11364707838097667,0.5073353608856515,1.9649014042260777,-0.0008287813191035451,0.353,0.9999999999999998,-0.5810280621617951,0.07450712751378186,15,2026-10-07 23:01:19.703244,55.2,0.4187787451463419,0.03747650284542136,0.06356632327980746
0082,cdot_cos,Q,P-Q,16,3,3756,-0.011283483695999671,-0.011566432775581023,-0.07615977909740712,0.014715634344102444,821.0,0.11766657727207211,0.5073536306024294,2.0294145232208574,-0.0001676346483497121,0.137,0.9999999999999999,36.18811822800102,0.07947426956289944,16,2026-10-07 23:01:19.840243,55.2,0.01937108366088162,0.10121611389229607,0.029339407964200318
0082,cdot_cos,R,Q-R,17,3,3792,0.06023635673893145,0.25197804469227486,0.07151984043493112,0.9810699878253539,821.0,0.1413802935874658,0.508571599398347,2.0968944234215705,-0.0011074773924160024,0.036,0.9999999999999994,-0.7716476376213679,0.08444141104204655,17,2026-10-07 23:01:19.876243,55.2,0.4279992667930547,0.3964835194888335,0.6587143420942689
0082,cdot_cos,S,R-S,18,3,3834,6.522938078060692e-05,-0.0009117391221168224,-0.06017112735815084,0.034842740924628274,821.0,0.14621339067526812,0.508614853824672,2.157870073831864,-0.00025058811587244835,0.042,1.0,19.810441366270748,0.08940855263271937,18,2026-10-07 23:01:19.918243,55.2,0.032728375433532485,0.10523557924741274,0.11507374018576974
0082,cdot_cos,T,S-T,19,3,4082,-0.22188652482127696,-0.17212995838403167,-0.22195175420205757,4.776790842681586e-06,821.0,0.15022008224424846,0.50861485975466,2.2170007758020183,-0.00021412568289129553,0.248,1.0,6148.820644473652,0.09437569591896917,19,2026-10-07 23:01:20.166244,55.2,0.8434242446121832,0.06073163018270286,0.016156014391049765
0082,cdot_cos,P,T-P,20,4,4440,0.05074931768251758,-0.0026860296723635103,0.2726358425037945,0.9999997088708336,784.0,0.17633627924588874,0.509856220463731,2.2801463366517103,-0.0015373892687038614,0.358,0.9999999999999998,-1.0659783060178107,0.09934284045931302,20,2026-10-07 23:01:20.524243,55.2,0.42285699420831074,0.04272246191754852,0.07295027095430245
0082,cdot_cos,Q,P-Q,21,4,4567,-0.044417077365283456,-0.04119907144767748,-0.09516639504780103,0.005203612385988687,784.0,0.1808093649772132,0.5098626797209657,2.3364843255233314,-0.00028798384063253587,0.127,0.9999999999999998,193.42865327790264,0.10430998288495902,21,2026-10-07 23:01:20.651244,55.2,0.013056662775255723,0.12587447579585942,0.03522114749074379
0082,cdot_cos,R,Q-R,22,4,4600,0.06550383302052844,0.2293517146242203,0.10992091038581189,0.9976887071168483,784.0,0.20830839609803703,0.5111010498634,2.3972764209662962,-0.0019287185963837881,0.033,0.9999999999999998,-1.3249146596234722,0.10927712432672508,22,2026-10-07 23:01:20.684243,55.2,0.42712163808886944,0.8048484592379328,0.8333039733582979
0082,cdot_cos,S,R-S,23,4,4648,0.10142858555871716,-0.11318577932463714,0.03592475253818872,0.8790055292848274,784.0,0.23392936328691677,0.512191993416561,2.456386509852072,-0.0020421027686689255,0.048,0.9999999999999998,-0.10393220800160605,0.11424426611463982,23,2026-10-07 23:01:20.732243,55.2,0.9459900339019287,0.3193902368201354,0.5337701497683279
0082,cdot_cos,T,S-T,24,4,4901,-0.041364087472044744,-0.019309700739251277,-0.1427926730307619,0.00037727624302206066,784.0,0.23896985883277003,0.5121924616341162,2.5092203641682915,-0.0004296037542643292,0.253,1.0,3443.9097727350586,0.1192114113738871,24,2026-10-07 23:01:20.985244,55.2,0.02343659651877789,0.06781276883992561,0.019922907295862678
0082,cdot_cos,P,T-P,25,5,5224,0.029365902201866047,0.0032461251945693735,0.0707299896739108,0.9802430540100523,797.0,0.26824262431991913,0.5134089147042021,2.567044576409548,-0.0026756283181835457,0.323,0.9999999999999999,-1.846371733650716,0.12417855820380064,25,2026-10-07 23:01:21.308243,55.2,0.4319531354802252,0.05365375616307277,0.09062775692615822
0082,cdot_cos,Q,P-Q,26,5,5365,-0.07598041176376495,-0.08023739751353538,-0.105346313965631,0.0029732661221798643,797.0,0.27363018531411504,0.5134126042064949,2.617900891469843,-0.0005260917410576828,0.141,0.9999999999999996,582.6088199824106,0.12914570179735216,26,2026-10-07 23:01:21.449243,55.2,0.016808697572179534,0.12895310621653283,0.03820965244110572
0082,cdot_cos,R,Q-R,27,5,5399,0.0389439334393043,0.19474407492550153,0.11492434520306925,0.9982455149451793,797.0,0.3046074002729814,0.51465123397098,2.674206260887677,-0.0032274548717452977,0.034,0.9999999999999998,-2.180928642394303,0.13411284325912795,27,2026-10-07 23:01:21.483244,55.2,0.4330098263582014,0.9242632288367554,0.9110945576137162
0082,cdot_cos,S,R-S,28,5,5452,0.2341146019852193,-0.19441078263651873,0.195170668545915,0.9999790514652105,797.0,0.3364800848750144,0.515891834289223,2.7298429985857733,-0.003681133343123656,0.053,0.9999999999999998,-0.3656926930511122,0.13907998538703945,28,2026-10-07 23:01:21.536243,55.2,0.8840477187378948,0.35687356920041763,0.6013714075855287
0082,cdot_cos,T,S-T,29,5,5685,-0.004596350101507597,-0.0026072024804875368,-0.2387109520867269,1.8939490787183224e-06,797.0,0.34243599860822566,0.5158918366387254,2.778162567988392,-0.0007284673661277246,0.233,0.9999999999999998,1256719.72676004,0.1440471327355985,29,2026-10-07 23:01:21.769243,55.2,0.017365709735376933,0.08063647525724586,0.025561861515928104
0082,cdot_cos,P,T-P,30,6,6021,0.04766413514873081,0.0033481059252096464,0.05226048525023841,0.9470888483028238,804.0,0.374056682344891,0.5170666396518827,2.832090629629603,-0.004080950092445202,0.336,0.9999999999999993,-2.8536551990172394,0.14901428354799176,30,2026-10-07 23:01:22.105243,55.2,0.4397734176963375,0.05673004994467583,0.09410917778769441
0082,cdot_cos,Q,P-Q,31,6,6159,-0.03298210869591792,-0.0373093695024114,-0.08064624384464872,0.011524682189310072,804.0,0.3805585921710478,0.5170809341461118,2.878984807547805,-0.0008837795612874554,0.138,0.9999999999999994,223.6644738822093,0.1539814283832926,31,2026-10-07 23:01:22.243244,55.2,0.026846740785808496,0.1465132031594503,0.0471152885953394
0082,cdot_cos,R,Q-R,32,6,6194,0.052254695155751416,0.23608090377829233,0.08523680385166933,0.9910318883176688,804.0,0.41449432641689926,0.5183100410220614,2.9320043689730184,-0.004859091142678201,0.035,0.9999999999999992,-3.2343091224833818,0.15894856986487513,32,2026-10-07 23:01:22.278244,55.2,0.44126117716165797,0.9170658394579659,0.9695924070243269
0082,cdot_cos,S,R-S,33,6,6250,0.08165842902279523,-0.09096075135177126,0.029403733867043813,0.8352203023876629,804.0,0.44475320093310544,0.5193457343569055,2.9834141172597204,-0.0046817150205995545,0.056,0.9999999999999988,0.17126316846033032,0.16391571238866326,33,2026-10-07 23:01:22.334244,55.2,0.9628217366658638,0.3299956016549482,0.5403370449322532
0082,cdot_cos,T,S-T,34,6,6483,-0.05908123552212542,-0.027180664960181285,-0.14073966454492065,0.00042252915766311845,804.0,0.45145383380225346,0.5193462582619385,3.0282830603226145,-0.0010813294962969406,0.233,0.9999999999999993,6872.210223917463,0.1688828625117196,34,2026-10-07 23:01:22.567244,55.2,0.035807728718896925,0.09125233265853787,0.028758080983467875
0082,cdot_cos,P,T-P,35,7,6825,0.0359586657902884,0.003262342620476051,0.09503990131241383,0.9947601175349761,813.0,0.4872767879519841,0.5205795670823039,3.07979026715921,-0.006054113838399247,0.342,0.9999999999999987,-4.0320674432773975,0.17385001795515567,35,2026-10-07 23:01:22.909244,55.2,0.43982018662628214,0.06292452060282483,0.1047454799699726
0082,cdot_cos,Q,P-Q,36,7,6968,-0.04684349745415976,-0.051134304475834655,-0.08280216324444817,0.010244880804210396,813.0,0.49449420589458565,0.5205922674603117,3.1235536244572923,-0.0012756729387337546,0.143,0.9999999999999981,376.2439902750776,0.1788171645352815,36,2026-10-07 23:01:23.052243,55.2,0.023616261472410565,0.15409270975061243,0.05047145414406683
0082,cdot_cos,R,Q-R,37,7,7001,0.04567830037633978,0.21703092769849855,0.09252179783049955,0.9939834301988222,813.0,0.5313473029406592,0.5218243601840601,3.1741336872359494,-0.006804725315212578,0.033,0.9999999999999983,-4.4875294447466265,0.18378430586344796,37,2026-10-07 23:01:23.085243,55.2,0.44373341644516906,1.0320938169455658,1.1167605165476846
0082,cdot_cos,S,R-S,38,7,7058,0.0694785857566051,-0.08938838890951999,0.023800285380265317,0.7881442900835349,813.0,0.562612397812993,0.522801116901335,3.2227625477522044,-0.006155191127568002,0.057,0.9999999999999978,0.6649907557909838,0.18875144877707264,38,2026-10-07 23:01:23.142244,55.2,0.899850858773428,0.33878301440999115,0.5485104363567325
0082,cdot_cos,T,S-T,39,7,7300,-0.1112309791956835,-0.050722707764266246,-0.1807095649522886,4.653924952022172e-05,813.0,0.5699685665833982,0.5228011745729129,3.2648923116484907,-0.0014993444160535468,0.242,0.9999999999999978,80730.35081327579,0.19371860272433034,39,2026-10-07 23:01:23.384243,55.2,0.04481309075530603,0.09510534026078495,0.030397391613244777
0082,cdot_cos,P,T-P,40,8,7638,0.07300109131330919,0.0015803840821700097,0.1842320705089927,0.999961684215112,794.0,0.6086433824992129,0.5240401872211791,3.314321182169596,-0.00820122101995873,0.338,0.9999999999999976,-5.409046157263508,0.19868576314633865,40,2026-10-07 23:01:23.722244,55.2,0.44167527328740624,0.06890953407534489,0.11442253229530969
0082,cdot_cos,Q,P-Q,41,8,7771,-0.008653127317116557,-0.013340177921948826,-0.08165421863042574,0.0109077628294479,794.0,0.6165514116183314,0.5240537009914995,3.3555809898783076,-0.0017432179627169997,0.133,0.9999999999999968,477.8831446820011,0.2036529108981826,41,2026-10-07 23:01:23.855244,55.2,0.024608961202874088,0.17577756042064074,0.05945886555728177
0082,cdot_cos,R,Q-R,42,8,7808,0.05746759260999422,0.2629933121053558,0.06612071992711077,0.9746639321650851,794.0,0.6554002135711033,0.5252610803782614,3.4040808990428606,-0.008888384378491621,0.037,0.9999999999999967,-5.917913204512868,0.208620052400309,42,2026-10-07 23:01:23.892244,55.2,0.44759035646972234,0.6476336159637053,1.0499676203451882
0082,cdot_cos,S,R-S,43,8,7848,0.0001350075100820504,-0.0013249760279647525,-0.05733258509991217,0.04051366699911596,794.0,0.6644762991996456,0.5253112609886039,3.4446963386696257,-0.002154775695643777,0.04,0.9999999999999956,134.18746079172635,0.21358719431468803,43,2026-10-07 23:01:23.932243,55.2,0.043938266489228474,0.20958068130794844,0.22690214071355574
0082,cdot_cos,T,S-T,44,8,8100,-0.14996387714178053,-0.06931812144022068,-0.15009888465186258,0.00025209348726199193,794.0,0.6721666680757392,0.5253115732323774,3.484522812118019,-0.0018489822628470274,0.252,0.9999999999999957,979.3419717083016,0.2185543516887223,44,2026-10-07 23:01:24.184243,55.2,0.8475675564660189,0.0964368207083038,0.030517336809895417
0082,cdot_cos,P,T-P,45,9,8432,0.024592462172737087,0.0011962912331095158,0.1745563393145176,0.99993463837817,807.0,0.7130804568366307,0.5265499371003691,3.5322044042687115,-0.01019190208296468,0.332,0.9999999999999952,-6.7370504225447725,0.22352151577434637,45,2026-10-07 23:01:24.516243,55.2,0.4410561003721708,0.07365651756085721,0.12323430349666104
0082,cdot_cos,Q,P-Q,46,9,8569,-0.07831910143554119,-0.07634756565184354,-0.10291156360827827,0.0033995112289897616,807.0,0.7210745957361484,0.5265541466590099,3.5712640307102848,-0.0020617010631132785,0.137,0.9999999999999938,1931.3666143274534,0.22848866507496465,46,2026-10-07 23:01:24.653243,55.2,0.019381365973970516,0.1817911649906449,0.058351378828596506
0082,cdot_cos,R,Q-R,47,9,8603,0.04792792414642342,0.1995094843034301,0.1262470255819646,0.9990601366986531,807.0,0.7628912360440674,0.5277911002435121,3.6183535418836095,-0.011156136310249977,0.034,0.9999999999999934,-7.352284969364476,0.23345580616373762,47,2026-10-07 23:01:24.687244,55.2,0.4425526756817395,1.238500110951397,1.2299011855270288
0082,cdot_cos,S,R-S,48,9,8662,0.15661193511050997,-0.17049698255900533,0.10868401096408656,0.9975257913705292,807.0,0.8052926032808434,0.5290258137865804,3.66519840979974,-0.011950755068570892,0.059,0.9999999999999936,-0.6435652729184625,0.2384229498881725,48,2026-10-07 23:01:24.746243,55.2,0.9356712504978607,0.4300642092924678,0.7186672413012883
0082,cdot_cos,T,S-T,49,9,8899,-0.03315752483357822,-0.01633078433183265,-0.1897694599440882,2.8225000948800254e-05,807.0,0.8136388127405786,0.5290258487178577,3.7031810004743146,-0.0024284895478048282,0.237,0.9999999999999929,272599.98066664796,0.2433901109192917,49,2026-10-07 23:01:24.983244,55.2,0.019819973986045625,0.10908370229330037,0.03521607366976873
0082,cdot_cos,P,T-P,50,10,9239,0.09881909851320098,0.020628972781507427,0.1319766233467792,0.9993147967489499,820.0,0.8569982781678678,0.5302624205760801,3.7495216022151996,-0.013015376524011272,0.34,0.9999999999999925,-8.561481409924527,0.24835728289172138,50,2026-10-07 23:01:25.323244,55.2,0.44334199561879994,0.07652594784112585,0.127527839492027
0082,cdot_cos,Q,P-Q,51,10,9380,-5.420044477783365e-05,-0.00010173447714642328,-0.0988732989579788,0.0042448026939852735,820.0,0.8656764572725442,0.5302676723971509,3.78686871159508,-0.0026860991413830385,0.141,0.9999999999999908,1966.799181344216,0.25332443506451585,51,2026-10-07 23:01:25.464243,55.2,0.02137664105802087,0.060730009205210454,0.06154736953671197
0082,cdot_cos,R,Q-R,52,10,9415,-0.17895572573556465,0.44471569654686915,-0.17890152529078682,5.142348306553499e-05,820.0,0.8741241407637371,0.5302677360200745,3.823815110266524,-0.0026407497503904112,0.035,0.9999999999999893,712.7838274213882,0.2582915760693626,52,2026-10-07 23:01:25.499244,55.2,0.9829736915996201,0.24083154911006857,0.24136238546265595
0082,cdot_cos,S,R-S,53,10,9452,-0.29990754214254867,0.4114711744549681,-0.12095181640698402,0.0012585442255568348,820.0,0.882534665710249,0.5302692931345008,3.86041881198409,-0.0026546085815831164,0.037,0.9999999999999882,-8.90032932631089,0.2632587173729796,53,2026-10-07 23:01:25.536243,55.2,0.9947929355838159,0.22612386721909233,0.22731148504086066
0082,cdot_cos,T,S-T,54,10,9715,-0.4254073200569011,-0.5886651839465836,-0.1254997779143524,0.0009794027375815452,820.0,0.89085730693795,0.5302705048850199,3.896676575689616,-0.002651891536681667,0.263,0.9999999999999868,2.242247771728082,0.268225882336686,54,2026-10-07 23:01:25.799244,55.2,0.9989759560526394,0.10146545299007932,0.03164502367947144
0082,cdot_cos,P,T-P,55,11,10059,0.08529931058559372,0.0073407038461454485,0.5107066306424948,0.9999999999994287,816.0,0.9359054939830307,0.5315075503156009,3.9417655890014474,-0.014781416464330756,0.344,0.9999999999999866,-9.805238051727956,0.27319305688296835,55,2026-10-07 23:01:26.143244,55.2,0.4401706141178956,0.07825211727771507,0.13095403210779286
0082,cdot_cos,Q,P-Q,56,11,10198,-0.0007239615536411607,-0.001318331897809238,-0.08602327213923487,0.008590381655625492,816.0,0.9446947636250179,0.5315181753524343,3.977517926749132,-0.0029689623422109266,0.139,0.9999999999999843,1111.7565338725271,0.27816020926934654,56,2026-10-07 23:01:26.282243,55.2,0.018710931777462258,0.1923359419482627,0.06323215569774984
0082,cdot_cos,R,Q-R,57,11,10233,0.06075729446030255,0.29243756567112206,0.06148125601394371,0.9675091173382163,816.0,0.9893748858446477,0.5327146564851851,4.021907575836507,-0.015517001752611594,0.035,0.9999999999999837,-10.487452803832678,0.28312734993767064,57,2026-10-07 23:01:26.317244,55.2,0.44545283096141547,1.0319346392226598,1.2765749205608514
0082,cdot_cos,S,R-S,58,11,10290,0.06075729446030255,0.29243756567112206,0.0,0.5,816.0,1.0169301883706041,0.5333328405932497,4.061742022591197,-0.009925497018590591,0.057,0.9999999999999837,9.045047682521277,0.2880944936789894,58,2026-10-07 23:01:26.374244,55.2,0.569300092334087,0.31828492909236156,0.48342636010449813
0082,cdot_cos,T,S-T,59,11,10518,-0.26049305788902416,-0.23512394249303456,-0.3212503523493267,1.9890582278469382e-08,816.0,1.025659367761177,0.5333328406178398,4.096607401660332,-0.0032011397564946325,0.228,0.999999999999982,273457820.3774601,0.2930616592635698,59,2026-10-07 23:01:26.602243,55.2,0.12238132908351723,0.12250008824920817,0.03828587452005626
0082,cdot_cos,P,T-P,60,12,10875,0.06176670285241006,0.003600067137703619,0.3222597607414342,0.9999999811873969,800.0,1.072790228612243,0.5345688998997187,4.140753025591504,-0.017750375481684243,0.357,0.9999999999999812,-11.770661762334024,0.2980288425660618,60,2026-10-07 23:01:26.959244,55.2,0.4405823461506352,0.07911738093823724,0.1320192180702132
0082,cdot_cos,Q,P-Q,61,12,11014,-0.018521996292300072,-0.022064058330582337,-0.08028869914471012,0.011751698585450577,800.0,1.0821491777510783,0.5345834232024574,4.175230158587075,-0.003619628744993533,0.139,0.9999999999999784,972.9706108082117,0.3029959973019038,61,2026-10-07 23:01:27.098243,55.2,0.02016268679641741,0.2032450245229937,0.06733056934413871
0082,cdot_cos,R,Q-R,62,12,11048,0.05151615291460459,0.2539727554965441,0.07003814920690465,0.9794897263866952,800.0,1.1292923454296353,0.5357937142792166,4.21884408261677,-0.018704555540540457,0.034,0.9999999999999777,-12.46388334609561,0.30796313776444695,62,2026-10-07 23:01:27.132244,55.2,0.4464248918031571,0.9034444468939548,1.3865637552516756
0082,cdot_cos,S,R-S,63,12,11105,0.01746137072892744,-0.030540531831958845,-0.034054782185677146,0.13240909325500166,800.0,1.1435834001398673,0.5359572914671439,4.254029277981239,-0.005827370822270913,0.057,0.9999999999999762,78.72237493162059,0.31293028190636096,63,2026-10-07 23:01:27.189243,55.2,0.10972521419380961,0.20470556348288213,0.2507202580742448
0082,cdot_cos,T,S-T,64,12,11348,-0.14504952317624153,-0.07309225343071175,-0.16251089390516898,0.00012707559311099542,800.0,1.1526287796666839,0.5359574484516557,4.287659748179721,-0.0037262455489985888,0.243,0.9999999999999741,13384.283893495054,0.31789745358804133,64,2026-10-07 23:01:27.432243,55.2,0.5690016579591373,0.11946808565484744,0.03722378406097371
0082,cdot_cos,P,T-P,65,13,11675,0.06725408357724882,0.0022632391847249595,0.21230360675349036,0.9999918636365565,800.0,1.2016448897681231,0.5371925784373514,4.330985202418276,-0.020695248614026312,0.327,0.9999999999999736,-13.738637440229102,0.3228646389671366,65,2026-10-07 23:01:27.759244,55.2,0.4404550820760933,0.08981012802418577,0.14989636116648086
0082,cdot_cos,Q,P-Q,66,13,11809,-0.011646720786917395,-0.013494045540178662,-0.07890080436416622,0.012675542076547692,800.0,1.2113646033945014,0.5372082316100762,4.3643004989184675,-0.004206155529275351,0.134,0.9999999999999711,1053.4026152108597,0.32783179501284476,66,2026-10-07 23:01:27.893243,55.2,0.019836550708891915,0.21941399602991854,0.07253517631625556
0082,cdot_cos,R,Q-R,67,13,11845,0.06117829676745792,0.2678838420616825,0.07282501755437532,0.9823626369014066,800.0,1.2604478407041413,0.5384211370692313,4.407167148141101,-0.021750100491558177,0.036,0.9999999999999701,-14.464396074615703,0.3327989356452259,67,2026-10-07 23:01:27.929244,55.2,0.4463667156621963,0.8307291117796126,1.3634232586011092
0082,cdot_cos,S,R-S,68,13,11886,7.245816793470973e-05,-0.0008548261356432528,-0.061105838599523205,0.03314866532840944,800.0,1.2711770994426335,0.5384620572785959,4.440272077414797,-0.004869407753004762,0.041,0.9999999999999682,412.5270373906635,0.3377660774324399,68,2026-10-07 23:01:27.970243,55.2,0.031220419396177507,0.24441918211947647,0.26168923752419937
0082,cdot_cos,T,S-T,69,13,12137,-0.21214685919062057,-0.2574798931182626,-0.2122193173585553,8.174308004481185e-06,800.0,1.2804902136379384,0.5384620673692669,4.472802061808683,-0.0042601612378760844,0.251,0.999999999999966,60377.20489652337,0.3427332548141266,69,2026-10-07 23:01:28.221244,55.2,0.8667452271400904,0.11975455772932203,0.0371040406187446
0082,cdot_cos,P,T-P,70,14,12475,0.06351405523027359,0.0039599934620750555,0.27566091442089413,0.9999997536426525,817.0,1.3312938874227531,0.5396962660762056,4.515423142879405,-0.023777754791551583,0.338,0.999999999999965,-15.813979907731234,0.34770044833514024,70,2026-10-07 23:01:28.559244,55.2,0.4400644140300919,0.08997900306851131,0.15030672717400817
0082,cdot_cos,Q,P-Q,71,14,12617,-0.014841233760059922,-0.017881136144025346,-0.07835528899033352,0.013057978719485233,817.0,1.341316019712252,0.5397123790345382,4.547697582616971,-0.004799897048710471,0.142,0.9999999999999621,1177.8009569138903,0.35266760782505785,71,2026-10-07 23:01:28.701244,55.2,0.019181573677854953,0.21324721864379492,0.07057839640492174
0082,cdot_cos,R,Q-R,72,14,12651,0.05212381861820602,0.2530337906756162,0.06696505237826594,0.975789746346849,817.0,1.3918560975175909,0.54091622251086,4.589826599073802,-0.0247439700055005,0.034,0.9999999999999613,-16.566998408901036,0.35763474790446526,72,2026-10-07 23:01:28.735244,55.2,0.4466332439145365,0.927786812873666,1.4864728766276136
0082,cdot_cos,S,R-S,73,14,12708,0.004908694351387998,-0.014076001465429885,-0.04721512426681802,0.06873567124881248,817.0,1.4044055229876613,0.5410010046938554,4.622314862315684,-0.0062857339403415684,0.057,0.9999999999999593,217.71362110565195,0.36260189272550974,73,2026-10-07 23:01:28.792243,55.2,0.053049577737011404,0.19419941452466719,0.22016535912404261
0082,cdot_cos,T,S-T,74,14,12932,-0.1695594311732293,-0.12737437807573077,-0.1744681255246173,6.568064899090975e-05,817.0,1.413994830773403,0.5410010857066793,4.6538675638280536,-0.004841102535837474,0.224,0.9999999999999558,17832.13243373975,0.36756906972804143,74,2026-10-07 23:01:29.016243,55.2,0.7419973656137583,0.13867792132049384,0.042809409757775134
0082,cdot_cos,P,T-P,75,15,13292,0.04422646988532295,0.003765264630119098,0.21378590105855225,0.9999925028621901,801.0,1.4665332317392425,0.5422342579556753,4.695886692599933,-0.027097157855731198,0.36,0.9999999999999563,-18.04780746405363,0.37253627460295513,75,2026-10-07 23:01:29.376243,55.2,0.43984064278542007,0.08731511556719332,0.14594000268288781
0082,cdot_cos,Q,P-Q,76,15,13433,-0.03354016233539388,-0.03908883978719772,-0.07776663222071684,0.01348343664201859,801.0,1.4768617139817821,0.5422508819792248,4.727233890781666,-0.005443238619426653,0.141,0.9999999999999518,1302.5678874795979,0.37750343622446947,76,2026-10-07 23:01:29.517244,55.2,0.01872058532897113,0.2232668741016852,0.07325164711020973
0082,cdot_cos,R,Q-R,77,15,13468,0.042712001012001274,0.22894585648292406,0.07625216334739515,0.9853581226498416,801.0,1.5294944902359178,0.5434654944957582,4.768890667185107,-0.028319581854065308,0.035,0.9999999999999518,-18.83427259578138,0.382470576277154,77,2026-10-07 23:01:29.552243,55.2,0.4458412158895836,1.451825194060961,1.5037936072610183
0082,cdot_cos,S,R-S,78,15,13524,0.08080893430834485,-0.08452128984732009,0.038096933296343574,0.8911896423374955,801.0,1.5784894775660494,0.5445635846195993,4.809455663908478,-0.02724277273773015,0.056,0.9999999999999518,0.9806199809615798,0.3874377215179653,78,2026-10-07 23:01:29.608243,55.2,0.9612445632497808,0.5276528172607625,0.8749104880380649
0082,cdot_cos,T,S-T,79,15,13752,-0.0629122275003282,-0.0315799468714269,-0.14372116180867306,0.00035843377971383003,801.0,1.5885916057691232,0.5445640261816902,4.84019124896425,-0.005723911118069298,0.228,0.9999999999999484,48733.489725564585,0.3924049062067956,79,2026-10-07 23:01:29.836244,55.2,0.023296126809029642,0.14143959973525125,0.04430757983804284
0082,cdot_cos,P,T-P,80,16,14093,0.05802075993348602,0.003757204256981488,0.12093298743381423,0.9987401486635986,793.0,1.642985935045324,0.5457941205520007,4.881731353698042,-0.03143361648676532,0.341,0.9999999999999482,-20.900595912983473,0.397372118297746,80,2026-10-07 23:01:30.177243,55.2,0.4413554204398581,0.09525536956520918,0.1595141621002956
0082,cdot_cos,Q,P-Q,81,16,14236,-0.030609565909969265,-0.03735490798471595,-0.08863032584345529,0.007447555556696909,793.0,1.6535557678125958,0.5458032912238838,4.912229986347063,-0.006230908394126965,0.143,0.9999999999999436,2748.185565232368,0.402339284317972,81,2026-10-07 23:01:30.320243,55.2,0.01751340420269089,0.22671000624913856,0.07391491445644657
0082,cdot_cos,R,Q-R,82,16,14269,0.04017536381500303,0.23468545874284033,0.0707849297249723,0.9803017014867639,793.0,1.7078249968325776,0.547010128501212,4.95338776606731,-0.03260616781917459,0.033,0.9999999999999429,-21.854859740030527,0.40730642397528855,82,2026-10-07 23:01:30.353244,55.2,0.4453458999754731,1.5367405854553602,1.644522091514599
0082,cdot_cos,S,R-S,83,16,14309,0.06675450991363674,-0.07496383016878187,0.02657914609863371,0.812626685961627,793.0,1.7549806464526496,0.5480101250098763,4.9926102237076995,-0.029175860607389286,0.04,0.9999999999999424,3.4303191881810227,0.4122735659753087,83,2026-10-07 23:01:30.393243,55.2,0.8890751877756741,0.7213099014352686,1.1788912405018004
0082,cdot_cos,T,S-T,84,16,14554,-0.08852610099148502,-0.04939764000734054,-0.15528061090512174,0.00018939436409822448,793.0,1.765529788947399,0.5480103580286194,5.022598276281856,-0.006635667061841289,0.245,0.999999999999939,96731.24679900153,0.41724076237484864,84,2026-10-07 23:01:30.638243,55.2,0.033479429873580664,0.13634699260782712,0.043057724468365206
0082,cdot_cos,P,T-P,85,17,14886,0.060845615839404274,0.0006482000313322867,0.1493717168308893,0.9997375844439851,787.0,1.821790672830485,0.549240075611967,5.063743704715365,-0.036043651192038374,0.332,0.9999999999999378,-23.914421106464317,0.42220798346073357,85,2026-10-07 23:01:30.970243,55.2,0.44224151003519085,0.1026687910739144,0.16946049362375243
0082,cdot_cos,Q,P-Q,86,17,15022,-0.004359384260776405,-0.008268885450249935,-0.06520500010018068,0.026614707650873398,787.0,1.8337018662204783,0.549272804626025,5.093746889275594,-0.007775844728912642,0.136,0.9999999999999336,863.6925760426394,0.4271751516661293,86,2026-10-07 23:01:31.106244,55.2,0.02637507701502558,0.2465107774999513,0.08758230433818645
0082,cdot_cos,R,Q-R,87,17,15056,0.05354519103043422,0.25699282191403605,0.057904575291210625,0.9606960313085853,787.0,1.8888416043104717,0.5504539176686141,5.134292805457953,-0.03663904939622564,0.034,0.9999999999999326,-24.437292305267842,0.4321422916068551,87,2026-10-07 23:01:31.140243,55.2,0.4548572446103031,1.009334104817944,1.6217570026468644
0082,cdot_cos,S,R-S,88,17,15115,0.002817071085230818,-0.009164645348298315,-0.0507281199452034,0.057313789523575874,787.0,1.9023365853480985,0.5505243633870337,5.164376766306099,-0.00913216431207696,0.059,0.9999999999999284,390.46922511735113,0.4371094392317044,88,2026-10-07 23:01:31.199244,55.2,0.04918885139796012,0.2057431206418235,0.22872849216316624
0082,cdot_cos,T,S-T,89,17,15352,-0.16477370168975972,-0.22744124678621475,-0.16759077277499054,9.600534728756183e-05,787.0,1.9131192925462068,0.5505244813877508,5.193638041464377,-0.007343472449424933,0.237,0.9999999999999245,15158.313498565845,0.44207663895075033,89,2026-10-07 23:01:31.436243,55.2,0.7838200937347142,0.1447740687028799,0.045496654844339096
0082,cdot_cos,P,T-P,90,18,15673,0.060272782988944805,0.005294257686198656,0.22504648467870453,0.999995973326596,797.0,1.9709594939132635,0.5517532711785237,5.234391631046599,-0.04007969500306658,0.321,0.999999999999924,-26.641027456006785,0.4470438650011536,90,2026-10-07 23:01:31.757244,55.2,0.4418529099347698,0.1080610826023034,0.18018754319955357
0082,cdot_cos,Q,P-Q,91,18,15816,-0.018183719376383474,-0.022375337058408627,-0.07845650236532828,0.012986172254674588,797.0,1.9824945075768856,0.5517692243961427,5.26354347527491,-0.008135766799474515,0.143,0.9999999999999183,2002.3501820381064,0.45201103800276665,91,2026-10-07 23:01:31.900243,55.2,0.019715357011940174,0.23937380429067098,0.08066443121414046
0082,cdot_cos,R,Q-R,92,18,15850,0.04290943020699644,0.26080118892585114,0.06109314958337991,0.9668288785477445,797.0,2.0394204019403954,0.5529566502506862,5.303774428092176,-0.04082516976694495,0.034,0.999999999999917,-27.529637191569265,0.45697817761128123,92,2026-10-07 23:01:31.934243,55.2,0.44900696013308616,1.1213596239225392,1.6742910106914648
0082,cdot_cos,S,R-S,93,18,15909,0.01452917732905905,-0.022971749231894996,-0.02838025287793739,0.17270306356694368,797.0,2.0587469620036183,0.5531686950107886,5.334566267894968,-0.014121797399138752,0.059,0.9999999999999135,125.93271512538988,0.4619453257212872,93,2026-10-07 23:01:31.993243,55.2,0.1509309283500142,0.2573498823009065,0.32756881463089604
0082,cdot_cos,T,S-T,94,18,16129,-0.1703786941791809,-0.10908273592607373,-0.18490787150823995,3.6912828158379874e-05,797.0,2.0697876880519024,0.5531687403302811,5.363170487665442,-0.00812716897298734,0.22,0.9999999999999085,132274.83576074033,0.46691252608090644,94,2026-10-07 23:01:32.213243,55.2,0.4782586815719012,0.16007864864993462,0.05018511840129136
0082,cdot_cos,P,T-P,95,19,16470,0.04561338834339811,0.0014624511611947128,0.215992082522579,0.999993362462972,793.0,2.1291815674095895,0.5543961492009749,5.403585849015311,-0.0444424570378269,0.341,0.9999999999999072,-29.58695258924687,0.4718797676961977,95,2026-10-07 23:01:32.554244,55.2,0.4416972789518243,0.10414706021354384,0.1741755992894051
0082,cdot_cos,Q,P-Q,96,19,16609,-0.03876863952653049,-0.04658808817328618,-0.0843820278699286,0.009397329727167199,793.0,2.1408159831175393,0.5544076805213277,5.43206435305281,-0.008852861721885033,0.139,0.9999999999999012,3086.3417394585367,0.47684694255498544,96,2026-10-07 23:01:32.693243,55.2,0.017950752213232838,0.25573235924580184,0.08370083243129325
0082,cdot_cos,R,Q-R,97,19,16645,0.04127150763752633,0.22735352614957038,0.08004014716405683,0.9880878900223544,793.0,2.2002751632799225,0.5556198189488373,5.472221252810549,-0.04597214458766696,0.036,0.9999999999999001,-30.62297343550662,0.481814082586563,97,2026-10-07 23:01:32.729243,55.2,0.44600287847807735,1.6353641513144088,1.6516438933995323
0082,cdot_cos,S,R-S,98,19,16702,0.09674609112702785,-0.10161993860908991,0.055474583489501524,0.9553061949104495,793.0,2.2585622020121767,0.5567911134882968,5.511951474778973,-0.04626354528208144,0.057,0.9999999999998996,-0.248785155737973,0.48678123091840475,98,2026-10-07 23:01:32.786243,55.2,0.9937210844503452,0.6121566722266409,1.0225796268816538
0082,cdot_cos,T,S-T,99,19,16937,-0.07071746200627547,-0.041253698960134956,-0.16746355313330333,9.668185459562231e-05,793.0,2.2700610239137595,0.556791231997547,5.540003482229581,-0.009269681481907655,0.235,0.9999999999998943,312160.13720921543,0.49174844548106916,99,2026-10-07 23:01:33.021244,55.2,0.018484084861909663,0.15428047808433693,0.04893115702801192
0082,cdot_cos,P,T-P,100,20,17263,0.042696780317973644,0.0006891188198634794,0.11341424232424913,0.9980932874710786,805.0,2.331074026711815,0.5580143130884291,5.580143843467787,-0.049944245426127194,0.326,0.9999999999998936,-33.25581946073974,0.49671569568396257,100,2026-10-07 23:01:33.347244,55.2,0.442905252527818,0.11220531388557961,0.18715645030078387
0082,cdot_cos,Q,P-Q,101,20,17398,-0.03986172857371246,-0.040204686674957676,-0.0825585088916861,0.010382162147400334,805.0,2.3432188885671574,0.5580270319015698,5.608103033388521,-0.010099595757749357,0.135,0.9999999999998863,3132.733316201604,0.5016828739750423,101,2026-10-07 23:01:33.482244,55.2,0.019347874312617835,0.27279357202379,0.08996193966920266
0082,cdot_cos,R,Q-R,102,20,17431,0.05777936571657338,0.22720084468664953,0.09764109429028583,0.9954577871096947,805.0,2.4047282911582384,0.5592461754763359,5.648110302045633,-0.0519267366404662,0.033,0.9999999999998852,-34.308625947308684,0.5066500130140471,102,2026-10-07 23:01:33.515244,55.2,0.44686310873651347,1.467921422537461,1.8639212906388167
0082,cdot_cos,S,R-S,103,20,17490,0.05548902473468923,-0.07938642416381841,-0.002290340981884152,0.4684353267185791,805.0,2.44010170245463,0.5598196250390424,5.681549463855469,-0.030463430878340494,0.059,0.9999999999998817,37.428410723391146,0.5116171631777889,103,2026-10-07 23:01:33.574244,55.2,0.4943261774897713,0.39996711541987623,0.5995493440066354
0082,cdot_cos,T,S-T,104,20,17724,-0.10785495004937559,-0.04401014879164498,-0.16334397478406482,0.00012136490820955618,805.0,2.451924410777784,0.5598197735910226,5.70906470095262,-0.010280850619164615,0.234,0.9999999999998755,135862.07482502042,0.5165843853359117,104,2026-10-07 23:01:33.808243,55.2,0.1404191250080472,0.15913895005682455,0.05052439454339276
0082,cdot_cos,P,T-P,105,21,18068,0.0642969049469772,0.0012530409329768225,0.1721518549963528,0.9999253617193453,812.0,2.5145787310812238,0.5610433271231987,5.748984196960343,-0.05527952760740311,0.344,0.9999999999998744,-36.77703983103142,0.5215516548658254,105,2026-10-07 23:01:34.152243,55.2,0.4430730385810126,0.10955847742946927,0.1821346520448837
0082,cdot_cos,Q,P-Q,106,21,18201,-0.011302441315972538,-0.01231056156189369,-0.07559934626294974,0.015170976058209737,812.0,2.5273006432492586,0.5610618853345519,5.776486572323709,-0.011394714462067985,0.133,0.9999999999998666,2364.711356611079,0.5265188362306424,106,2026-10-07 23:01:34.285243,55.2,0.02125143922093713,0.28254366326775,0.09565347494763056
0082,cdot_cos,R,Q-R,107,21,18239,0.06293985172824883,0.25533284520345034,0.07424229304422136,0.98366820093914,812.0,2.5897353455104453,0.5622648110567073,5.816113368684028,-0.05672067731930856,0.038,0.9999999999998644,-37.679768602856996,0.531485977166957,107,2026-10-07 23:01:34.323244,55.2,0.4497298187235179,1.0008309092195236,1.6430184805575432
0082,cdot_cos,S,R-S,108,21,18277,4.436306907636318e-05,-0.0007432767634739098,-0.06289548865917247,0.03012443994726927,812.0,2.6033637923499424,0.5623016386920194,5.843610986832746,-0.012564979627677875,0.038,0.9999999999998577,1198.9827019147679,0.5364531185982211,108,2026-10-07 23:01:34.361243,55.2,0.029771974936918598,0.337547228488929,0.3586433378815041
0082,cdot_cos,T,S-T,109,21,18525,-0.21817745277649353,-0.21058447684310713,-0.2182218158455699,5.868860277412509e-06,812.0,2.615388934875604,0.562301645866733,5.870602479930963,-0.011141553852851985,0.248,0.9999999999998509,198394.78674458203,0.5414203535294326,109,2026-10-07 23:01:34.609244,55.2,0.8800660815833996,0.1534091543320386,0.04848847792605422
0082,cdot_cos,P,T-P,110,22,18880,0.050617347882251716,0.0013014079386370185,0.2687948006587452,0.9999996401121408,806.0,2.6794547328986336,0.5635237701613784,5.910288160318895,-0.060186175234716144,0.355,0.9999999999998493,-40.13063286340615,0.5463876384616835,110,2026-10-07 23:01:34.964243,55.2,0.44269163150786417,0.10849864604477033,0.18046703668459071
0082,cdot_cos,Q,P-Q,111,22,19013,-0.0244737063863757,-0.024686825974870305,-0.07509105426862742,0.015595934215825889,806.0,2.692422973567391,0.5635428242696691,5.9372931441961345,-0.012360051575167301,0.133,0.9999999999998399,2510.0163665544096,0.5513548228101559,111,2026-10-07 23:01:35.097243,55.2,0.020870651643074764,0.2903700365181136,0.09750556893802433
0082,cdot_cos,R,Q-R,112,22,19047,0.06385503511452524,0.24568056035155145,0.08832874150090095,0.9924283704515645,806.0,2.756693162612452,0.5647549212605735,5.976805391440435,-0.062097491789570025,0.034,0.9999999999998382,-41.034208143104934,0.5563219614973959,112,2026-10-07 23:01:35.131244,55.2,0.4488990211494754,1.1664525396232652,1.8902996777959113
0082,cdot_cos,S,R-S,113,22,19098,0.011426030449270427,-0.02375543273686276,-0.05242900466525481,0.05244693433480541,806.0,2.771741746261773,0.564818955640276,6.004108957266242,-0.0147510046450568,0.051,0.9999999999998309,739.3916731058434,0.5612891088627321,113,2026-10-07 23:01:35.182244,55.2,0.04036820885219831,0.26755742695991946,0.295070267633746
0082,cdot_cos,T,S-T,114,22,19344,-0.1567348973436596,-0.05935052984986708,-0.16816092779293004,9.30311430241524e-05,806.0,2.7839840201623636,0.5648190692234791,6.030618508702963,-0.012059426176754273,0.246,0.9999999999998229,23696.976252082775,0.5662563501746286,114,2026-10-07 23:01:35.428244,55.2,0.7999605109092811,0.15791068608109035,0.04976534105931195
0082,cdot_cos,P,T-P,115,23,19686,0.04290585737656273,0.0036271142684378066,0.19964075472022236,0.9999836320602321,806.0,2.8494338038136693,0.5660395696567965,6.070099296035493,-0.06533134884343926,0.342,0.9999999999998215,-43.64760651652622,0.5712236401104681,115,2026-10-07 23:01:35.770243,55.2,0.4424572897983901,0.11436766227220933,0.19137363640732663
0082,cdot_cos,Q,P-Q,116,23,19830,-0.044964019133755334,-0.04961328434771515,-0.08786987651031807,0.007764355407958568,806.0,2.8622115011565548,0.566049043097879,6.096536011398935,-0.012931624345562312,0.144,0.9999999999998108,5531.223980983127,0.5761908331732587,116,2026-10-07 23:01:35.914243,55.2,0.01738651241085716,0.27233613390118755,0.08873400932559358
0082,cdot_cos,R,Q-R,117,23,19861,0.04444212019145442,0.2179486020093844,0.08940613932520976,0.9928624240356949,806.0,2.9278666103772113,0.5672600538501372,6.135856900854796,-0.0673141955283582,0.031,0.9999999999998086,-44.906761629807484,0.5811579698286318,117,2026-10-07 23:01:35.945244,55.2,0.4457970073232193,2.1291946536307385,2.1179067490534367
0082,cdot_cos,S,R-S,118,23,19919,0.16076918494083986,-0.13003182985544215,0.11632706474938544,0.9983760263583448,806.0,2.9942215696816605,0.5684769797761104,6.175241915875012,-0.06953598784046959,0.058,0.9999999999998078,-1.8257416204971884,0.5861251215176476,118,2026-10-07 23:01:36.003244,55.2,0.9685533719742455,0.6812125078700639,1.144051022490504
0082,cdot_cos,T,S-T,119,23,20141,-0.007335178317044226,-0.003481924980940691,-0.16810436325788408,9.332204677027901e-05,806.0,3.0068872612901387,0.5684770934884585,6.201354237702406,-0.013449984364210627,0.222,0.9999999999997997,493227.027818349,0.5910923618606696,119,2026-10-07 23:01:36.225244,55.2,0.015452755664584143,0.14863695357678539,0.05705266490305491
0082,cdot_cos,P,T-P,120,24,20492,0.012411508169024007,9.863474299408456e-05,0.019746686486068234,0.7483849405108877,812.0,3.0602163770697532,0.5693887628544738,6.237342726338257,-0.05722483744666894,0.351,0.9999999999997956,-48.0161500586439,0.5960596733445245,120,2026-10-07 23:01:36.576244,55.2,0.46535139460213687,0.09415520428016086,0.15193480279092458
0082,cdot_cos,Q,P-Q,121,24,20630,-0.11704301461792024,-0.11466575558872358,-0.12945452278694425,0.0007874761729965402,812.0,3.0729842146948116,0.5693897218974954,6.2632883738554845,-0.013849786481099597,0.138,0.9999999999997838,45227.429834497656,0.6010268687004781,121,2026-10-07 23:01:36.714243,55.2,0.04363826330753633,0.29092627051310677,0.09252056250042316
0082,cdot_cos,R,Q-R,122,24,20663,0.042248537166298034,0.1706088012953168,0.15929155178421828,0.9998482149913336,812.0,3.1405120277313707,0.5706069839793215,6.302561603173796,-0.07415753757755038,0.033,0.999999999999782,-49.54376875518561,0.6059940062544342,122,2026-10-07 23:01:36.747243,55.2,0.44341980455136165,2.052435593533415,2.0462973647442144
0082,cdot_cos,S,R-S,123,24,20714,0.34963031451437615,-0.29701974336764664,0.30738177734807814,0.9999999572319347,812.0,3.208444963868017,0.5718235772110156,6.341831727093882,-0.07617493534251876,0.051,0.9999999999997807,-1.6582352362417585,0.6109611551196825,123,2026-10-07 23:01:36.798244,55.2,0.9738638712821018,0.7954033516056287,1.3320183556205158
0082,cdot_cos,T,S-T,124,24,20963,0.24613891147542347,0.40504191054304783,-0.10349140303895268,0.0032927781139393893,812.0,3.221643169595145,0.571827581757124,6.367603942212849,-0.014988568230822263,0.249,0.9999999999997715,15279.226522980054,0.6159284214936955,124,2026-10-07 23:01:37.047244,55.2,0.016870271981108374,0.05254211276833563,0.05300484227762177
0082,cdot_cos,P,T-P,125,25,21304,0.06852728278559723,0.0036926322530404974,-0.17761162868982622,5.5218245578787177e-05,836.0,3.234610936026648,0.5718276489112833,6.393229027970975,-0.014786796908464937,0.341,0.9999999999997605,3004.5990349223443,0.6208957413823426,125,2026-10-07 23:01:37.388243,55.2,0.9864473055538998,0.0393781697736731,0.03802864056159332
0082,cdot_cos,Q,P-Q,126,25,21442,-0.004454539443884867,-0.006024487547786458,-0.0729818222294821,0.017488017850697386,836.0,3.24849908138079,0.5718489169862594,6.41898983649833,-0.01590195555416038,0.138,0.9999999999997464,-52.43345469449085,0.6258629402127384,126,2026-10-07 23:01:37.526243,55.2,0.9322752839303935,0.10508388372312946,0.10063873445030241
0082,cdot_cos,R,Q-R,127,25,21477,-0.06194048143331274,0.3277965576001047,-0.05748594198942787,0.0401858781776907,836.0,3.263614087934232,0.571897788086667,6.444962460185725,-0.017383639424968636,0.035,0.9999999999997348,-30.318201522977198,0.6308300779688083,127,2026-10-07 23:01:37.561243,55.2,0.918297021203178,0.40166270386905134,0.4318573300983428
0082,cdot_cos,S,R-S,128,25,21516,-0.1661669491147196,0.3078653620915142,-0.10422646768140686,0.003162260096499124,836.0,3.2766154706516235,0.5719016337345854,6.470330082198375,-0.015017304440847496,0.039,0.9999999999997228,615.3280368805188,0.6357972183284365,128,2026-10-07 23:01:37.600243,55.2,0.8542136987700734,0.33046837459208356,0.33336878762542554
0082,cdot_cos,T,S-T,129,25,21763,-0.36902211750691266,-0.36567621820158375,-0.20285516839219306,1.370679308862532e-05,836.0,3.2893906211524144,0.5719016504034989,6.495555825464042,-0.014814150524745497,0.247,0.999999999999711,12187.5918963359,0.6407644819769849,129,2026-10-07 23:01:37.847244,55.2,0.9863800974968715,0.16626422695389279,0.05172125708822235
0082,cdot_cos,P,T-P,130,26,22140,0.07779636742410857,-1.8413659049554613e-05,0.4468184849310212,0.9999999999805735,789.0,3.3587499987668465,0.5731173197521087,6.534544627133339,-0.08137705374266953,0.377,0.9999999999997085,-54.754118209895815,0.6457318256423776,130,2026-10-07 23:01:38.224244,55.2,0.44133252545502416,0.10996857138097443,0.18397712895074833
0082,cdot_cos,Q,P-Q,131,26,22270,-0.002634620380833647,-0.004449689990293921,-0.08043098780494222,0.011660830455877466,789.0,3.372306923973669,0.573131490287009,6.559791647232765,-0.016104134664030146,0.13,0.9999999999996929,4606.242427509268,0.6506990205746752,131,2026-10-07 23:01:38.354244,55.2,0.0173670998824274,0.31649479882787274,0.10428404005248162
0082,cdot_cos,R,Q-R,132,26,22305,0.06719982253136537,0.2768863333411722,0.06983444291219902,0.9792626049270338,789.0,3.4410386464620935,0.5743210843215664,6.598448844294422,-0.08258459654028247,0.035,0.99999999999969,-55.88499937374992,0.6556661575193972,132,2026-10-07 23:01:38.389244,55.2,0.4470886754835601,1.5769041696392196,1.9637634996692654
0082,cdot_cos,S,R-S,133,26,22349,0.06719982253136537,0.2768863333411722,0.0,0.5,789.0,3.4826902158484145,0.5749281463382447,6.63039678729309,-0.050838397654071686,0.044,0.9999999999996828,52.29481999205731,0.6606333009614571,133,2026-10-07 23:01:38.433243,55.2,0.5355542022667399,0.6218168282877993,0.9466265769618429
0082,cdot_cos,T,S-T,134,26,22595,-0.23731413474428056,-0.27206288816431295,-0.30451395727564595,5.0103724428954115e-08,789.0,3.49575852735142,0.5749281463990655,6.655276414720348,-0.01607677129873331,0.246,0.9999999999996697,571541815.3632796,0.6656005745809666,134,2026-10-07 23:01:38.679244,55.2,0.11506859651017416,0.17032768923024372,0.05312321749189125
0082,cdot_cos,P,T-P,135,27,22929,0.05914886812232667,0.0056347831696304425,0.2964630028666072,0.999999921859538,809.0,3.5664914389496944,0.5761415909129715,6.6941624043960015,-0.0879952351555467,0.334,0.9999999999996672,-59.268028354520204,0.6705679074909165,135,2026-10-07 23:01:39.013243,55.2,0.4416226367541641,0.12670566520798657,0.21177518442597204
0082,cdot_cos,Q,P-Q,136,27,23073,-0.0200817722014528,-0.024426653450778164,-0.07923064032377947,0.012449694591307533,809.0,3.580397911710355,0.5761566921741403,6.719086074118337,-0.01750751590224082,0.144,0.9999999999996507,4667.671028599653,0.6755351166112795,136,2026-10-07 23:01:39.157243,55.2,0.017843062098445495,0.2901552910261248,0.09657272750458591
0082,cdot_cos,R,Q-R,137,27,23108,0.044269557789966336,0.25385580343492203,0.06435132999141914,0.9721369002752686,809.0,3.6500561627652184,0.5773354358669581,6.757540232450437,-0.08865570593063334,0.035,0.9999999999996474,-60.35933889776569,0.6805022534963262,137,2026-10-07 23:01:39.192243,55.2,0.44819700430167575,1.2769953702574783,1.990235744424673
0082,cdot_cos,S,R-S,138,27,23167,0.006443568742904209,-0.014127141348474613,-0.03782598904706213,0.11026917064943105,809.0,3.6697875876283783,0.5774690850441522,6.783727966442297,-0.025420963921825964,0.059,0.9999999999996343,473.1397778603177,0.6854694074657259,138,2026-10-07 23:01:39.251244,55.2,0.08311719262725557,0.2797049103570508,0.33443092988406664
0082,cdot_cos,T,S-T,139,27,23398,-0.18642059507812936,-0.26033115279264396,-0.19286416382103358,2.3792845397049625e-05,809.0,3.6830613421873504,0.5774691138804925,6.8082626721918205,-0.01717833985961902,0.231,0.99999999999962,285841.5448007437,0.6904366797077313,139,2026-10-07 23:01:39.482244,55.2,0.6188907106249817,0.18456860219795904,0.057462140947931
0082,cdot_cos,P,T-P,140,28,23738,0.06306098172388737,0.0014801374470843843,0.2494815768020167,0.9999989548854742,817.0,3.7550582818438354,0.5786806191995293,6.847043734622926,-0.09418290208842203,0.34,0.9999999999996169,-63.56105996300959,0.6954040297763695,140,2026-10-07 23:01:39.822243,55.2,0.4414870467011253,0.1275549569975129,0.21175570487201473
0082,cdot_cos,Q,P-Q,141,28,23875,-0.004906077365396402,-0.008424418118289995,-0.06796705908928377,0.022937406629803352,817.0,3.769798712945659,0.5787083969664509,6.871783911799305,-0.019507228046414356,0.137,0.9999999999995994,2688.3253161657785,0.7003712384545733,141,2026-10-07 23:01:39.959244,55.2,0.02175084250071263,0.31275703242161534,0.10759438760455306
0082,cdot_cos,R,Q-R,142,28,23912,0.06024449632300562,0.25879844412200975,0.06515057368840202,0.973307350082564,817.0,3.840753708727358,0.579886635041036,6.910149250313109,-0.09489716812754959,0.037,0.9999999999995958,-63.9853198664331,0.7053383764438867,142,2026-10-07 23:01:39.996243,55.2,0.45183498240325654,1.1692881857585418,1.9177025886945633
0082,cdot_cos,S,R-S,143,28,23951,9.768343223590406e-05,-0.0012943705754069695,-0.060146812890769716,0.034887904195494625,817.0,3.8563260386917912,0.5799288518107687,6.934942911530338,-0.02106307085007393,0.039,0.9999999999995804,1748.9281568664292,0.7103055165298847,143,2026-10-07 23:01:40.035244,55.2,0.030035314987294427,0.3722141625704119,0.3992905119085449
0082,cdot_cos,T,S-T,144,28,24199,-0.2271600197547195,-0.23939349738781995,-0.2272577031869554,3.5639938287097926e-06,817.0,3.86978641340785,0.5799288561233874,6.959148770218667,-0.018275122075858914,0.248,0.9999999999995648,646463.0805300163,0.7152728095583295,144,2026-10-07 23:01:40.283243,55.2,0.8585122605111124,0.17477124618882212,0.0542757045002374
0082,cdot_cos,P,T-P,145,29,24555,0.05991156545757305,0.0018721741665847474,0.28707158521229253,0.9999998687748958,819.0,3.943012576801447,0.5811384254496823,6.997835903321114,-0.10045406988092861,0.356,0.9999999999995624,-67.94066782165895,0.7202401846781569,145,2026-10-07 23:01:40.639244,55.2,0.4412803697081687,0.12302164482567757,0.20569147020673284
0082,cdot_cos,Q,P-Q,146,29,24693,-0.0182629226228297,-0.020547522656002383,-0.07817448808040275,0.013187225396653545,819.0,3.9573778245237325,0.5811543698345497,7.022117698944512,-0.019927449098267085,0.138,0.9999999999995427,5050.468955204294,0.72520739818087,146,2026-10-07 23:01:40.777244,55.2,0.01758006108165295,0.31622041072824436,0.10409599798757634
0082,cdot_cos,R,Q-R,147,29,24728,0.05884848795399769,0.24277046677827904,0.07711141057682738,0.9860269038632417,819.0,4.0302894101624425,0.5823460709404122,7.0605736552101535,-0.10217831025391928,0.035,0.9999999999995391,-69.01970699785547,0.7301745342560778,147,2026-10-07 23:01:40.812243,55.2,0.4470996470982531,1.2695948537138195,2.0831881611059977
0082,cdot_cos,S,R-S,148,29,24767,0.00013164302137683856,-0.0020549491822161128,-0.05871684493262085,0.03764548624891822,819.0,4.0462494642837,0.5823915498955424,7.085101778896733,-0.022614579877403403,0.039,0.9999999999995226,1749.4625843703388,0.7351416740834109,148,2026-10-07 23:01:40.851244,55.2,0.02965129956079184,0.37960041687335194,0.4092321569553192
0082,cdot_cos,T,S-T,149,29,25018,-0.1864855211210545,-0.15024743029661486,-0.18661716414243132,3.358936528090725e-05,819.0,4.059898242678564,0.5823915904737321,7.108998130560821,-0.019410519982061485,0.251,0.9999999999995056,78960.1487706925,0.740108978695649,149,2026-10-07 23:01:41.102243,55.2,0.8478358665687258,0.17546779575398902,0.05437760316678886
0082,cdot_cos,P,T-P,150,30,25374,0.04508594111385621,0.0021046662946506314,0.2315714622349107,0.9999971911840237,801.0,4.134334297752202,0.5835991569688825,7.1476036345644784,-0.10692084307067945,0.356,0.9999999999995031,-72.46832653941571,0.7450763680663907,150,2026-10-07 23:01:41.458244,55.2,0.4411108961404693,0.12505261430060355,0.20909004234168116
0082,cdot_cos,Q,P-Q,151,30,25514,-0.0322478713108127,-0.03646480011738302,-0.07733381242466891,0.01380495660529265,801.0,4.148935704060594,0.5836158204351498,7.171594304912578,-0.021201291598236253,0.14,0.9999999999994816,5144.160890509705,0.750043587436563,151,2026-10-07 23:01:41.598243,55.2,0.01754250046940553,0.3170043141215764,0.1042957593456517
0082,cdot_cos,R,Q-R,152,30,25548,0.04621612945342931,0.23385189160763653,0.07846400076424201,0.9870191320012773,801.0,4.223095505706244,0.5848067182929185,7.209984534548962,-0.10874431205526626,0.034,0.9999999999994786,-73.51009986788632,0.7550107222180019,152,2026-10-07 23:01:41.632244,55.2,0.4470721011442474,1.8422101251691374,2.1811706366367694
0082,cdot_cos,S,R-S,153,30,25607,0.054026424361820514,-0.07044048212755218,0.007810294908391205,0.6061430588166283,801.0,4.274205992572095,0.585537576514468,7.242702918860953,-0.07602833268120412,0.059,0.9999999999994706,44.763783740026305,0.759977878622529,153,2026-10-07 23:01:41.691243,55.2,0.6503055219168212,0.5514177391085874,0.8662794384042574
0082,cdot_cos,T,S-T,154,30,25836,-0.10148216822052131,-0.051246195483005026,-0.15550859258234181,0.0001870262915761735,801.0,4.288162798921057,0.5855378019638743,7.266336139683781,-0.020920130502336057,0.229,0.9999999999994524,244437.1138267111,0.7649451776989735,154,2026-10-07 23:01:41.920243,55.2,0.07177501434499392,0.1958124833064935,0.06094675261555513
0082,cdot_cos,P,T-P,155,31,26175,0.04865618041031951,0.004106147160173801,0.1501383486308408,0.9997484549404181,804.0,4.363888109926469,0.5867424267958219,7.3048875118416206,-0.11459691422778444,0.339,0.9999999999994497,-77.76428082923871,0.7699125720376829,155,2026-10-07 23:01:42.259244,55.2,0.4415579755178847,0.1334754751486134,0.22337849854103806
0082,cdot_cos,Q,P-Q,156,31,26316,-0.031963100357813426,-0.03645086884375273,-0.08061928076813293,0.011541649737374579,804.0,4.378659171071817,0.5867563276209189,7.328587546160109,-0.022586982686500476,0.141,0.999999999999428,6619.026633255658,0.7748797986796113,156,2026-10-07 23:01:42.400243,55.2,0.017016322634043103,0.3201698145948291,0.10475929890317721
0082,cdot_cos,R,Q-R,157,31,26349,0.048280048544793425,0.2287302263099671,0.08024314890260685,0.9882190646208775,804.0,4.454175997642211,0.5879460290365239,7.366946047703548,-0.11656814780329676,0.033,0.9999999999994245,-78.99558988840991,0.7798469325534623,157,2026-10-07 23:01:42.433243,55.2,0.4465367095617809,2.0157618803977795,2.288388683951328
0082,cdot_cos,S,R-S,158,31,26408,0.0631561500610996,-0.08547138217712813,0.014876101516306181,0.6944826909420555,804.0,4.5116994551780705,0.5887814923035851,7.40087202161057,-0.0900759734569807,0.059,0.9999999999994176,31.709562096613197,0.7848140905623724,158,2026-10-07 23:01:42.492243,55.2,0.7451950963585611,0.6083172764690957,0.9749738565399939
0082,cdot_cos,T,S-T,159,31,26641,-0.11745465303337241,-0.05946733068381372,-0.18061080309447203,4.679364637120623e-05,804.0,4.525957436265564,0.5887815485791957,7.424256281106207,-0.022505321008146974,0.233,0.9999999999993981,1200709.3607562378,0.7897814058139636,159,2026-10-07 23:01:42.725244,55.2,0.049666229368752327,0.19591374144272086,0.06119305187765516
0082,cdot_cos,P,T-P,160,32,26979,0.06410082174617246,0.0063624637780100345,0.18155547477954487,0.9999555838148703,814.0,4.602995258690378,0.5899835961850266,7.462771338889006,-0.12271865678974919,0.338,0.9999999999993956,-83.36885768541055,0.7947488189514988,160,2026-10-07 23:01:43.063244,55.2,0.44192705890037176,0.13699169732362307,0.22792255155270494
0082,cdot_cos,Q,P-Q,161,32,27119,-0.007220916346082646,-0.010898787779790064,-0.0713217380922551,0.01913416994353407,814.0,4.618563823656333,0.5900065869602792,7.486348053494865,-0.025051354457268214,0.14,0.9999999999993722,4248.10826340013,0.7997160516056293,161,2026-10-07 23:01:43.203244,55.2,0.020268577424940166,0.3260297631858723,0.11120403547110666
0082,cdot_cos,R,Q-R,162,32,27154,0.05649098273370016,0.2570399928554196,0.06371189907978281,0.971164730450867,814.0,4.694283592382423,0.5911729770246555,7.524407363714286,-0.12293920451545455,0.035,0.9999999999993685,-83.92376876986259,0.8046831872679759,162,2026-10-07 23:01:43.238244,55.2,0.4510262516235152,1.3274317482571287,2.163421963602552
0082,cdot_cos,S,R-S,163,32,27192,0.00033524538167216546,-0.00260430960489467,-0.056155737352027994,0.043115641570154066,814.0,4.711484046034332,0.5912247361673505,7.548255927012458,-0.02820433590982861,0.038,0.9999999999993481,1830.3021200323356,0.809650326478386,163,2026-10-07 23:01:43.276243,55.2,0.0347743213258265,0.41620686884631736,0.45264351715551837
0082,cdot_cos,T,S-T,164,32,27452,-0.20059187521883287,-0.1857456988160425,-0.20092712060050505,1.5246016482727966e-05,814.0,4.725915314414743,0.5912247544694166,7.571374914762457,-0.02374316320369351,0.26,0.9999999999993272,243752.4094517024,0.814617676870154,164,2026-10-07 23:01:43.536243,55.2,0.8287034246276497,0.17811960454804632,0.05550487838619393
0082,cdot_cos,P,T-P,165,33,27793,0.05313978003726211,0.0005821309360630131,0.253731655256095,0.9999991734357594,801.0,4.804106240399316,0.5924246563536371,7.609836431798169,-0.12978835499463365,0.341,0.9999999999993247,-88.37821924067809,0.8195851075550042,165,2026-10-07 23:01:43.877243,55.2,0.4417273450358749,0.13701397586352318,0.22929890318056792
0082,cdot_cos,Q,P-Q,166,33,27925,-0.028049724329396838,-0.027646821133039706,-0.08118950436665895,0.011188019981398175,801.0,4.819358845953666,0.5924380746866509,7.633034759588696,-0.025565637081330913,0.132,0.9999999999992989,7767.188204817512,0.8245523371094539,166,2026-10-07 23:01:44.009243,55.2,0.016963826727912048,0.3541961892834578,0.11555004207840266
0082,cdot_cos,R,Q-R,167,33,27960,0.06255671710851825,0.24276338202636774,0.09060644143791509,0.9933169515941223,801.0,4.897614034370149,0.5936288560755999,7.6713796408670865,-0.1323202923181151,0.035,0.9999999999992961,-89.6509268850818,0.8295194722490333,167,2026-10-07 23:01:44.044243,55.2,0.4462884676605946,1.3710215635452525,2.2358625261852487
0082,cdot_cos,S,R-S,168,33,28006,0.008341506993123096,-0.02318505981189529,-0.05421521011539515,0.04775768228099987,801.0,4.915330355401833,0.5936860800468599,7.695055264844687,-0.030250737767434276,0.046,0.9999999999992741,1783.6852686612795,0.8344866191281681,168,2026-10-07 23:01:44.090244,55.2,0.03424831683261712,0.35138936543283283,0.3851374137322602
0082,cdot_cos,T,S-T,169,33,28257,-0.16614353753547265,-0.06726813076864288,-0.17448504452859576,6.561934058525623e-05,801.0,4.92994185598997,0.5936861586711886,7.717924260024161,-0.025031428368188446,0.251,0.9999999999992512,66382.88026866439,0.8394539715653528,169,2026-10-07 23:01:44.341243,55.2,0.8117927133844576,0.18713031667113192,0.05821314975353247
0082,cdot_cos,P,T-P,170,34,28594,0.05599315944674588,0.002270261647992129,0.22213669698221852,0.9999952717263535,794.0,5.0092697743707415,0.5948837815322903,7.756339887081007,-0.13706740969975892,0.337,0.9999999999992489,-93.54863285467681,0.8444214135680623,170,2026-10-07 23:01:44.678244,55.2,0.44158767189888737,0.14027656250635076,0.23539441656015303
0082,cdot_cos,Q,P-Q,171,34,28737,-0.0318080945912001,-0.03835036943075648,-0.08780125403794597,0.007793592601155461,794.0,5.02448825911925,0.59489311094699,7.779241372456134,-0.02654533098500167,0.143,0.9999999999992212,11846.625139024041,0.849388658983657,171,2026-10-07 23:01:44.821243,55.2,0.01555267942169634,0.3279856771009751,0.10642297026929261
0082,cdot_cos,R,Q-R,172,34,28771,0.039784048684209136,0.23135417452020135,0.07159214327540923,0.9811439673772512,794.0,5.10307367802162,0.5960670517138604,7.817350678016834,-0.13822790342595698,0.034,0.9999999999992178,-95.13475942972019,0.8543557925294231,172,2026-10-07 23:01:44.855244,55.2,0.4457666461882902,2.2660563586600753,2.3113358500697068
0082,cdot_cos,S,R-S,173,34,28809,0.08636574542539004,-0.08637636354655437,0.0465816967411809,0.9289921371756757,794.0,5.1785800915081355,0.5971775802442295,7.854649312001525,-0.13471265344946298,0.038,0.9999999999992152,3.1653846617751547,0.8593229314732653,173,2026-10-07 23:01:44.893243,55.2,0.9742430869771276,1.1903051588196532,1.9870108812240816
0082,cdot_cos,T,S-T,174,34,29062,-0.07051862109689849,-0.0387177422029366,-0.15688436652228854,0.0001733512979591499,794.0,5.193536870091914,0.5971777873779112,7.8773206301345375,-0.02691950496236444,0.253,0.9999999999991916,520403.76836752787,0.8642903026347974,174,2026-10-07 23:01:45.146244,55.2,0.018237474306674297,0.18863168961915266,0.0591177019121681
0082,cdot_cos,P,T-P,175,35,29388,0.04346709590446455,0.004049522475398616,0.11398571700136303,0.9981523872897972,801.0,5.274027726455427,0.5983698809790302,7.915694230036925,-0.14606045054901137,0.326,0.9999999999991886,-99.94260977058035,0.8692577557678413,175,2026-10-07 23:01:45.472243,55.2,0.44233129605134147,0.14779382530445226,0.24690446737273838
0082,cdot_cos,Q,P-Q,176,35,29531,-0.03571080744807033,-0.03953593809888539,-0.07917790335253488,0.012485536300457045,801.0,5.289898444190417,0.5983847851246716,7.938476195115552,-0.029064118873339255,0.143,0.9999999999991602,7849.918706543259,0.8742250096782753,176,2026-10-07 23:01:45.615244,55.2,0.01785528030587472,0.3362776303215489,0.11098404010482629
0082,cdot_cos,R,Q-R,177,35,29564,0.044358343032667454,0.2326747390879235,0.08006915048073779,0.9881067192144674,801.0,5.37020312872739,0.5995637220067249,7.976681537734545,-0.14825707199494487,0.033,0.9999999999991569,-101.10206486543575,0.8791921423061991,177,2026-10-07 23:01:45.648243,55.2,0.4475525436044044,1.9547291958156332,2.433475288999176
0082,cdot_cos,S,R-S,178,35,29605,0.044821780938651405,-0.060045339449603836,0.0004634379059839516,0.5063950943461394,801.0,5.418910571114249,0.6001674701512946,8.007237795922398,-0.09096537656270805,0.041,0.9999999999991437,94.89336894455265,0.8841592849863766,178,2026-10-07 23:01:45.689243,55.2,0.532688367362767,0.7793904509456877,1.1879863996794873
0082,cdot_cos,T,S-T,179,35,29854,-0.14179447518598498,-0.07610862927644939,-0.1866162561246364,3.359104885227099e-05,801.0,5.434113145704936,0.6001675101900592,8.02969907134514,-0.02856031552049477,0.249,0.9999999999991184,1558616.0464200496,0.8891266659912411,179,2026-10-07 23:01:45.938244,55.2,0.11247469482184044,0.19478121005027768,0.061054516428463504
0082,cdot_cos,P,T-P,180,36,30189,0.054800604690916764,0.004273454093933002,0.19659507987690175,0.9999806354749967,816.0,5.515911613719287,0.6013588393479068,8.068080660090105,-0.15488898577162205,0.335,0.9999999999991153,-106.04010606050252,0.8940941489381631,180,2026-10-07 23:01:46.273243,55.2,0.4423703577226752,0.14653781947852762,0.24417453138612197
0082,cdot_cos,Q,P-Q,181,36,30329,-0.01963065743497823,-0.021891498430188543,-0.07443126212589499,0.016165065516001616,816.0,5.53229348475555,0.6013780878219913,8.090720124389362,-0.03129741956964307,0.14,0.9999999999990853,6420.850071506005,0.8990614064295471,181,2026-10-07 23:01:46.413243,55.2,0.01927516312518159,0.34865149088283737,0.11701336454473321
0082,cdot_cos,R,Q-R,182,36,30363,0.05569804389978122,0.24890360895589705,0.07532870133475944,0.9846041897772573,816.0,5.613534031166481,0.6025499076550086,8.128848173735307,-0.15642465295345998,0.034,0.9999999999990813,-106.78026592332922,0.904028539947729,182,2026-10-07 23:01:46.447244,55.2,0.44936484007342836,1.4656044243156539,2.3894278356156415
0082,cdot_cos,S,R-S,183,36,30405,0.00032888884153013946,-0.0035688410402760235,-0.05536915505825108,0.04494294184540836,816.0,5.631954585609014,0.6026033682408811,8.151872777868041,-0.03578337364206593,0.042,0.9999999999990553,2256.6396784177637,0.9089956838216965,183,2026-10-07 23:01:46.489243,55.2,0.034340361035608336,0.40226003172087804,0.4385846295841108
0082,cdot_cos,T,S-T,184,36,30648,-0.18525825763381373,-0.14950500435713876,-0.18558714647534388,3.55544213163797e-05,816.0,5.647323873831035,0.6026034105326528,8.174115884129646,-0.029945759870086235,0.243,0.999999999999028,138031.9042113588,0.9139630689583358,184,2026-10-07 23:01:46.732243,55.2,0.822884377422918,0.2021716518750402,0.0632480996790992
0082,cdot_cos,P,T-P,185,37,31005,0.056289207152056556,0.00010888775218648437,0.2415474647858703,0.9999983805462803,788.0,5.730210008420284,0.6037922942529743,8.212468767130645,-0.1627364818544394,0.357,0.9999999999990251,-111.69361621709953,0.9189305948363078,185,2026-10-07 23:01:47.089243,55.2,0.44220301556698477,0.1383223582875499,0.232174046468483
0082,cdot_cos,Q,P-Q,186,37,31140,-0.03617463254036166,-0.0383284261861998,-0.09246383969241823,0.006035733005771249,788.0,5.746086037648346,0.6037994663422585,8.234732761296298,-0.03144097119920809,0.135,0.9999999999989927,18306.452339579253,0.9238978513611449,186,2026-10-07 23:01:47.224244,55.2,0.015360793944446394,0.36530745982213664,0.1176002165041644
0082,cdot_cos,R,Q-R,187,37,31175,0.049531780675045926,0.23295828297227067,0.08570641321540759,0.991259370462015,788.0,5.8288430225722605,0.6049767438368859,8.27293855655534,-0.165131052513948,0.035,0.9999999999989885,-113.55868257469965,0.9288649853844279,187,2026-10-07 23:01:47.259244,55.2,0.4450360957112075,2.270032974682363,2.3644852835404198
0082,cdot_cos,S,R-S,188,37,31220,0.08731704678852466,-0.08675364496681856,0.03778526611347873,0.8895100942794386,788.0,5.904988345876111,0.6060321428062161,8.30950010963706,-0.15388062276212494,0.045,0.9999999999989837,10.659883208871715,0.9338321333107941,188,2026-10-07 23:01:47.304243,55.2,0.9294972662480887,1.0205371761258637,1.692118295641127
0082,cdot_cos,T,S-T,189,37,31460,-0.06091955527205175,-0.031177191911737352,-0.1482366020605764,0.00027937939751484175,788.0,5.920691368423588,0.6060324741335733,8.331575092977406,-0.031982339657689395,0.24,0.9999999999989552,367908.8987047035,0.9387995314776799,189,2026-10-07 23:01:47.544243,55.2,0.02211664430707005,0.20746280879181217,0.06542926061448759
0082,cdot_cos,P,T-P,190,38,31793,0.04209693456657324,0.003068828898023914,0.10301648983862499,0.9966200552263673,801.0,6.004570494096181,0.6072137836196716,8.369870602033672,-0.17209334648750718,0.333,0.9999999999989511,-118.60651969585531,0.9437670524463608,190,2026-10-07 23:01:47.877243,55.2,0.44301261899819777,0.15049164588171166,0.2518892662840625
0082,cdot_cos,Q,P-Q,191,38,31940,-0.04465815713109568,-0.053400103508392624,-0.08675509169766893,0.008253083503563786,801.0,6.020918804580808,0.6072235609148229,8.392003033820515,-0.03382316257478116,0.147,0.9999999999989176,14141.966850066057,0.9487343330089757,191,2026-10-07 23:01:48.024243,55.2,0.016772202377745096,0.34084739886496274,0.11121299649406224
0082,cdot_cos,R,Q-R,192,38,31971,0.03808850603541301,0.21880181075269628,0.0827466631665087,0.9897240078277261,801.0,6.10477962936248,0.6083954457725066,8.430181141414712,-0.17476077905443854,0.031,0.9999999999989128,-120.26575440033187,0.9537014618912835,192,2026-10-07 23:01:48.055244,55.2,0.44643555584662237,2.700434376656662,2.7051878961829643
0082,cdot_cos,S,R-S,193,38,32022,0.10946007113315599,-0.11028008611307573,0.07137156509774298,0.9809173824467886,801.0,6.188345735933521,0.6095556714866477,8.468224582159435,-0.17636376616935084,0.051,0.99999999999891,-1.381616607333152,0.9586686190140132,193,2026-10-07 23:01:48.106244,55.2,0.9909520854599431,0.9763352713963632,1.6385511092361007
0082,cdot_cos,T,S-T,194,38,32268,-0.053086863786896574,-0.03127243854878058,-0.16254693492005257,0.00012682306413486192,801.0,6.204365827044909,0.609555821412747,8.490136742835832,-0.03408382304517336,0.246,0.99999999999888,949000.4994191095,0.9636360430941011,194,2026-10-07 23:01:48.352243,55.2,0.01538422445518185,0.2057705294176564,0.06512232159100778
0082,cdot_cos,P,T-P,195,39,32594,0.06298991952320673,0.003162376478383572,0.11607678331010331,0.9983534717915838,799.0,6.289584836407008,0.6107353990543086,8.528462496321824,-0.18259070103112054,0.326,0.9999999999988756,-125.8983493357345,0.9686035801206354,195,2026-10-07 23:01:48.678244,55.2,0.44337822231211216,0.156661952722166,0.26140800417821786
0082,cdot_cos,Q,P-Q,196,39,32734,-0.017303847513243733,-0.02022109989587821,-0.08029376703645047,0.011748450153228854,799.0,6.306509420219761,0.6107492724352409,8.550496868627617,-0.03655870675506412,0.14,0.9999999999988402,10526.056697271291,0.9735708607485564,196,2026-10-07 23:01:48.818244,55.2,0.01841753899437845,0.36139421663075677,0.12088988437680849
0082,cdot_cos,R,Q-R,197,39,32768,0.051612096722904205,0.25812224350891577,0.06891594423614794,0.9782075891184069,799.0,6.39077521706362,0.6119037764844731,8.588485928943543,-0.1832859233715881,0.034,0.9999999999988345,-127.09112342576948,0.978537993734189,197,2026-10-07 23:01:48.852243,55.2,0.44908760845025764,1.5351281246422148,2.478405789525256
0082,cdot_cos,S,R-S,198,39,32822,0.0004835645109364526,-0.0021590611584784637,-0.05112853221196775,0.056131220538826035,799.0,6.410898132695432,0.6119699859402433,8.611188167689026,-0.04412630805598352,0.054,0.9999999999988034,2101.8087778675563,0.9835051560145712,198,2026-10-07 23:01:48.906244,55.2,0.042695339964359466,0.3360446843112788,0.37264658577429444
0082,cdot_cos,T,S-T,199,39,33062,-0.19982304789262587,-0.2565439071802182,-0.20030661240356232,1.5777261784033343e-05,799.0,6.427068042969238,0.6119700045496961,8.632906481283426,-0.035558531325246355,0.24,0.9999999999987709,460399.1768494224,0.9884725834520486,199,2026-10-07 23:01:49.146244,55.2,0.7858820552718135,0.21363502789726319,0.0673746261408592
0082,cdot_cos,P,T-P,200,40,33393,0.05887822032257705,0.0037652955333532865,0.2587012682152029,0.9999993717393029,810.0,6.513442946086118,0.6131488566709397,8.671241683699543,-0.19124635804994794,0.331,0.9999999999987659,-132.067308459746,0.9934401445111665,200,2026-10-07 23:01:49.477243,55.2,0.4430513957506292,0.15656436036966295,0.26095136893317256
0082,cdot_cos,Q,P-Q,201,40,33534,-0.017822148283755192,-0.020362142490778844,-0.07670036860633224,0.014289181000064998,810.0,6.530713649533955,0.6131656919450398,8.693131708335356,-0.03854547417119504,0.141,0.9999999999987277,9070.293894271992,0.9984074321978159,201,2026-10-07 23:01:49.618243,55.2,0.019033065602229934,0.36339498064599307,0.12248725849529622
0082,cdot_cos,R,Q-R,202,40,33569,0.05018888011624625,0.2548219737840116,0.06801102840000144,0.9771169249898921,810.0,6.615920330628288,0.6143162713086564,8.731082475115757,-0.19145023949465736,0.035,0.9999999999987217,-132.89371438301833,1.0033745658432935,202,2026-10-07 23:01:49.653243,55.2,0.4499288433236765,1.5160176982105888,2.434476602695236
0082,cdot_cos,S,R-S,203,40,33627,0.0017140035245771946,-0.0055823910277776135,-0.048474876591669054,0.06441574060836518,810.0,6.636834888408696,0.6143920777284567,8.753747453476969,-0.047368639452965086,0.058,0.9999999999986888,1900.6516917857316,1.008341734490756,203,2026-10-07 23:01:49.711244,55.2,0.047753226520858366,0.3210501948278348,0.3605958238001372
0082,cdot_cos,T,S-T,204,40,33851,-0.21763626388016116,-0.20504465892759358,-0.21935026740473837,5.514440973121553e-06,810.0,6.653162153228317,0.6143920842177827,8.775282029801406,-0.03708296203935676,0.224,0.9999999999986534,1585014.7562829442,1.0133091499753335,204,2026-10-07 23:01:49.935244,55.2,0.7577745545024568,0.2315479113293003,0.07288957508759321
0082,cdot_cos,P,T-P,205,41,34203,0.053454292929325756,0.0035370232575866554,0.2710905568094869,0.9999996829476875,801.0,6.740568352684223,0.6155682007643464,8.813603373705048,-0.19984055349603785,0.352,0.9999999999986485,-138.3855978663145,1.0182767601696585,205,2026-10-07 23:01:50.287244,55.2,0.4428884913514058,0.14849308802650862,0.24831306663609565
0082,cdot_cos,Q,P-Q,206,41,34340,-0.029833170103731103,-0.03135510038395195,-0.08328746303305685,0.00997678044450262,801.0,6.757701287198979,0.615579927845844,8.835242429251448,-0.03947706834767041,0.137,0.9999999999986072,13674.628694307386,1.0232440475236653,206,2026-10-07 23:01:50.424243,55.2,0.01721122716538975,0.38033371594148563,0.12505791616610504
0082,cdot_cos,R,Q-R,207,41,34374,0.05207133739990357,0.23489885465783705,0.08190450750363468,0.9892402916199823,801.0,6.84477979085219,0.6167420489494754,8.873381324213835,-0.20196130086366992,0.034,0.9999999999986016,-139.81695367916166,1.0282111788627226,207,2026-10-07 23:01:50.458244,55.2,0.4472974270464597,2.0540478635500645,2.5611324603885492
0082,cdot_cos,S,R-S,208,41,34433,0.05233924996454542,-0.06527055561261158,0.00026791256464184926,0.5036971260097711,801.0,6.897376541920384,0.6173332615520574,8.903315365994228,-0.12316819153284303,0.059,0.9999999999985815,133.27373095011032,1.0331783501726857,208,2026-10-07 23:01:50.517244,55.2,0.5274402842487149,0.5862188086708299,0.8914703570880292
0082,cdot_cos,T,S-T,209,41,34670,-0.09929073697639629,-0.0448417553257523,-0.1516299869409417,0.00023166759970345602,801.0,6.913953610275348,0.6173335333913096,8.924695853273912,-0.0390146803379568,0.237,0.999999999998544,309570.86038098694,1.038145800058258,209,2026-10-07 23:01:50.754244,55.2,0.11567503821168783,0.22163050549684538,0.06994543609689535
0082,cdot_cos,P,T-P,210,42,35004,0.04387835614136919,0.002949126751470511,0.1431690931177655,0.9996304792008558,820.0,7.002429401525888,0.6185058163779453,8.963009506728971,-0.20956891616135886,0.334,0.9999999999985388,-145.4889627911981,1.043113405688456,210,2026-10-07 23:01:51.088243,55.2,0.4431559012368921,0.1588440674643727,0.26489757859443264
0082,cdot_cos,Q,P-Q,211,42,35141,-0.033789011198250556,-0.036556950738755735,-0.07766736733961974,0.013556516533858767,820.0,7.020061447341549,0.6185217048774941,8.984555753224612,-0.042082077948955215,0.137,0.9999999999984959,10541.387983042168,1.0480807005753119,211,2026-10-07 23:01:51.225244,55.2,0.018685564751955274,0.3871833214045929,0.1287010643478866
0082,cdot_cos,R,Q-R,212,42,35176,0.056850522398601486,0.22420059377853652,0.09063953359685203,0.9933290669264184,820.0,7.108517631590747,0.6196852136980774,9.022762035794809,-0.21246399855703957,0.035,0.9999999999984895,-146.43801369952203,1.0530478331586641,212,2026-10-07 23:01:51.260243,55.2,0.4484611892429551,1.9916242588490005,2.527319549977085
0082,cdot_cos,S,R-S,213,42,35218,0.05481457676049562,-0.07633871924431833,-0.002035945638105864,0.4719334844722609,820.0,7.159475145460979,0.6202375195481478,9.052077726077043,-0.12353373099849314,0.042,0.9999999999984668,161.01634184612456,1.0580149782942316,213,2026-10-07 23:01:51.302243,55.2,0.4868074963414735,0.8066839975286587,1.21327413976743
0082,cdot_cos,T,S-T,214,42,35470,-0.09628635326222187,-0.03637132508593255,-0.1511009300227175,0.00023853132917550643,820.0,7.176279087383154,0.6202377986238271,9.073305937769652,-0.0409304224971735,0.252,0.9999999999984279,295988.91847403935,1.062982468110628,214,2026-10-07 23:01:51.554244,55.2,0.13290248047300104,0.2110603700923678,0.06668230921498122
0082,cdot_cos,P,T-P,215,43,35824,0.06386043252836908,0.000702542556309517,0.16014678579059094,0.9998552130741309,805.0,7.265849571987532,0.6214069034713589,9.111623202802749,-0.21952763923187596,0.354,0.9999999999984223,-152.76407168421497,1.0679501296301603,215,2026-10-07 23:01:51.908243,55.2,0.44328059852318863,0.15146632981449334,0.25302396780897773
0082,cdot_cos,Q,P-Q,216,43,35956,-0.01797339889859148,-0.019097611848856704,-0.08183383142696056,0.010801313135996483,805.0,7.283517248891815,0.6214195254960858,9.132974285732054,-0.04362256297271798,0.132,0.9999999999983766,13936.359662125227,1.0729174235666374,216,2026-10-07 23:01:52.040244,55.2,0.017731131971224064,0.4048153765721702,0.13384603715366036
0082,cdot_cos,R,Q-R,217,43,35993,0.06345726917853849,0.2535510399706664,0.08143066807712997,0.9889582970017252,805.0,7.372720831402585,0.6225744877456164,9.171104761140844,-0.22160098035492898,0.037,0.9999999999983691,-154.09890449193904,1.0778845590669945,217,2026-10-07 23:01:52.077244,55.2,0.4479166334763977,1.4797551481756925,2.41090763542621
0082,cdot_cos,S,R-S,218,43,36038,0.008282486133937155,-0.018383297815389273,-0.05517478304460133,0.04540573300983665,805.0,7.393019129856817,0.6226274818785817,9.19299449329389,-0.05079931998868519,0.045,0.9999999999983284,3223.029622505077,1.0828517091012253,218,2026-10-07 23:01:52.122243,55.2,0.03465606902443631,0.4137505980398773,0.45107329898292176
0082,cdot_cos,T,S-T,219,43,36286,-0.18066826127807528,-0.17821636348000056,-0.18895074741201243,2.9529795500551467e-05,805.0,7.409958385226174,0.6226275163425691,9.21405573315836,-0.042499760054529975,0.248,0.999999999998287,240818.33174233543,1.0878192051746047,219,2026-10-07 23:01:52.370244,55.2,0.8226002940751582,0.21676044501336889,0.06830344906998982
0082,cdot_cos,P,T-P,220,44,36629,0.06133261307257256,0.0030308498874265194,0.24200087435064785,0.9999984205752249,826.0,7.500532310583448,0.6237938936054593,9.252368819182072,-0.22861586919255034,0.343,0.9999999999982814,-159.5676759651745,1.0927868675499013,220,2026-10-07 23:01:52.713243,55.2,0.44303801767772477,0.1579737685241173,0.2640639223244125
0082,cdot_cos,Q,P-Q,221,44,36773,-0.021209832804061773,-0.023721029265347113,-0.08254244587663434,0.010391276168308183,826.0,7.518328390433719,0.6238060062676779,9.273553492198872,-0.04524465423725018,0.144,0.9999999999982319,15138.803645843285,1.0977541877710437,221,2026-10-07 23:01:52.857243,55.2,0.017372247082505073,0.37419548338340125,0.12358388784910407
0082,cdot_cos,R,Q-R,222,44,36805,0.05601787171814133,0.24089655085145892,0.0772277045222031,0.9861150743446908,826.0,7.608300609797867,0.6249547717763654,9.311627024317554,-0.23010555129988702,0.032,0.9999999999982244,-160.92135049723925,1.10272131370804,222,2026-10-07 23:01:52.889244,55.2,0.4478153273894289,1.8332633782629226,2.8116318551296424
0082,cdot_cos,S,R-S,223,44,36863,0.022837535794215862,-0.037539037315986755,-0.03318033592392547,0.1380531869946532,826.0,7.635657246642546,0.6251154836543898,9.334975519611211,-0.0704956993959985,0.058,0.9999999999981858,993.1428458548022,1.1076884865928989,223,2026-10-07 23:01:52.947244,55.2,0.10392272919969796,0.3832926177003225,0.4716661524944566
0082,cdot_cos,T,S-T,224,44,37105,-0.15493610258181684,-0.06653170166487343,-0.1777736383760327,5.47266608216882e-05,826.0,7.652762553451105,0.6251155473578804,9.355883518223335,-0.04420747814368218,0.242,0.9999999999981413,412665.31876535737,1.1126559857429181,224,2026-10-07 23:01:53.189243,55.2,0.5517525965157013,0.22453687449336174,0.0706830859857807
0082,cdot_cos,P,T-P,225,45,37455,0.05736283118968845,0.0028538187933531225,0.21229893377150527,0.9999918615375393,850.0,7.744333093897333,0.626278842794091,9.394193580171807,-0.2380423753648799,0.35,0.9999999999981349,-166.62568354314385,1.1176236809830613,225,2026-10-07 23:01:53.539244,55.2,0.44295488261693206,0.15651269287023872,0.26163011556065185
0082,cdot_cos,Q,P-Q,226,45,37596,-0.02470600262613676,-0.02434356187209758,-0.0820688338158252,0.010663586453063378,850.0,7.762321438460272,0.6262912399581735,9.415233147181718,-0.04709376933384671,0.141,0.9999999999980835,15402.603753565669,1.1225910023990857,226,2026-10-07 23:01:53.680243,55.2,0.017341602351548246,0.38763628794159505,0.12757691179389336
0082,cdot_cos,R,Q-R,227,45,37631,0.0606371944684996,0.22656492435774142,0.08534319709463636,0.991083934623269,850.0,7.8536465270968625,0.6274427183352911,9.453389188930744,-0.2404752596681063,0.035,0.9999999999980762,-167.9419207317949,1.1275581327212,227,2026-10-07 23:01:53.715244,55.2,0.4474619532547617,1.6734380090800953,2.609288246759738
0082,cdot_cos,S,R-S,228,45,37675,0.023455637531512894,-0.039983654376195804,-0.0371815569369867,0.11380788608391712,850.0,7.879462099095878,0.6275748523809969,9.476183919535607,-0.0684770825076238,0.044,0.9999999999980338,1301.6946256490858,1.1325252805674417,228,2026-10-07 23:01:53.759244,55.2,0.08112511921192037,0.48964334008741706,0.5867175454321785
0082,cdot_cos,T,S-T,229,45,37925,-0.13430343453526247,-0.03399333770336131,-0.15775907206677536,0.00016518145299553583,850.0,7.896735141024555,0.6275750441473029,9.496945192226573,-0.04594308329681786,0.25,0.999999999997987,117507.60430313353,1.1374928079128988,229,2026-10-07 23:01:54.009243,55.2,0.6123345936784629,0.2196479922744654,0.06909216771470739
0082,cdot_cos,P,T-P,230,46,38305,0.04625523908449896,0.0005987787798411885,0.18055867361976144,0.9999530715151219,818.0,7.989286095233111,0.6287351953545146,9.535253089584016,-0.2475664751747085,0.38,0.9999999999979806,-173.79061507204105,1.1424605798280993,230,2026-10-07 23:01:54.389244,55.2,0.44289559027407965,0.1454402518576326,0.24355514265409436
0082,cdot_cos,Q,P-Q,231,46,38438,-0.04021823281764767,-0.03858042950247871,-0.08647347190214663,0.008381299797776066,818.0,8.007269732436356,0.6287449131361348,9.556107517813874,-0.048439030900556575,0.133,0.9999999999979253,20491.039216264187,1.1474278924846253,231,2026-10-07 23:01:54.522244,55.2,0.0163932063502231,0.4161855490845802,0.13521531731763095
0082,cdot_cos,R,Q-R,232,46,38473,0.06328032402869588,0.22440043453724628,0.10349855684634354,0.9967085176360393,818.0,8.09999145128961,0.6298998120920446,9.594360384880959,-0.2511528927089248,0.035,0.9999999999979181,-175.52519272014882,1.1523950217643995,232,2026-10-07 23:01:54.557244,55.2,0.4461351727927313,2.064651208530499,2.649191967235812
0082,cdot_cos,S,R-S,233,46,38514,0.05988303920777962,-0.08316863402810494,-0.003397284820916259,0.4532543832976509,818.0,8.151795317033491,0.6304245134110371,9.62302485203951,-0.14149588738053648,0.041,0.9999999999978886,208.98938378684073,1.1573621637415974,233,2026-10-07 23:01:54.598243,55.2,0.460711293815685,0.8451510310017167,1.2635089205824759
0082,cdot_cos,T,S-T,234,46,38762,-0.08603040613640696,-0.03048704385670776,-0.14591344534418657,0.0003175930135550142,818.0,8.16929383583175,0.630424880958674,9.643658631324064,-0.047998872826307465,0.248,0.9999999999978394,254380.67116289854,1.1623297041244205,234,2026-10-07 23:01:54.846244,55.2,0.1425731308450736,0.22388694081875196,0.07055854354136797
0082,cdot_cos,P,T-P,235,47,39123,0.05387412129877997,0.0015319627897920816,0.13990452743518694,0.999557545297964,836.0,8.262843239679592,0.6315809090251148,9.681964588316681,-0.2580182401602823,0.361,0.9999999999978322,-181.67324257151571,1.1672974667542793,235,2026-10-07 23:01:55.207244,55.2,0.443095033577695,0.15526332835858406,0.259139622847207
0082,cdot_cos,Q,P-Q,236,47,39262,-0.024652635224209827,-0.026565430479993952,-0.0785267565229898,0.012936559253005625,836.0,8.281393958906648,0.6315958608005352,9.702772737927688,-0.05151287600776996,0.139,0.999999999997775,13811.427629542304,1.1722647986911023,236,2026-10-07 23:01:55.346244,55.2,0.01815497565507125,0.4028582264395928,0.13345841170543868
0082,cdot_cos,R,Q-R,237,47,39296,0.06456036114225497,0.2396028749917246,0.08921299636646479,0.9927864715971395,836.0,8.374837826629799,0.632742544244659,9.74096080117163,-0.2608971999396318,0.034,0.999999999997768,-182.5999363685331,1.1772319254739003,237,2026-10-07 23:01:55.380243,55.2,0.44818244270900487,1.6913010018023111,2.7483490506809067
0082,cdot_cos,S,R-S,238,47,39335,0.01162970093895566,-0.028371050295816384,-0.05293066020329931,0.051087708450465376,836.0,8.396402427029205,0.6328015108306382,9.762399398369123,-0.06062049169674144,0.039,0.9999999999977178,3396.4440185449084,1.1821990631703005,238,2026-10-07 23:01:55.419244,55.2,0.03674404845326824,0.5023837454573163,0.5529384717796495
0082,cdot_cos,T,S-T,239,47,39585,-0.211572528031498,-0.17436641631899139,-0.22320222897045366,4.458190920749764e-06,836.0,8.41402375877547,0.6328015159762094,9.782887217189534,-0.04965127270905754,0.25,0.9999999999976652,2131778.6849612803,1.1871666212963057,239,2026-10-07 23:01:55.669244,55.2,0.8017766245517438,0.22431455542685796,0.07048532698505738
0082,cdot_cos,P,T-P,240,48,39959,0.06568540304258366,0.0010325432394322214,0.2772579310740817,0.9999997744306126,837.0,8.508559704742634,0.6339549361671809,9.821201103394527,-0.26779395525229255,0.374,0.999999999997659,-189.12681107090052,1.1921344316814204,240,2026-10-07 23:01:56.043243,55.2,0.44282017776201704,0.1514180622585955,0.252769909003114
0082,cdot_cos,Q,P-Q,241,48,40094,-0.01251967199720425,-0.01317033954725053,-0.07820507503978791,0.013165271750596563,837.0,8.527284469344899,0.6339701110553984,9.841876674451058,-0.05339614181302016,0.135,0.9999999999975993,14128.460807554455,1.1971017616523305,241,2026-10-07 23:01:56.178244,55.2,0.018038797396097345,0.4182680510572138,0.1387019600167763
0082,cdot_cos,R,Q-R,242,48,40129,0.07159978378249289,0.24601830317348877,0.08411945577969714,0.9904667816340448,837.0,8.621492078528082,0.635111003636558,9.880022591561977,-0.2700683551069111,0.035,0.9999999999975909,-189.9146482955044,1.2020688893542242,242,2026-10-07 23:01:56.213243,55.2,0.44830271737324756,1.621094684647544,2.6916459766623695
0082,cdot_cos,S,R-S,243,48,40186,0.0001890122620025621,-0.001258723385245846,-0.07141077152049033,0.019042149275122947,837.0,8.640761097270227,0.6351329229705281,9.90075649282338,-0.055603341625715015,0.057,0.9999999999975367,9784.285132643241,1.207036063324868,243,2026-10-07 23:01:56.270243,55.2,0.021130186909302448,0.32483077587599807,0.3380529603885114
0082,cdot_cos,T,S-T,244,48,40423,-0.21548674327304987,-0.14490276912341413,-0.21567575553505244,6.7544537218723106e-06,837.0,8.658522786977946,0.6351329307454507,9.92110764301403,-0.0513636936205609,0.237,0.9999999999974813,545297.7767371711,1.2120036082430818,244,2026-10-07 23:01:56.507244,55.2,0.9207730154466057,0.23889361044613666,0.07494383842919254
0082,cdot_cos,P,T-P,245,49,40796,0.060291049219409705,0.0015911286920020542,0.2757777924924596,0.999999755226952,845.0,8.753996668621696,0.6362832368484928,9.959422369383685,-0.27752630537943906,0.373,0.999999999997475,-196.61080747184275,1.2169714388526813,245,2026-10-07 23:01:56.880243,55.2,0.4426733442706666,0.15313501222418827,0.2559621491789548
0082,cdot_cos,Q,P-Q,246,49,40934,-0.01999137434884736,-0.02056902299462243,-0.08028242356825707,0.01175572235295715,845.0,8.77276150609719,0.6362967502972147,9.979939408906109,-0.054903219006200765,0.138,0.9999999999974122,16474.1873784026,1.2219387808934434,246,2026-10-07 23:01:57.018244,55.2,0.017338469514305437,0.41291917048850685,0.1359770831557557
0082,cdot_cos,R,Q-R,247,49,40968,0.0658538078476285,0.23129912532111455,0.08584518219647586,0.9913254897498964,845.0,8.867962359676524,0.637435524043727,10.01810060476097,-0.2799773506599676,0.034,0.9999999999974045,-197.64604895667756,1.226905905332568,247,2026-10-07 23:01:57.052243,55.2,0.4475794511984505,1.6933705533236036,2.8000251052745178
0082,cdot_cos,S,R-S,248,49,41010,4.329735342863554e-05,-0.0018609355446725063,-0.06581051049419986,0.025762374211614765,845.0,8.887910703723195,0.6374650977866304,10.038825388540529,-0.059047241024209315,0.042,0.9999999999973475,7470.481851341702,1.231873047783262,248,2026-10-07 23:01:57.094244,55.2,0.023716547635913784,0.4507831868860406,0.47496057253979646
0082,cdot_cos,T,S-T,249,49,41261,-0.15353065442849426,-0.03680718710695252,-0.1535739517819229,0.00020810032551467586,845.0,8.905828147374951,0.637465336669753,10.05904836019985,-0.05314885516761847,0.251,0.9999999999972895,24691.513540135118,1.2368406356517272,249,2026-10-07 23:01:57.345243,55.2,0.8949578954602945,0.2277294164161416,0.07138423765639824
0082,cdot_cos,P,T-P,250,50,41641,0.04789713836058535,0.0020004753844881417,0.2014277927890796,0.9999851695638534,836.0,9.002230870764098,0.6386124567397785,10.097364833657819,-0.2874038064136576,0.38,0.9999999999972832,-204.2113614495773,1.2418085039182074,250,2026-10-07 23:01:57.725244,55.2,0.44260721831903965,0.15159242996661418,0.25369137733986086
0082,cdot_cos,Q,P-Q,251,50,41780,-0.034615719108264865,-0.036133122964085065,-0.08251285746885022,0.010408085111495678,836.0,9.021038394149578,0.6386243879588975,10.117728890056975,-0.056430518640545275,0.139,0.9999999999972171,19358.733208150064,1.2467758541792138,251,2026-10-07 23:01:57.864243,55.2,0.016688152149255737,0.41426989706138984,0.13530592363654417
0082,cdot_cos,R,Q-R,252,50,41814,0.05910073203841276,0.219696448256646,0.09371645114667762,0.9943652292147489,836.0,9.117397902147165,0.6397634796069204,10.155946319242338,-0.2905666155233926,0.034,0.9999999999972099,-205.54632042930484,1.251742977364715,252,2026-10-07 23:01:57.898243,55.2,0.4467342150600039,2.198633619860789,2.83410317639961
0082,cdot_cos,S,R-S,253,50,41854,0.05502220735586538,-0.08106814362343862,-0.00407852468254738,0.4439528912839509,836.0,9.170545480300111,0.6402715414755799,10.18415824771535,-0.161484757831864,0.04,0.9999999999971746,254.06720254781231,1.256710115064345,253,2026-10-07 23:01:57.938244,55.2,0.449623861195323,0.8909592044105574,1.3286894538236727
0082,cdot_cos,T,S-T,254,50,42120,-0.09215292528311231,-0.02920412480153805,-0.1471751326389777,0.000296233193255705,836.0,9.188674638500009,0.6402718803815042,10.204270588824471,-0.055298738813446484,0.266,0.9999999999971141,313320.0436969864,1.2616777539905997,254,2026-10-07 23:01:58.204243,55.2,0.14657398383261322,0.2171080443374002,0.06815473007480334
0082,cdot_cos,P,T-P,255,51,42477,0.059736088268153395,0.0004833821139454483,0.15188901355126572,0.9997716205261631,841.0,9.286046959887608,0.6414148714675496,10.242590400986257,-0.2984618489027051,0.357,0.9999999999971074,-212.74278781172714,1.2666455997055435,255,2026-10-07 23:01:58.561243,55.2,0.44276287940095005,0.1632248486372849,0.272751600525488
0082,cdot_cos,Q,P-Q,256,51,42611,-0.01970457334010551,-0.018819202266163588,-0.07944066160825891,0.012307962679806108,841.0,9.30521718042703,0.6414289325984035,10.262879683239628,-0.05912951742755887,0.134,0.9999999999970396,17020.845191045584,1.2716129470458102,256,2026-10-07 23:01:58.695244,55.2,0.017464328126395083,0.4349476939893293,0.14306134730912082
0082,cdot_cos,R,Q-R,257,51,42645,0.07653386776409518,0.24368395605903362,0.09623844110420068,0.9950939203737416,841.0,9.402612941876749,0.642564963187759,10.301116892918476,-0.30187122542612377,0.034,0.9999999999970326,-213.67532729578576,1.2765800695797596,257,2026-10-07 23:01:58.729243,55.2,0.447480027749337,1.7179540549321097,2.8645812191093545
0082,cdot_cos,S,R-S,258,51,42685,-7.96561266150698e-06,-0.0020667864903433134,-0.07654183337675668,0.014412966237805998,841.0,9.422038056162414,0.642581405755265,10.32140260875208,-0.06058154183987015,0.04,0.9999999999969698,14674.696241832195,1.2815472068341376,258,2026-10-07 23:01:58.769243,55.2,0.01863169537358223,0.4708420130283386,0.48562785714163503
0082,cdot_cos,T,S-T,259,51,42935,-0.23620631161126915,-0.17509762722101502,-0.23619834599860765,2.175720084581332e-06,841.0,9.440280302919016,0.6425814082373397,10.34138601469439,-0.05700635004154974,0.25,0.9999999999969075,1440404.61811099,1.286514824625984,259,2026-10-07 23:01:59.019244,55.2,0.9392104754932342,0.23308642902053478,0.07296898702640675
0082,cdot_cos,P,T-P,260,52,43318,0.056451874416343924,0.0034273379149659918,0.29265818602761307,0.9999999035973326,885.0,9.538581270672681,0.6437214045006262,10.379713009236795,-0.3086453240460415,0.383,0.9999999999969013,-220.73666564400204,1.2914827524708286,260,2026-10-07 23:01:59.402244,55.2,0.44250592277207007,0.15413796903356453,0.2566604902184483
0082,cdot_cos,Q,P-Q,261,52,43459,-0.016044963832986602,-0.01521346518155564,-0.07249683824933052,0.01795399555218675,885.0,9.558349987198726,0.6437418571589415,10.399985754222879,-0.062454409486188564,0.141,0.9999999999968305,12037.110812912846,1.2964501220164526,261,2026-10-07 23:01:59.543243,55.2,0.019410714591703623,0.418206964813435,0.14020366330528178
0082,cdot_cos,R,Q-R,262,52,43493,0.07485702504997056,0.22634907966010553,0.09090198888295717,0.9934243846522701,885.0,9.65651563475007,0.6448727177927326,10.438194744061796,-0.3116010962006958,0.034,0.999999999996823,-220.31599586172723,1.301417243245651,262,2026-10-07 23:01:59.577244,55.2,0.44952250820265494,1.7401308653367464,2.8872249279807036
0082,cdot_cos,S,R-S,263,52,43551,0.005908997151994443,-0.0157722671996629,-0.06894802789797612,0.021754689156445503,885.0,9.676678886041625,0.6448974641147138,10.458497290621015,-0.06439514369532015,0.058,0.9999999999967586,9989.603816388828,1.3063844221068306,263,2026-10-07 23:01:59.635243,55.2,0.021517445982437967,0.33227682064140457,0.347642263647497
0082,cdot_cos,T,S-T,264,52,43777,-0.19135649967623133,-0.06252090668371094,-0.19726549682822578,1.86610128258577e-05,885.0,9.695059745944473,0.6448974853415947,10.478361864150202,-0.05881978059628792,0.226,0.9999999999966925,262655.78631806944,1.3113519975560324,264,2026-10-07 23:01:59.861243,55.2,0.9095664573776172,0.26014528601032333,0.08133123850817743
0082,cdot_cos,P,T-P,265,53,44203,0.06070705506796136,0.0047750249921725595,0.2520635547441927,0.9999990937123875,871.0,9.794264555318291,0.64603416272681,10.516692499240138,-0.3189263316837706,0.426,0.9999999999966871,-228.83058506369449,1.3163200519452343,265,2026-10-07 23:02:00.287244,55.2,0.4423873684375916,0.14072685637158971,0.23287513937515972
0082,cdot_cos,Q,P-Q,266,53,44345,-0.003873399571822641,-0.006303795220880788,-0.064580454639784,0.027522553286503663,871.0,9.814959027573067,0.6460654237665011,10.53702704979557,-0.06693584007416789,0.142,0.9999999999966134,8060.848074782292,1.3212874301088406,266,2026-10-07 23:02:00.429244,55.2,0.02317555568395245,0.41706979701417063,0.14573572010405908
0082,cdot_cos,R,Q-R,267,53,44378,0.06428165778365774,0.21025608191119785,0.06815505735548039,0.9772940187465289,871.0,9.912712377670315,0.6471746562635824,10.574940036169393,-0.31763822797933483,0.033,0.9999999999966047,-226.01428335794276,1.3262545472965042,267,2026-10-07 23:02:00.462244,55.2,0.45417613184629085,1.8293891855299913,2.9622227302196382
0082,cdot_cos,S,R-S,268,53,44437,0.012626215321735659,-0.0318162674664437,-0.05165544246192208,0.054610005199312646,871.0,9.935698713818047,0.6472365921970357,10.595738699132912,-0.07514265036657913,0.059,0.9999999999965388,3915.2647597651508,1.3312217287779986,268,2026-10-07 23:02:00.521244,55.2,0.03967094040341601,0.3517833009223558,0.38959891775815897
0082,cdot_cos,T,S-T,269,53,44670,-0.16491084273607892,-0.026802106940438546,-0.17753705805781458,5.5445996202257475e-05,871.0,9.954222807179153,0.6472366550785946,10.615489512854555,-0.06068217387932591,0.233,0.9999999999964702,229963.7083821211,1.3361893339945377,269,2026-10-07 23:02:00.754244,55.2,0.7879673766076624,0.25456762056996807,0.07950254661419144
0082,cdot_cos,P,T-P,270,54,45074,0.05618960412618452,-0.0003189842402742119,0.22110044686226343,0.9999949933807619,855.0,10.054327225003652,0.64836992281089,10.653824348967458,-0.32939859108145264,0.404,0.9999999999964642,-237.11644613568353,1.3411573620806156,270,2026-10-07 23:02:01.158243,55.2,0.44229469397731425,0.14776210905293072,0.24778321243687754
0082,cdot_cos,Q,P-Q,271,54,45209,-0.030344913565825023,-0.028551103889721246,-0.08653451769200954,0.008353340156022317,855.0,10.073614591293921,0.6483793824137479,10.673691691215323,-0.06384403755551087,0.135,0.9999999999963867,28072.48438591863,1.3461247295282017,271,2026-10-07 23:02:01.293243,55.2,0.015616518307091556,0.44244500795628944,0.14286937992792223
0082,cdot_cos,R,Q-R,272,54,45243,0.07021768672208309,0.21479980804964988,0.10056260028790812,0.9961316660603575,855.0,10.17378737715185,0.6495065985445874,10.711957345907283,-0.3330630439315476,0.034,0.9999999999963796,-238.83530319562547,1.351091847736314,272,2026-10-07 23:02:01.327244,55.2,0.4456094184669044,1.935155676162569,2.9462584075861367
0082,cdot_cos,S,R-S,273,54,45283,0.03951534880487027,-0.07031805773798536,-0.030702337917212816,0.15514969234361106,855.0,10.205205177272976,0.6496820151935278,10.734528711640554,-0.10511532144303042,0.04,0.999999999996318,1299.4645825550144,1.3560589821516396,273,2026-10-07 23:02:01.367244,55.2,0.11434341183544697,0.6265920155777316,0.7854450030281512
0082,cdot_cos,T,S-T,274,54,45528,-0.10065926421020488,-0.021602087768753622,-0.14017461301507517,0.000435910049878182,855.0,10.223914738398069,0.6496825079888245,10.754179196128392,-0.06275102106164375,0.245,0.9999999999962469,85967.33909031884,1.3610266321604318,274,2026-10-07 23:02:01.612243,55.2,0.5090966962489443,0.24430265503511422,0.07636555561262236
0082,cdot_cos,P,T-P,275,55,45929,0.05772336077041538,0.0032920406313189468,0.15838262498062025,0.9998404064847727,879.0,10.324913478240182,0.6508119829289646,10.792516243124757,-0.34022157598542385,0.401,0.9999999999962413,-245.66331227267182,1.3659946807846841,275,2026-10-07 23:02:02.013243,55.2,0.4423922385628265,0.15105000012002387,0.25186718165115585
0082,cdot_cos,Q,P-Q,276,55,46069,-0.016011200257715897,-0.01639560580557976,-0.07373456102813128,0.01678820878769805,879.0,10.345056838494328,0.6508309334129841,10.812436580206363,-0.0682527593837517,0.14,0.9999999999961617,14351.549877084677,1.3709620678291379,276,2026-10-07 23:02:02.153243,55.2,0.018597465314014624,0.43237470965170766,0.1438811446724689
0082,cdot_cos,R,Q-R,277,55,46103,0.07743068008344776,0.23327871018702012,0.09344188034116366,0.9942796686670283,879.0,10.44597839694266,0.6519524217685614,10.850672018325398,-0.34344604610252993,0.034,0.9999999999961551,-245.3822060213316,1.3759291848172932,277,2026-10-07 23:02:02.187244,55.2,0.44875832136148697,1.778001554212463,2.968281130833309
0082,cdot_cos,S,R-S,278,55,46162,0.00010916516320210498,-0.0013467918695211061,-0.07732151492024567,0.01381420139992384,879.0,10.465960944180775,0.6519679915425659,10.870500001122998,-0.06839669583015577,0.059,0.9999999999960809,17665.596828349735,1.3808963675458419,278,2026-10-07 23:02:02.246243,55.2,0.017928142559384956,0.32872475148842106,0.33868724132398287
0082,cdot_cos,T,S-T,279,55,46393,-0.2438177879617863,-0.13302935891385473,-0.2439269531249884,1.420119929361915e-06,879.0,10.484767917618294,0.6519679931431445,10.890033754996006,-0.06449232771811854,0.231,0.9999999999960064,2439348.003949318,1.3858639955663825,279,2026-10-07 23:02:02.477243,55.2,0.9412560801910664,0.2612501084316329,0.08141546942648785
0082,cdot_cos,P,T-P,280,56,46808,0.0661050278139212,0.002135118643748067,0.3099228157757075,0.9999999628290936,867.0,10.58665849427619,0.6530942135324092,10.92837802305591,-0.350880522525885,0.415,0.9999999999960013,-254.2914313554119,1.390832106830984,280,2026-10-07 23:02:02.892244,55.2,0.44210909321456143,0.1474578366359546,0.2455194618262547
0082,cdot_cos,Q,P-Q,281,56,46944,-0.00503533850469169,-0.006675000273332685,-0.0711403663186129,0.01932297787570547,867.0,10.607157922026136,0.6531159586414305,10.94824069640439,-0.0710019054522934,0.136,0.9999999999959186,12870.876701483558,1.3957994897757893,281,2026-10-07 23:02:03.028243,55.2,0.019412335501087348,0.44848134751182706,0.1507310863966663
0082,cdot_cos,R,Q-R,282,56,46979,0.07937121345622775,0.24090631176622554,0.08440655196091944,0.990615263804885,867.0,10.708645420799407,0.6542298894393085,10.986410438259007,-0.3530010401831787,0.035,0.9999999999959116,-253.15678071571162,1.4007666078811791,282,2026-10-07 23:02:03.063244,55.2,0.4498405688967509,1.73573436764034,2.8996428220934383
0082,cdot_cos,S,R-S,283,56,47038,0.00020303136065393405,-0.0015153300732440949,-0.07916818209557382,0.012492154285578259,867.0,10.72865932776096,0.6542439258978779,11.006108758118438,-0.07000935527211391,0.059,0.9999999999958353,20161.188344678587,1.405733790970044,283,2026-10-07 23:02:03.122243,55.2,0.017558833379104685,0.3301081818392474,0.3392187620602284
0082,cdot_cos,T,S-T,284,56,47273,-0.22913635353270367,-0.11826735131893525,-0.22933938489335762,3.177114308750587e-06,867.0,10.747598186256438,0.6542439294677191,11.025537110429221,-0.06636918134811368,0.235,0.9999999999957575,1019701.9193929945,1.4107014429867792,284,2026-10-07 23:02:03.357243,55.2,0.9466296370099391,0.2589370507903639,0.0805908872147988
0082,cdot_cos,P,T-P,285,57,47675,0.06836028611975883,0.004235280708709024,0.29749663965246254,0.9999999261931715,857.0,10.850359741632431,0.6553666780567344,11.06388566055805,-0.3616003714282717,0.402,0.9999999999957532,-262.95396223930425,1.415669546656057,285,2026-10-07 23:02:03.759244,55.2,0.44199482791608874,0.15336745227019796,0.25562575964177436
0082,cdot_cos,Q,P-Q,286,57,47819,-0.003940912667246639,-0.006958963414991824,-0.07230119878700547,0.01814539953880179,857.0,10.870905617881677,0.6553870348145732,11.083623834790115,-0.07270825629075359,0.144,0.9999999999956674,14191.460026498266,1.420636957477477,286,2026-10-07 23:02:03.903244,55.2,0.01881114986202301,0.4203678957022919,0.1426796961753185
0082,cdot_cos,R,Q-R,287,57,47853,0.05835322316864838,0.2168700299918195,0.06229413583589502,0.9688904377425547,857.0,10.971425695594691,0.6564731732269501,11.121384364965378,-0.35716863239234364,0.034,0.9999999999956596,-261.9006683310941,1.4256040713955975,287,2026-10-07 23:02:03.937243,55.2,0.45093522545559034,1.806874235459437,2.956472873912182
0082,cdot_cos,S,R-S,288,57,47890,8.668307455316016e-05,-0.002664285657090887,-0.05826654009409522,0.038556429188028846,857.0,10.993773065892919,0.6565163617115772,11.14147565716124,-0.07984681419014296,0.037,0.9999999999955823,6421.198164195525,1.4305711946234927,288,2026-10-07 23:02:03.974244,55.2,0.03101844541009238,0.5598143671098914,0.6039829810331766
0082,cdot_cos,T,S-T,289,57,48151,-0.16539589707121702,-0.041219570795787974,-0.1654825801457702,0.00010785247009483476,857.0,11.012851958760823,0.6565164825174933,11.160803769449627,-0.06829716732585603,0.261,0.9999999999955026,95604.97732291376,1.4355389319080698,289,2026-10-07 23:02:04.235244,55.2,0.8444170894349368,0.23506543246091618,0.07309920639043842
0082,cdot_cos,P,T-P,290,58,48532,0.04885670536110742,0.0020716201119690674,0.21425260243232444,0.9999926935348207,842.0,11.116477221637517,0.6576357051941962,11.199156439286522,-0.3724359452373428,0.381,0.9999999999954983,-271.74107909199233,1.4405070042546864,290,2026-10-07 23:02:04.616243,55.2,0.44192267042485067,0.1623461625394112,0.27198231726166355
0082,cdot_cos,Q,P-Q,291,58,48673,-0.03268020200342692,-0.03482060513285667,-0.08153690736453434,0.010977848207087419,842.0,11.136559734615854,0.657647982239915,11.21865870146126,-0.07258021192294256,0.141,0.9999999999954102,24424.09519210923,1.4454744137992455,291,2026-10-07 23:02:04.757244,55.2,0.01606085523480825,0.43820508684684145,0.14242917005913136
0082,cdot_cos,R,Q-R,292,58,48707,0.05999166050749382,0.22576821831131808,0.09267186251092074,0.9940327668551279,842.0,11.240051056128326,0.6587587795506606,11.256899644715423,-0.3755173121127977,0.034,0.999999999995405,-272.7204119593311,1.4504415264089867,292,2026-10-07 23:02:04.791244,55.2,0.4463198646978046,2.2314172713737306,3.04386239742564
0082,cdot_cos,S,R-S,293,58,48746,0.04807685172314428,-0.07422525105153759,-0.011914808784349543,0.3412570381279382,842.0,11.288296109069268,0.6591397217583802,11.28267932325145,-0.17614892821684008,0.039,0.9999999999953497,523.3559838103529,1.4554086544710525,293,2026-10-07 23:02:04.830244,55.2,0.32244677859324306,0.8655947492957403,1.237052639511332
0082,cdot_cos,T,S-T,294,58,48989,-0.09961933362560496,-0.03125621050973204,-0.14769618534874923,0.0002878366836401849,842.0,11.307567446573394,0.6591400429812491,11.301922133566734,-0.07057307226199545,0.243,0.9999999999952681,328668.5544201244,1.4603763601935638,294,2026-10-07 23:02:05.073244,55.2,0.2240291033022912,0.25470390589116654,0.07930591565483867
0082,cdot_cos,P,T-P,295,59,49374,0.05769651441001135,0.004212743680401957,0.15731584803561632,0.9998307280725215,851.0,11.412082207332375,0.6602549603981926,11.340276408472153,-0.38422698418099943,0.385,0.9999999999952651,-281.3247933455463,1.4653444742516804,295,2026-10-07 23:02:05.458244,55.2,0.442053426809865,0.16286106003857684,0.27146691106228865
0082,cdot_cos,Q,P-Q,296,59,49516,-0.014499983191080803,-0.016751354242883053,-0.07219649760109215,0.018248655308094473,851.0,11.432970462803098,0.6602752931374368,11.359831358215565,-0.07721309967389904,0.142,0.9999999999951755,15099.484669534362,1.4703118954500343,296,2026-10-07 23:02:05.600243,55.2,0.018756984491349393,0.4391043656165903,0.14710039063889466
0082,cdot_cos,R,Q-R,297,59,49551,0.06445802450233981,0.24493842407383984,0.07895800769342061,0.9873639144350969,851.0,11.536787847167487,0.6613745364994059,11.397948222385997,-0.385245318063971,0.035,0.9999999999951701,-280.2220409485017,1.4752790101246642,297,2026-10-07 23:02:05.635243,55.2,0.44952032750073684,1.794359246550162,2.966210981839674
0082,cdot_cos,S,R-S,298,59,49595,5.077671348335348e-05,-0.0007511578793497111,-0.06440724778885645,0.027779613812073917,851.0,11.55857561006161,0.6614054387528535,11.417653991820698,-0.0812885958854282,0.044,0.9999999999950878,9836.069809407152,1.4802461520788268,298,2026-10-07 23:02:05.679244,55.2,0.023772410840162257,0.467793194838816,0.49517642941188106
0082,cdot_cos,T,S-T,299,59,49849,-0.21132509354636436,-0.13645443201478047,-0.21137587025984772,8.563885114466172e-06,851.0,11.577953648313303,0.6614054482791722,11.436795241091723,-0.07242696657338613,0.254,0.9999999999950033,930225.9938615817,1.4852139048072133,299,2026-10-07 23:02:05.933243,55.2,0.8848363001489845,0.24558666228586717,0.07629148917989387
0082,cdot_cos,P,T-P,300,60,50225,0.06063450903407076,0.0017601853844424712,0.2719596025804351,0.9999996977980591,827.0,11.68333363450283,0.662516937359341,11.475156231320511,-0.39535261019750756,0.376,0.9999999999950006,-290.5342476015011,1.490182018612539,300,2026-10-07 23:02:06.309243,55.2,0.4418414697403137,0.16733923005867934,0.28026592071682843
0082,cdot_cos,Q,P-Q,301,60,50361,-0.019876933762511536,-0.020717485249819565,-0.0805114427965823,0.011609758089280865,827.0,11.70379274931743,0.6625298309714892,11.494489857464067,-0.0771700930562799,0.136,0.9999999999949079,24677.53128328418,1.4951494292634673,301,2026-10-07 23:02:06.445244,55.2,0.016193708446267652,0.46105356370547,0.15043466775440725
0082,cdot_cos,R,Q-R,302,60,50396,0.0647965204079415,0.24501865964753597,0.08467345417045304,0.9907512461855968,827.0,11.808740203830718,0.6636292516078959,11.53267386700817,-0.39733681275806315,0.035,0.9999999999949041,-291.2140350104871,1.5001165427553633,302,2026-10-07 23:02:06.480243,55.2,0.446738588830058,1.8395089096576658,2.99849870037967
0082,cdot_cos,S,R-S,303,60,50455,0.011279911496271432,-0.02459905378937206,-0.053516608911670066,0.049542299812011074,827.0,11.832558372993466,0.6636841815258906,11.552708048429196,-0.09066357285340347,0.059,0.999999999994821,5582.991038401948,1.5050837290404446,303,2026-10-07 23:02:06.539244,55.2,0.0339610546500787,0.36721913361687425,0.40369778241946014
0082,cdot_cos,T,S-T,304,60,50687,-0.16948161788083171,-0.06496696719673382,-0.18076152937710316,4.640595211377082e-05,827.0,11.852072061597509,0.6636842329763157,11.571757134539167,-0.07441478896484706,0.232,0.999999999994734,315814.37555744196,1.5100514321943685,304,2026-10-07 23:02:06.771244,55.2,0.8038406473658417,0.2709909841511836,0.0841107267415647
0082,cdot_cos,P,T-P,305,61,51052,0.05877754550840312,0.0031877587823234167,0.22825916338923483,0.999996627678544,828.0,11.958298189639615,0.6647920293803361,11.610121123566094,-0.4065756442535231,0.365,0.9999999999947323,-299.83926115233106,1.5150195390157322,305,2026-10-07 23:02:07.136243,55.2,0.44176737001713695,0.17339729643184584,0.2910304877865923
0082,cdot_cos,Q,P-Q,306,61,51195,-0.026829663531941977,-0.03045524852950549,-0.08560720904034509,0.008788203339861788,828.0,11.978652087992756,0.6648017569342839,11.629309268884628,-0.07831677864044688,0.143,0.9999999999946377,33745.26292785085,1.5199869778999018,306,2026-10-07 23:02:07.279244,55.2,0.015124724184591341,0.43985589666641467,0.14233495351847048
0082,cdot_cos,R,Q-R,307,61,51229,0.051400580953068924,0.22921562175599328,0.0782302444850109,0.9868527664516678,828.0,12.08409697608621,0.6658932003511225,11.66741966670019,-0.4071968024773507,0.034,0.9999999999946344,-301.3257661945515,1.524954087289316,307,2026-10-07 23:02:07.313244,55.2,0.44589647031821306,2.690275830807596,3.1013202380427445
0082,cdot_cos,S,R-S,308,61,51267,0.06369054795348676,-0.07849607710708678,0.012289967000417838,0.6633828801596107,828.0,12.161590844487673,0.6666258948979245,11.699265206361105,-0.30120324984877134,0.038,0.999999999994605,144.66267435894378,1.5299212106078395,308,2026-10-07 23:02:07.351244,55.2,0.7033501522567478,1.2795396537512014,2.0393123263542954
0082,cdot_cos,T,S-T,309,61,51524,-0.08454941634561206,-0.03297185703084383,-0.1482399642990988,0.00027932756523095384,828.0,12.181341989771301,0.6666262032410515,11.718247529920722,-0.07707678090144664,0.257,0.9999999999945177,726873.5681098568,1.5348890114678295,309,2026-10-07 23:02:07.608243,55.2,0.054593862924256525,0.24677884372663483,0.07685270538376689
0082,cdot_cos,P,T-P,310,62,51880,0.0476617774419371,3.2956425888216194e-05,0.13221119378754914,0.9993236058029376,806.0,12.288435170163163,0.6677284189007969,11.756600639957162,-0.4194001287595588,0.356,0.9999999999945157,-310.57746715118526,1.5398571243943142,310,2026-10-07 23:02:07.964243,55.2,0.4420990307903934,0.1794017907506969,0.3008235404265793
0082,cdot_cos,Q,P-Q,311,62,52015,-0.03647797459757306,-0.0388370503894082,-0.08413975203951016,0.009522645422147107,806.0,12.309076064785797,0.667738913207706,11.775733287175058,-0.08125504787114099,0.135,0.9999999999944201,32221.764030704315,1.5448245492847217,311,2026-10-07 23:02:08.099244,55.2,0.015583742352215643,0.4730328823603292,0.15289551572321455
0082,cdot_cos,R,Q-R,312,62,52048,0.05962738962817659,0.23176416074629333,0.09610536422574964,0.9950579271500467,806.0,12.416154048400452,0.6688345844752918,11.814003669719543,-0.4230073044482059,0.033,0.9999999999944176,-311.91130650900334,1.5497916552854896,312,2026-10-07 23:02:08.132244,55.2,0.44578834370899834,2.703366681168628,3.2447873822622704
0082,cdot_cos,S,R-S,313,62,52097,0.06589317395910221,-0.0848146021948512,0.006265784330925624,0.5856160219737951,806.0,12.487498265742927,0.6694785604148271,11.844314259380402,-0.2835971589840142,0.049,0.9999999999943806,216.48346918796244,1.554758813747357,313,2026-10-07 23:02:08.181243,55.2,0.6116603862575487,0.9315894460032335,1.4560044355607047
0082,cdot_cos,T,S-T,314,62,52347,-0.08667666700367052,-0.03992779870389987,-0.15256984096277273,0.00021995772194401705,806.0,12.507449814108769,0.6694788021734519,11.863224088328115,-0.0795993524814346,0.25,0.9999999999942917,843807.7718349169,1.5597266146165147,314,2026-10-07 23:02:08.431243,55.2,0.07708802244367917,0.2559632860199983,0.07980619346336937
0082,cdot_cos,P,T-P,315,63,52686,0.057839574186962214,0.0015042736021408261,0.14451624119063272,0.9996569518085346,796.0,12.615479908752926,0.6705766128777009,11.90158411797221,-0.43247548286744175,0.339,0.9999999999942907,-321.4362266830106,1.5646947055156408,315,2026-10-07 23:02:08.770243,55.2,0.4422213100070661,0.19027651616555083,0.31867284555798464
0082,cdot_cos,Q,P-Q,316,63,52820,-0.023759305202416543,-0.025145627975256605,-0.08159887938937876,0.010940768894985242,796.0,12.636457292069013,0.670588617629469,11.92067453414156,-0.084408325318504,0.134,0.999999999994194,28994.11535303784,1.5696621372872857,316,2026-10-07 23:02:08.904243,55.2,0.016185950011286355,0.4793531055224025,0.15654763668721397
0082,cdot_cos,R,Q-R,317,63,52855,0.05861266080192479,0.2555248141067112,0.08237196600434132,0.9895115057630701,796.0,12.74394654103293,0.6716734366888227,11.958836237656843,-0.4339816274317351,0.035,0.9999999999941914,-322.241113943441,1.5746292494559637,317,2026-10-07 23:02:08.939244,55.2,0.4468633045674303,1.9138222177958955,3.071121398969063
0082,cdot_cos,S,R-S,318,63,52914,0.012350179965217386,-0.02171793542879409,-0.0462624808367074,0.07217904950352395,796.0,12.770424847314725,0.6717524963872035,11.97909370932291,-0.10745584829445805,0.059,0.9999999999941058,4130.116681761153,1.579596441368434,318,2026-10-07 23:02:08.998244,55.2,0.04789725216366369,0.39446206250395527,0.44878485223382175
0082,cdot_cos,T,S-T,319,63,53145,-0.16645103007905326,-0.16910589414746818,-0.17880121004427066,5.1709010629873605e-05,796.0,12.790493064408397,0.6717525530220156,11.997915013064278,-0.08159066290663923,0.231,0.9999999999940136,456701.1771604277,1.5845641967893798,319,2026-10-07 23:02:09.229243,55.2,0.7283223172968843,0.2791266317737643,0.08687539867390145
0082,cdot_cos,P,T-P,320,64,53482,0.05464963753045642,0.0032355203379694965,0.2211006676095097,0.9999949934417682,799.0,12.899381351194204,0.6728468716841562,12.03628189537139,-0.4441749217634026,0.337,0.9999999999940142,-331.3333413756375,1.5895323054558437,320,2026-10-07 23:02:09.566243,55.2,0.4420600201945591,0.1931775423142914,0.32311064328132894
0082,cdot_cos,Q,P-Q,321,64,53621,-0.023563020218066378,-0.026605321163701717,-0.0782126577485228,0.01315983487732472,799.0,12.920694727928229,0.6728612603120938,12.05533229721949,-0.08737994291619035,0.139,0.9999999999939154,24797.01194550037,1.5944997612198906,321,2026-10-07 23:02:09.705244,55.2,0.016852446098540044,0.46418118756687243,0.153333645568522
0082,cdot_cos,R,Q-R,322,64,53655,0.04995493521792785,0.25352738291469146,0.07351795543599422,0.9830132862226554,799.0,13.028423721337795,0.6739351412993132,12.0933657088928,-0.44311949286088276,0.034,0.9999999999939136,-331.26533962186306,1.5994668692267426,322,2026-10-07 23:02:09.739244,55.2,0.448069345675693,2.1069040923204265,3.1684998061637053
0082,cdot_cos,S,R-S,323,64,53713,0.021444481814411786,-0.031284702753670915,-0.028510453403516062,0.17167861298380843,799.0,13.063964206206018,0.674122502815069,12.115496929961079,-0.14695162286387542,0.058,0.9999999999938357,1580.7294726574673,1.6044340590930912,323,2026-10-07 23:02:09.797244,55.2,0.13326566273463927,0.4806015490199502,0.6127669804866039
0082,cdot_cos,T,S-T,324,64,53945,-0.17281791922433698,-0.09163652501942354,-0.19426240103874876,2.2025568758737312e-05,799.0,13.08417350102411,0.6741225268491132,12.134237529965375,-0.0837393617231049,0.232,0.999999999993742,2630113.3765374757,1.6094018342359881,324,2026-10-07 23:02:10.029243,55.2,0.4700721177610914,0.2800283655283711,0.08710902938832411
0082,cdot_cos,P,T-P,325,65,54281,0.05168114526377001,0.002577763445834603,0.224499064488107,0.9999958497936828,801.0,13.193897367811182,0.675212765480316,12.172603663429499,-0.45611851671114945,0.336,0.9999999999937431,-341.55747588694936,1.614369965143452,325,2026-10-07 23:02:10.365243,55.2,0.4420161915341103,0.19449350921544156,0.3265591273424792
0082,cdot_cos,Q,P-Q,326,65,54422,-0.036347232860812914,-0.03830893143386389,-0.08802837812458292,0.00769723974649957,801.0,13.214873139216886,0.675221150000891,12.191468349128286,-0.08762830318091015,0.141,0.9999999999936413,43948.87104535517,1.6193374360609214,326,2026-10-07 23:02:10.506243,55.2,0.01491853885597847,0.46144195094291607,0.14876433621066473
0082,cdot_cos,R,Q-R,327,65,54454,0.0463749297260612,0.22559893392496055,0.08272216258687412,0.9897102439445774,801.0,13.324023997977084,0.6762982935035717,12.229630877948674,-0.4574428072082068,0.032,0.999999999993641,-343.32890938572575,1.6243045364192321,327,2026-10-07 23:02:10.538244,55.2,0.4455531308927587,3.260828524773135,3.410964336256206
0082,cdot_cos,S,R-S,328,65,54495,0.08250984136233265,-0.09061938711271832,0.03613491163627145,0.8802339135710707,801.0,13.423566164802367,0.6772547221757912,12.265637918884067,-0.4198046100024275,0.041,0.9999999999936322,39.352853274920484,1.6292716697195357,328,2026-10-07 23:02:10.579243,55.2,0.9142452068129403,1.463436831460519,2.4278577274459034
0082,cdot_cos,T,S-T,329,65,54742,-0.07837336574726704,-0.03836714383110698,-0.1608832071095997,0.0001390200956572183,801.0,13.444025818156847,0.6772548731128916,12.284324034446906,-0.08667291245453289,0.247,0.9999999999935382,2207089.554011576,1.6342395204006201,329,2026-10-07 23:02:10.826244,55.2,0.02141742818792946,0.26517384797524557,0.08283260467401021
0082,cdot_cos,P,T-P,330,66,55082,0.04242070605067552,-0.0009131749151816973,0.12079407179794256,0.9987304631203003,781.0,13.554562045702138,0.6783382611917999,12.322660160292353,-0.46971548295213744,0.34,0.9999999999935383,-353.55989045365015,1.6392077006788575,330,2026-10-07 23:02:11.166244,55.2,0.4424278642429425,0.19363066789751068,0.3251065516037964
0082,cdot_cos,Q,P-Q,331,66,55211,-0.04806408666165591,-0.04490652458188857,-0.09048479271233142,0.006727773215642893,781.0,13.575694672327154,0.6783455527611213,12.341450038952116,-0.09023861687963278,0.129,0.9999999999934357,52043.23642051992,1.6441751419425854,331,2026-10-07 23:02:11.295244,55.2,0.014916903854062148,0.5113011507397086,0.1638188110466393
0082,cdot_cos,R,Q-R,332,66,55244,0.06135753481478256,0.2316448725189481,0.10942162147643847,0.9976242736540085,781.0,13.686477742592983,0.679425815889452,12.379762105110244,-0.47451274685630546,0.033,0.999999999993436,-355.7227122714986,1.649142245835877,332,2026-10-07 23:02:11.328243,55.2,0.44493419343164287,3.0177357645578997,3.3570627353281313
0082,cdot_cos,S,R-S,333,66,55286,0.08105753557857631,-0.09999922865043881,0.019700000763793753,0.7478993584085435,781.0,13.774865232787976,0.6802344096811781,12.413147681963142,-0.38084336755835335,0.042,0.9999999999934136,115.84231817806877,1.6541093836408691,333,2026-10-07 23:02:11.370244,55.2,0.7819593651862087,1.298374290816235,2.1044640522617386
0082,cdot_cos,T,S-T,334,66,55538,-0.08697210279959147,-0.044929325569258785,-0.16802963837816778,9.370774163694161e-05,781.0,13.795541183021546,0.6802345109258773,12.431773913251785,-0.08944239935223494,0.252,0.9999999999933179,2878184.937744028,1.6590772761624,334,2026-10-07 23:02:11.622243,55.2,0.03846627040792609,0.2623036505783063,0.08204742156178856
0082,cdot_cos,P,T-P,335,67,55863,0.0599569765217843,0.0019837226373770004,0.14692907932137578,0.9996997170936601,793.0,13.907066272679442,0.6813136488433739,12.470122326417059,-0.48389060758524616,0.325,0.9999999999933188,-365.5215907416754,1.6640454365862831,335,2026-10-07 23:02:11.947244,55.2,0.4425685651041978,0.20493214102923654,0.3431541220242943
0082,cdot_cos,Q,P-Q,336,67,55999,-0.02277288423827308,-0.02344580398590518,-0.08272986076005738,0.010285429427721442,793.0,13.92874707469055,0.6813247414980519,12.488924557029133,-0.09452055171708822,0.136,0.9999999999932146,35101.61157721236,1.6690129140221908,336,2026-10-07 23:02:12.083244,55.2,0.016253903790242955,0.4866970196537002,0.15941766184638317
0082,cdot_cos,R,Q-R,337,67,56033,0.05549025159173451,0.2553228979666189,0.07826313583000759,0.9868763019617725,793.0,14.039447862025249,0.6823881130649254,12.527016511483875,-0.4840461022490059,0.034,0.9999999999932133,-366.31179793266557,1.6739800214503333,337,2026-10-07 23:02:12.117243,55.2,0.447209459770151,2.1049540249047762,3.255905509844069
0082,cdot_cos,S,R-S,338,67,56072,0.020610156885054166,-0.030029901378547035,-0.03488009470668035,0.1272626902682286,793.0,14.071883948384075,0.6825251020829417,12.548107298562806,-0.14252200395446996,0.039,0.9999999999931273,2493.076476056872,1.6789471485004526,338,2026-10-07 23:02:12.156243,55.2,0.0910551129644568,0.6825844720123925,0.8316945220211909
