record_id,input,event,transition,event_index,k,peak,value_cos,value_sin,value_return,x_input,rr,knowledge,decision,decision_norm,entropy,delta_t,cosine_similarity,delta_h_over_delta_d,frobenius_norm,matrix_size,timestamp,scale,P,zdot,zdot_back
0420,cdot_cos,Q,P-Q,1,0,1485,-0.020732464144882737,-0.012673339418017302,-0.06427279175010205,0.1670306116705077,913.0,0.0008296646880286435,0.5002074161601093,0.5002074161601093,,,1.0,,0.004967141530112327,1,2026-10-07 23:16:17.569243,25.0,,,
0420,cdot_cos,R,Q-R,2,0,1515,0.0627216030277677,0.0785082060680504,0.08345406717265044,0.8895695398132694,913.0,0.007422192280989387,0.5013120676116071,0.7089623249976327,-9.81036597997748e-06,,1.0,,0.009934283060224654,2,2026-10-07 23:16:17.599244,25.0,,,
0420,cdot_cos,S,R-S,3,0,1566,-0.0006417719217511106,-0.002131045751177431,-0.06336337494951881,0.17021781263624136,913.0,0.010554733901868068,0.5015234399005679,0.8686640790944999,-1.0155301117470019e-05,0.051,1.0000000000000002,-0.0016318843836546587,0.014901424597157641,3,2026-10-07 23:16:17.650244,25.0,0.9666043515196204,0.046769533033346425,0.061422384723111394
0420,cdot_cos,T,S-T,4,0,1795,-0.30338448817357394,0.11845867148010034,-0.3027427162518228,0.0005161649337591339,913.0,0.012192684650390723,0.5015240808606848,1.0030481617220937,-6.719136661018501e-06,0.229,1.0,5.360964537427823,0.01986856616558914,4,2026-10-07 23:16:17.879244,25.0,0.5996556545601902,0.030964786540697894,0.007152623355994124
0420,cdot_cos,P,T-P,5,1,2294,0.0396223353463367,0.001936643835797362,0.34300682351991063,0.9998113013584191,998.0,0.024736606137507704,0.5027656084357256,1.1242180772170376,-8.353636225031336e-05,0.499,1.0,-0.06187315298797905,0.024835707867499897,5,2026-10-07 23:16:18.378243,25.0,0.3986919065449229,0.017884992196664045,0.025138119212659283
0420,cdot_cos,Q,P-Q,6,1,2406,-0.006049147099971395,-0.005165952120879346,-0.045671482446308094,0.24199240552401438,998.0,0.03004190686266144,0.5030661008387983,1.2322552539652447,-5.240689938956578e-05,0.112,1.0,0.10359484147495535,0.029802849447183057,6,2026-10-07 23:16:18.490243,25.0,0.552116884040224,0.08271180064786614,0.047368756474586916
0420,cdot_cos,R,Q-R,7,1,2435,0.05540979305936881,0.07078568494680876,0.061458940159340204,0.8229514915672058,998.0,0.04326404948262972,0.5040879773125875,1.3336914268954239,-0.0001747819664731235,0.029,1.0000000000000002,-0.11975524461365367,0.03476999097358315,7,2026-10-07 23:16:18.519244,25.0,0.4965066364526726,0.32568374660787613,0.4559359524126993
0420,cdot_cos,S,R-S,8,1,2465,-0.0023873944073147173,-0.004394124995413973,-0.057797187466683525,0.1907831189222141,998.0,0.048931564165918255,0.5043248722287947,1.426446148328016,-9.422257544989857e-05,0.03,1.0,0.34006382371136185,0.039737132522177705,8,2026-10-07 23:16:18.549243,25.0,0.4252873029322272,0.1445948103544923,0.18891715610961785
0420,cdot_cos,T,S-T,9,1,2715,-0.2391164243933735,0.1434502505424685,-0.23672902998605877,0.0026827521042770146,998.0,0.051939738103899256,0.5043282033817016,1.512984610184489,-5.471703799385065e-05,0.25,1.0,11.859418814075125,0.04470427448114364,9,2026-10-07 23:16:18.799244,25.0,0.4857811800862411,0.04301227453848129,0.012032695751924005
0420,cdot_cos,P,T-P,10,2,3292,0.029384426845905046,0.0009166844984381429,0.2685008512392785,0.9987858804780012,1000.0,0.0704377014351589,0.5055683589770492,1.5987475274071687,-0.00040818398489980196,0.577,1.0,-0.2850182253194381,0.04967141734012693,10,2026-10-07 23:16:19.376243,25.0,0.42065171764054954,0.021796246669697438,0.03205886192592659
0420,cdot_cos,Q,P-Q,11,2,3404,-0.027260282732248023,-0.016359128633847173,-0.05664470957815307,0.19527092111095942,1000.0,0.0770926067607301,0.5058108121495186,1.677584679145488,-0.00017703087763570007,0.112,0.9999999999999998,0.9533927929661239,0.05463855905395168,11,2026-10-07 23:16:19.488243,25.0,0.27097682578670984,0.11231682140663005,0.05941879754974284
0420,cdot_cos,R,Q-R,12,2,3433,0.05100762548520663,0.06409220483144623,0.07826790821745466,0.8761751238153971,1000.0,0.09559666943024403,0.506898657432561,1.7559484583205804,-0.0005761483587581803,0.029,1.0000000000000002,-0.36688809276835793,0.05960570051891756,12,2026-10-07 23:16:19.517244,25.0,0.5002066989769831,0.449455960578306,0.6380711265349631
0420,cdot_cos,S,R-S,13,2,3463,-0.0033499677902681865,-0.006147093080992971,-0.05435759327547482,0.2044126614080811,1000.0,0.10316105247427185,0.5071524439662005,1.8285641416022147,-0.0002710773279563372,0.03,0.9999999999999999,1.2020772986922645,0.06457284203719797,13,2026-10-07 23:16:19.547244,25.0,0.32452190695870065,0.19266192756178224,0.2521461014675939
0420,cdot_cos,T,S-T,14,2,3714,-0.211691899512007,0.11886694249210884,-0.20834193172173882,0.005439854323435593,1000.0,0.10715638508395096,0.5071591977141755,1.8976159588226835,-0.0001515038701984326,0.251,1.0,17.70475567059595,0.06953998476033435,14,2026-10-07 23:16:19.798244,25.0,0.4541882198595289,0.05368341711022217,0.015917659799518393
0420,cdot_cos,P,T-P,15,3,4292,0.030598981054839287,0.00029837119974328183,0.2422908805668463,0.9976646886507787,963.0,0.13011012786360338,0.5083977826724675,1.969016146264521,-0.0009818654590631418,0.578,0.9999999999999998,-0.6704114911986174,0.07450712974273992,15,2026-10-07 23:16:20.376243,25.0,0.4292576607042751,0.02652338387422288,0.03971235775026369
0420,cdot_cos,Q,P-Q,16,3,4402,-0.03193948607469457,-0.020006853678778247,-0.06253846712953386,0.17315047976145398,963.0,0.1378174168425526,0.508612736187428,2.034450946210965,-0.00037228426217211373,0.11,0.9999999999999998,2.8358745238620515,0.07947427169402739,16,2026-10-07 23:16:20.486243,25.0,0.1944835076025849,0.13697293425332316,0.07006626344499303
0420,cdot_cos,R,Q-R,17,3,4432,0.05085876616897701,0.06389378302266517,0.08279825224367159,0.8879486141531688,963.0,0.16024417339933447,0.50971500696563,2.101608814296269,-0.0012050166474464614,0.03,1.0,-0.7554698915566537,0.0844414130684884,17,2026-10-07 23:16:20.516243,25.0,0.5010473491851765,0.5197018284535814,0.7475585518927288
0420,cdot_cos,S,R-S,18,3,4459,-0.005852013925623617,-0.010833416866425761,-0.05671078009460063,0.19501149341514115,963.0,0.1689995265497675,0.5099570756682026,2.163564639545827,-0.0005196410239483438,0.027,0.9999999999999996,2.8313268762721457,0.08940855448714433,18,2026-10-07 23:16:20.543243,25.0,0.2674184655693977,0.25152262235091044,0.3242723389049267
0420,cdot_cos,T,S-T,19,3,4711,-0.19369970950981788,0.09226109119409531,-0.18784769558419426,0.009047372112620156,963.0,0.17382639500628363,0.5099683061021547,2.2229003123679596,-0.00029829846243841586,0.252,0.9999999999999994,19.709172633355106,0.09437569834705826,19,2026-10-07 23:16:20.795244,25.0,0.4761524966471453,0.062471104929164405,0.01915423990681009
0420,cdot_cos,P,T-P,20,4,5255,0.036066124180556346,-0.0013458169739481564,0.22976583369037423,0.9968087487458595,993.0,0.20048496343406635,0.5112055730458726,2.2861808259440606,-0.0017986066655061922,0.544,0.9999999999999997,-1.2125986317548643,0.09934284599531772,20,2026-10-07 23:16:21.339243,25.0,0.4342433221459006,0.032911368203151076,0.04900472137460058
0420,cdot_cos,Q,P-Q,21,4,5360,-0.023399134693706306,-0.013236424765190845,-0.059465258874262655,0.18442786346702075,993.0,0.209633963611312,0.5114344754777453,2.3436872007515475,-0.0006763022150438402,0.105,0.9999999999999997,4.902981769481844,0.10430998825379556,21,2026-10-07 23:16:21.444243,25.0,0.19023943907469892,0.16549797673065117,0.08713333502138718
0420,cdot_cos,R,Q-R,22,4,5390,0.05913998178397236,0.06515769087122697,0.08253911647767867,0.8873024188607754,993.0,0.2352395385475031,0.5125356811229816,2.4040054403748505,-0.0020529697526262616,0.03,0.9999999999999996,-1.2501457321234568,0.10927712952004243,22,2026-10-07 23:16:21.474244,25.0,0.5114150911381571,0.5827072155782529,0.853519164539703
0420,cdot_cos,S,R-S,23,4,5410,-0.004044617006176142,-0.006241080374714029,-0.0631845987901485,0.17085001860638335,993.0,0.24459639654600718,0.5127477045529149,2.4590516091983847,-0.0008091424194835045,0.02,0.9999999999999992,5.866461709135651,0.11424427071001408,23,2026-10-07 23:16:21.494244,25.0,0.21497859472572392,0.3662402213387095,0.46784289992520406
0420,cdot_cos,T,S-T,24,4,5670,-0.26933289165755664,0.16955813857016264,-0.2652882746513805,0.001315520002514838,993.0,0.24988914740105148,0.5127493370844266,2.5119484878231773,-0.00047166878998441,0.26,0.9999999999999993,206.71798802632745,0.11921141622080152,24,2026-10-07 23:16:21.754244,25.0,0.48895316408973016,0.06783022864021405,0.020356734057862685
0420,cdot_cos,P,T-P,25,5,6248,0.044816161336607846,0.00013334801305136217,0.3141490529941645,0.9996118483917749,1040.0,0.2798681154389185,0.5139897523217745,2.5699487670850742,-0.0028617917593065684,0.578,0.9999999999999991,-1.9268732738502143,0.12417856829667209,25,2026-10-07 23:16:22.332243,25.0,0.43379461333617353,0.03562350480220507,0.05186672670911248
0420,cdot_cos,Q,P-Q,26,5,6359,-0.005011958778697507,-0.003967396009633936,-0.04982812011530535,0.2234448558226665,1040.0,0.29106991895240053,0.5142670013256685,2.622257483405622,-0.0011524119049797314,0.111,0.9999999999999991,6.165504042640991,0.12914571110958545,26,2026-10-07 23:16:22.443244,25.0,0.2268862897021115,0.17269630119001259,0.10091714877010852
0420,cdot_cos,R,Q-R,27,5,6389,0.06030726211774132,0.06714254980608551,0.06531922089643882,0.8365775314695328,1040.0,0.3182066943031013,0.5153049422272884,2.677603033000549,-0.0029788606673363544,0.03,0.999999999999999,-1.759684736872881,0.13411285220221966,27,2026-10-07 23:16:22.473243,25.0,0.5416492173177331,0.6258030285550128,0.9045591783566916
0420,cdot_cos,S,R-S,28,5,6416,-0.0020058487000127025,-0.003232646925239256,-0.06231311081775402,0.17395856882012548,1040.0,0.3286181006657013,0.5155207561652813,2.7278794420792174,-0.001213282494995236,0.027,0.9999999999999982,8.18102013596331,0.13907999333785812,28,2026-10-07 23:16:22.500243,25.0,0.23335186410915287,0.3025442031479987,0.38560764305925993
0420,cdot_cos,T,S-T,29,5,6669,-0.22185553037132602,0.16940077178157462,-0.21984968167131333,0.0040853992937489895,1040.0,0.3345440812730932,0.5155258244644089,2.7761915362109706,-0.0007080200865446265,0.253,0.9999999999999984,99.69072379692328,0.14404714056167214,29,2026-10-07 23:16:22.753243,25.0,0.48986412445137495,0.07667656251978595,0.023422848250560915
0420,cdot_cos,P,T-P,30,6,7288,0.027764317776114218,0.0005069743557219745,0.24961984814744023,0.9980549025402072,1018.0,0.367416441300713,0.516763901617567,2.830432469368013,-0.004156613600980109,0.619,0.9999999999999987,-2.7854431411149267,0.149014298750541,30,2026-10-07 23:16:23.372243,25.0,0.43619573453117005,0.03564171135772363,0.053105589705363145
0420,cdot_cos,Q,P-Q,31,6,7398,-0.030954027557901612,-0.018430024320125447,-0.058718345334015834,0.18725308994756218,1018.0,0.37866851993395506,0.5169961647411793,2.8785128382007876,-0.0015121799949412333,0.11,0.9999999999999978,11.385507802149855,0.15398144205541273,31,2026-10-07 23:16:23.482244,25.0,0.1739902795837762,0.1911903825882355,0.10229162393856427
0420,cdot_cos,R,Q-R,32,6,7430,0.04906953239979938,0.061161289462206676,0.080023559957701,0.8808589052196946,1018.0,0.4094783254701248,0.5180886555627842,2.9307520301385392,-0.004373326226926766,0.032,0.999999999999998,-2.6189201551207875,0.15894858297278713,32,2026-10-07 23:16:23.514244,25.0,0.519843968275922,0.6742914906408496,0.9628064230053045
0420,cdot_cos,S,R-S,33,6,7458,-0.0038952208748671753,-0.006774151991941975,-0.05296475327466656,0.21013384339920743,1018.0,0.42182317533496944,0.5183492502349342,2.977689758156893,-0.0018481773164107367,0.028,0.9999999999999973,9.689948338861228,0.16391572390098974,33,2026-10-07 23:16:23.542243,25.0,0.25505107127703647,0.3353201528640439,0.44088749517302256
0420,cdot_cos,T,S-T,34,6,7727,-0.23494512770370404,0.14444852376445685,-0.23104990682883686,0.003090744737701481,1018.0,0.42825625403051126,0.5183530831064933,3.022491909633589,-0.000984866544978867,0.269,0.9999999999999968,225.23863847544862,0.1688828739554773,34,2026-10-07 23:16:23.811244,25.0,0.41620539567428694,0.07812933875099802,0.023914790689746567
0420,cdot_cos,P,T-P,35,7,8306,0.03128546431805002,0.000577528213024193,0.2662305920217541,0.9987150693839584,981.0,0.4638567595830064,0.5195914866300078,3.0739447102918502,-0.005718647202610864,0.579,0.9999999999999969,-3.8224864252631066,0.1738500369545067,35,2026-10-07 23:16:24.390244,25.0,0.4370184769218966,0.04109460255522646,0.06148619266406755
0420,cdot_cos,Q,P-Q,36,7,8417,-0.028981847420688253,-0.01766449702709501,-0.060267311738738276,0.18143092339732944,981.0,0.4758438037894635,0.5198164350101261,3.118898638264615,-0.002028165707590737,0.111,0.9999999999999956,16.405903848157717,0.17881718098214827,36,2026-10-07 23:16:24.501244,25.0,0.16208808283862283,0.20358459466503356,0.10799138924736154
0420,cdot_cos,R,Q-R,37,7,8447,0.05143219454172076,0.064135512162547,0.080414041962409,0.8818795951629301,981.0,0.5090525395986438,0.520909723397983,3.1685701766548613,-0.005887992282269987,0.03,0.9999999999999953,-3.5304743172524424,0.18378432158126912,37,2026-10-07 23:16:24.531244,25.0,0.5191605714718039,0.7678130061371552,1.1069578603060108
0420,cdot_cos,S,R-S,38,7,8474,-0.004817005863954362,-0.008749216970055861,-0.05624920040567512,0.19682936377194873,981.0,0.5219125841576928,0.5211537107599413,3.212607261905332,-0.002386673170562001,0.027,0.9999999999999952,14.35041177381323,0.18875146221237288,38,2026-10-07 23:16:24.558244,25.0,0.2306095750747837,0.3663552321117735,0.47629794663144404
0420,cdot_cos,T,S-T,39,7,8726,-0.2339909766052469,0.1173524316775712,-0.22917397074129253,0.00323866784649952,981.0,0.5288357221326796,0.5211577252903984,3.254628980994822,-0.0013095072100826493,0.252,0.9999999999999946,268.3167986891263,0.19371861422168463,39,2026-10-07 23:16:24.810244,25.0,0.43929965032480994,0.08936444671524907,0.027472769742011037
0420,cdot_cos,P,T-P,40,8,9287,0.03742194956779756,-0.0015891354849221287,0.27141292617304447,0.9988710336038126,956.0,0.5669522653021783,0.5223957552100323,3.303920886961102,-0.007517135914118024,0.561,0.9999999999999946,-5.014118484204948,0.1986857832051207,40,2026-10-07 23:16:25.371244,25.0,0.43788583400055703,0.04529939097780205,0.06794392721835783
0420,cdot_cos,Q,P-Q,41,8,9393,-0.02373465822507335,-0.014186889816842645,-0.06115660779287091,0.17815246117637384,956.0,0.5796616388097735,0.5226165340989177,3.3463786405953315,-0.0026226262793106643,0.106,0.999999999999993,22.169282849087317,0.20365292778546235,41,2026-10-07 23:16:25.477243,25.0,0.1547007438855846,0.22782182152220684,0.11989975007165242
0420,cdot_cos,R,Q-R,42,8,9425,0.05879767144375848,0.06866413204260147,0.08253232966883182,0.8872854512604735,956.0,0.6152504914648862,0.523715986479008,3.394067553910752,-0.007651671830201748,0.032,0.999999999999993,-4.574136762956776,0.2086200682665923,42,2026-10-07 23:16:25.509243,25.0,0.5182756992464203,0.7557473738887109,1.1121516454722715
0420,cdot_cos,S,R-S,43,8,9441,-0.004972509110463739,-0.008090889895166218,-0.06377018055422222,0.168786158335697,956.0,0.628029470738651,0.5239251069451549,3.4356067262404637,-0.0028586048898316344,0.016,0.9999999999999923,22.920123642999815,0.21358720793347058,43,2026-10-07 23:16:25.525243,25.0,0.18698713997898112,0.6279313827708028,0.7986862046103007
0420,cdot_cos,T,S-T,44,8,9705,-0.2613588917119899,0.13097932405957058,-0.25638638260152613,0.0016428811213529836,956.0,0.6353442957135519,0.5239271423794055,3.4753395434880154,-0.0016627411946582395,0.264,0.9999999999999913,587.5226354405744,0.21855436368511186,44,2026-10-07 23:16:25.789243,25.0,0.48713588730944307,0.09052844668328282,0.027707670359473028
0420,cdot_cos,P,T-P,45,9,10243,0.04507016692624958,0.002065117353956893,0.3064290586382395,0.9995292565574107,1019.0,0.6758284905874243,0.5251653511746681,3.5229163260617486,-0.009548352489514366,0.538,0.9999999999999915,-6.368563464438778,0.22352153865675153,45,2026-10-07 23:16:26.327244,25.0,0.43785786389696385,0.05142934464865553,0.07524943285106403
0420,cdot_cos,Q,P-Q,46,9,10356,-0.005734878837386791,-0.004694916058785343,-0.05080504576363637,0.21923565906441264,1019.0,0.6906822705555052,0.5254368977009849,3.5636864907603933,-0.003650977198267934,0.113,0.9999999999999896,21.717734235961842,0.22848868464287986,46,2026-10-07 23:16:26.440243,25.0,0.1988336359159935,0.22435320568883335,0.13144938024850358
0420,cdot_cos,R,Q-R,47,9,10383,0.05868899646481962,0.06976074879540305,0.06442387530220642,0.8334942392259845,1019.0,0.7265323150731007,0.5264691297016906,3.609290578750804,-0.009136735709736239,0.027,0.9999999999999891,-5.314462744536109,0.23345582451465027,47,2026-10-07 23:16:26.467244,25.0,0.548588409221303,0.9204318417187825,1.3277794265776088
0420,cdot_cos,S,R-S,48,9,10412,-0.0021977671197351356,-0.0037443491580533535,-0.060886763584554755,0.179142331986095,1019.0,0.7403855900083195,0.5266909573668104,3.649022060029733,-0.003654293873325112,0.029,0.9999999999999885,24.714869687017064,0.23842296475942606,48,2026-10-07 23:16:26.496243,25.0,0.22306904612636463,0.37383912353952375,0.47769913569720057
0420,cdot_cos,T,S-T,49,9,10664,-0.21807812268058363,0.14175530303547704,-0.2158803555608485,0.004509681405696005,1019.0,0.748214984238393,0.5266965414618388,3.686875858328946,-0.002095805768970769,0.252,0.9999999999999875,279.0941229392579,0.2433901230513117,49,2026-10-07 23:16:26.748243,25.0,0.47538874719836466,0.10018607525013011,0.03106902472251413
0420,cdot_cos,P,T-P,50,10,11262,0.040287881485291575,-0.0021073610796600883,0.2583660041658752,0.9984363227268451,999.0,0.7908793719343851,0.5279326843235066,3.733047886741425,-0.011804777007527238,0.598,0.9999999999999869,-7.854246899469866,0.2483573111717832,50,2026-10-07 23:16:27.346244,25.0,0.43934899046172665,0.04829186798375298,0.07134512992640805
0420,cdot_cos,Q,P-Q,51,10,11353,-0.014264513599890602,-0.008656491883839188,-0.05455239508518218,0.20362179511419815,999.0,0.8059720583469616,0.52818474260591,3.77199363156727,-0.004332448765448546,0.091,0.9999999999999847,29.64523986607374,0.25332445619244737,51,2026-10-07 23:16:27.437243,25.0,0.17822018254123997,0.29567737122301785,0.16585369684150056
0420,cdot_cos,R,Q-R,52,10,11387,0.058843607841546595,0.06088104565801485,0.07310812144143719,0.8614878656183004,999.0,0.8446926534969743,0.529250996165033,3.8164833061535868,-0.011486733014723138,0.034,0.9999999999999843,-6.709740087675533,0.25829159631085674,52,2026-10-07 23:16:27.471244,25.0,0.5364240983676202,0.7808756076372357,1.1388410338239026
0420,cdot_cos,S,R-S,53,10,11412,-0.003430975479880622,-0.004822076108699048,-0.06227458332142722,0.17409701941500078,999.0,0.8590715996662937,0.529466441925206,3.8545739779243715,-0.004402609276003685,0.025,0.9999999999999827,32.88123996049996,0.26325873581027476,53,2026-10-07 23:16:27.496243,25.0,0.2000728129757462,0.4522677514032436,0.5751578467727736
0420,cdot_cos,T,S-T,54,10,11682,-0.2185232481224124,0.1494843006562822,-0.21509227264253178,0.004598999846294714,999.0,0.8673060410671365,0.5294721330574724,3.8908097752017947,-0.002554717871784064,0.27,0.9999999999999809,324.6966188280711,0.26822589951216835,54,2026-10-07 23:16:27.766243,25.0,0.4851364734883877,0.09817828055857575,0.03049793111423274
0420,cdot_cos,P,T-P,55,11,12261,0.0460853870011715,-0.0038719888927578527,0.2646086351235839,0.9986619672046482,939.0,0.9120878711679246,0.5307077649926865,3.935834232596533,-0.014315854992278883,0.579,0.9999999999999809,-9.518317538836996,0.27319309567746153,55,2026-10-07 23:16:28.345243,25.0,0.4397511591215857,0.05245898651484727,0.07734340259203466
0420,cdot_cos,Q,P-Q,56,11,12352,-0.00752812109746027,-0.005296044745114976,-0.05361350809863177,0.20745452899811867,939.0,0.9280535474513296,0.5309643991651167,3.973373865281725,-0.005277816337929348,0.091,0.9999999999999784,35.21759619446336,0.2781602414396499,56,2026-10-07 23:16:28.436243,25.0,0.18042177576088186,0.30728695079169693,0.17544699212533035
0420,cdot_cos,R,Q-R,57,11,12382,0.06049258137160974,0.0654079235531422,0.06802070246907001,0.8456023193643778,939.0,0.9680140962120134,0.5320102910491037,4.016589751139179,-0.013607744572514475,0.03,0.9999999999999768,-7.964425732831272,0.28312738079827937,57,2026-10-07 23:16:28.466244,25.0,0.5421860156311356,0.9114773681559034,1.3320182920227928
0420,cdot_cos,S,R-S,58,11,12411,-0.004122220627679663,-0.006374400339146354,-0.0646148019992894,0.1658443870438299,939.0,0.9827421895406838,0.5322153846792266,4.05323174932131,-0.0051597355551475516,0.029,0.9999999999999756,41.19098683028357,0.28809452030977056,58,2026-10-07 23:16:28.495244,25.0,0.19450547647997501,0.4022584638147779,0.5078652871955318
0420,cdot_cos,T,S-T,59,11,12681,-0.22115586868412151,0.11090471953512164,-0.21703364805644185,0.004382075072596822,939.0,0.9913450871132705,0.5322208036823654,4.088065699653617,-0.003049919626332255,0.27,0.9999999999999735,389.3365393570906,0.29306168831801577,59,2026-10-07 23:16:28.765243,25.0,0.5006934923745148,0.10260308473525818,0.03186258360217296
0420,cdot_cos,P,T-P,60,12,13200,0.055064662808596496,0.0018982909798816328,0.276220531492718,0.998998758981504,963.0,1.0381478552977232,0.5334559940906863,4.1321325118578605,-0.01705276631728748,0.519,0.9999999999999731,-11.336589562729465,0.2980288876528723,60,2026-10-07 23:16:29.284243,25.0,0.43992628431826775,0.06024951410743187,0.09017874409335785
0420,cdot_cos,Q,P-Q,61,12,13312,-0.004635232534777712,-0.004109897940095961,-0.05969989534337421,0.18354717966610096,963.0,1.0538840827567848,0.5336828928843865,4.168196817709099,-0.0059098724368122964,0.112,0.9999999999999695,49.109533368425986,0.3029960370067504,61,2026-10-07 23:16:29.396243,25.0,0.15175754456738255,0.2525235241317306,0.14050203088447819
0420,cdot_cos,R,Q-R,62,12,13340,0.05709832717683372,0.07592364927987061,0.06173355971161143,0.8239495923816664,963.0,1.094713124703231,0.5347012763438587,4.2102422417324545,-0.01574388175628771,0.028,0.9999999999999684,-9.656489633652045,0.30796317573938264,62,2026-10-07 23:16:29.424243,25.0,0.5354626253003202,1.0153027719793768,1.4581800695159322
0420,cdot_cos,S,R-S,63,12,13367,-0.0026119427992143053,-0.005014596515760541,-0.059710269976048023,0.1835083149141455,963.0,1.11074103798763,0.5349280494752637,4.24585994646427,-0.006343589628130775,0.027,0.9999999999999659,41.45240694924275,0.31293031462001114,63,2026-10-07 23:16:29.451244,25.0,0.22721537777588804,0.45950802644221,0.593626417940704
0420,cdot_cos,T,S-T,64,12,13620,-0.36324409700069155,0.0896285424660776,-0.36063215420147726,0.00012146002976393237,963.0,1.1195265581311102,0.5349281995665318,4.27942577863193,-0.0035162884696060084,0.253,0.9999999999999637,18837.212815097217,0.3178974849602523,64,2026-10-07 23:16:29.704243,25.0,0.4475091183725781,0.11372026899521835,0.03472537606118707
0420,cdot_cos,P,T-P,65,13,14163,0.035105382113618654,-0.0009288984538458073,0.3983494791143102,0.9999526897833609,974.0,1.1682834940992104,0.536163649805531,4.322689737118095,-0.020010735778711784,0.543,0.9999999999999633,-13.35096047451306,0.3228646978125642,65,2026-10-07 23:16:30.247243,25.0,0.43855067863920016,0.059708345378979594,0.08979177894677745
0420,cdot_cos,Q,P-Q,66,13,14267,-0.02642695097234761,-0.015127138032320039,-0.06153233308596626,0.1767813288095226,974.0,1.184369821212682,0.5363820189423499,4.357588352723338,-0.006788813126636664,0.104,0.9999999999999585,60.54849528959747,0.3278318473322238,66,2026-10-07 23:16:30.351244,25.0,0.14261530487134977,0.294369100041086,0.1546762222449201
0420,cdot_cos,R,Q-R,67,13,14297,0.057386079735189235,0.064154408117319,0.08381303070753685,0.890448037381585,974.0,1.2295122669077563,0.5374817310587937,4.399477813940554,-0.019540617127992405,0.03,0.9999999999999578,-11.595583799324006,0.3327989859533086,67,2026-10-07 23:16:30.381243,25.0,0.5207009523772802,1.0261606524157307,1.5047481898358066
0420,cdot_cos,S,R-S,68,13,14349,-0.0038467750913943398,-0.030813916397000485,-0.061232854826583576,0.1778735412394729,974.0,1.245939460357626,0.5377013632906089,4.433999268984764,-0.007291655219775897,0.052,0.9999999999999548,55.77032936824446,0.3377661284297759,68,2026-10-07 23:16:30.433243,25.0,0.1864000198440581,0.25314433387018154,0.3159075663436471
0420,cdot_cos,T,S-T,69,13,14578,-0.1622416282158253,0.09346595059930697,-0.15839485312443097,0.018708872076005252,974.0,1.2558392776302552,0.5377244635240407,4.466675099896725,-0.004441005643577335,0.229,0.9999999999999516,123.40349653254076,0.3427332996660087,69,2026-10-07 23:16:30.662244,25.0,0.5262953054940551,0.1315098510679944,0.04323064311191803
0420,cdot_cos,P,T-P,70,14,15137,0.03552496359937624,0.0014588961049363822,0.19776659181520154,0.9929255416477069,998.0,1.3061709721467674,0.5389502144982804,4.509181263307504,-0.023113378336318706,0.559,0.9999999999999516,-15.233414523144162,0.3477005269644333,70,2026-10-07 23:16:31.221244,25.0,0.44581110364384124,0.061064570786734565,0.09003880951075528
0420,cdot_cos,Q,P-Q,71,14,15247,-0.01832817277752217,-0.012303488618964985,-0.05385313637689841,0.20647128018685318,998.0,1.3241094677698244,0.5392050413991242,4.543422735479305,-0.00845657058747432,0.11,0.9999999999999463,57.51672095965245,0.3526676788646464,71,2026-10-07 23:16:31.331244,25.0,0.17672052247976147,0.2874401086042422,0.16307723293688225
0420,cdot_cos,R,Q-R,72,14,15277,0.052417385023974965,0.06630239940849914,0.07074555780149713,0.8542883289246607,998.0,1.3694077960397006,0.5402591849967857,4.584251505065062,-0.02186058088249676,0.03,0.9999999999999447,-12.715544945448846,0.3576348170280414,72,2026-10-07 23:16:31.361243,25.0,0.5416371720486783,1.0560190583027855,1.5099442756625412
0420,cdot_cos,S,R-S,73,14,15307,-0.0024596736246942515,-0.004458325365621192,-0.054877058648669215,0.20230877513826837,998.0,1.3874706112679915,0.5405087702202703,4.61810926300729,-0.00892128808526024,0.03,0.9999999999999415,51.84318453065015,0.36260195553673236,73,2026-10-07 23:16:31.391244,25.0,0.23448024882030555,0.46047078892269555,0.6020938409430299
0420,cdot_cos,T,S-T,74,14,15557,-0.2469160767811565,0.13846729645437872,-0.24445640315646225,0.002212515786586176,998.0,1.3970360433750624,0.5405114996548606,4.649656037195806,-0.004771742305635653,0.25,0.9999999999999375,1520.2950070593954,0.36756913531427493,74,2026-10-07 23:16:31.641243,25.0,0.4191157668209805,0.12389666171527791,0.03826172842828335
0420,cdot_cos,P,T-P,75,15,16135,0.0306530565098937,-0.000849800252412848,0.2775691332910502,0.9990319210171378,920.0,1.4494189421256305,0.5417436885641422,4.691638294356079,-0.026701810043718185,0.578,0.9999999999999365,-17.797650646658607,0.372536379277594,75,2026-10-07 23:16:32.219244,25.0,0.43986158792604946,0.05953639989329877,0.09062785250963343
0420,cdot_cos,Q,P-Q,76,15,16206,-0.03649431931982322,-0.020199544031286144,-0.06714737582971692,0.1572697551736441,920.0,1.4658601216517158,0.5419376162776235,4.724502986833106,-0.008582850966447318,0.071,0.9999999999999301,93.43150987557063,0.3775035248956906,76,2026-10-07 23:16:32.290244,25.0,0.12110887719547964,0.4616145804353515,0.23156590881810227
0420,cdot_cos,R,Q-R,77,15,16261,0.05420470968927577,0.06620120881718146,0.09069902900909899,0.9061473324486413,920.0,1.5149682125474504,0.5430547279094977,4.765286283039724,-0.02620247660757811,0.055,0.9999999999999288,-15.77248426960664,0.38247066775175004,77,2026-10-07 23:16:32.345243,25.0,0.5104609021855132,0.6063318248777887,0.8928743799224481
0420,cdot_cos,S,R-S,78,15,16287,-0.007155345881983668,-0.04791518664637594,-0.06136005557125944,0.17740898892938503,920.0,1.5325566223882725,0.5432733899706491,4.798061053673868,-0.009593854319591932,0.026,0.9999999999999246,75.9556651050072,0.3874378049265286,78,2026-10-07 23:16:32.371244,25.0,0.1770765639120664,0.5306740547465836,0.676477301570081
0420,cdot_cos,T,S-T,79,15,16555,-0.22016198646686572,0.08532808628159619,-0.21300664058488206,0.004843964658255286,920.0,1.5425632633942727,0.5432793600732808,4.828772964028512,-0.005507680751726988,0.268,0.9999999999999201,684.439417534692,0.39240499392194367,79,2026-10-07 23:16:32.639244,25.0,0.4762060793050563,0.11959304152945185,0.03733821270895611
0420,cdot_cos,P,T-P,80,16,17055,0.04105901905775645,0.002237509331566833,0.2612210055246222,0.9985438834957997,936.0,1.5966584926480587,0.5445097802050544,4.870243947544299,-0.03038157187806802,0.5,0.9999999999999191,-20.215770600638194,0.3973722350183345,80,2026-10-07 23:16:33.139244,25.0,0.44099735597359513,0.07178028043431395,0.10819045850757192
0420,cdot_cos,Q,P-Q,81,16,17166,-0.021503468353282207,-0.014433526006530872,-0.06256248741103865,0.1730645224084149,936.0,1.6143435438285867,0.5447229779861834,4.902507270552112,-0.010158810730757566,0.111,0.999999999999912,94.85446349495362,0.4023393904519711,81,2026-10-07 23:16:33.250243,25.0,0.13660492724601084,0.2998337309547633,0.15932478541016207
0420,cdot_cos,R,Q-R,82,16,17194,0.05307208314109488,0.07444174563959916,0.07457555149437708,0.865807677311965,936.0,1.6632215809200162,0.5457893167649157,4.942332946239254,-0.02864784764332975,0.028,0.9999999999999101,-17.338801965499716,0.407306527217175,82,2026-10-07 23:16:33.278244,25.0,0.524457917439361,1.2097128196419156,1.7456441818367665
0420,cdot_cos,S,R-S,83,16,17221,-0.004032853490612175,-0.008277462458658328,-0.05710493663170706,0.19346925368957268,936.0,1.682087461728534,0.5460275386862824,4.974548102683792,-0.01128500940927954,0.027,0.9999999999999051,72.88514060519267,0.4122736641259742,83,2026-10-07 23:16:33.305243,25.0,0.2146867193850645,0.5377413260172985,0.6987363262414004
0420,cdot_cos,T,S-T,84,16,17475,-0.26339250387250474,0.09335211504874123,-0.25935965038189257,0.0015253707330280812,936.0,1.6922596125249503,0.5460294168171392,5.004442748136298,-0.006137490545055134,0.254,0.9999999999998993,2740.766888253981,0.41724085606129474,84,2026-10-07 23:16:33.559244,25.0,0.43227172158539534,0.12991265310214908,0.040047837781166586
0420,cdot_cos,P,T-P,85,17,17991,0.0586702852281498,-0.00274079225402948,0.32206278910065456,0.999681500062182,941.0,1.7480830895044257,0.5472600023310104,5.045488430363532,-0.03432461677344637,0.516,0.9999999999998985,-22.905459157991782,0.4222081141755929,85,2026-10-07 23:16:34.075244,25.0,0.4399066455394795,0.07210954383147017,0.10818503290596013
0420,cdot_cos,Q,P-Q,86,17,18084,-0.0016951456485300844,-0.001218524881567902,-0.060365430876679886,0.18106690702597855,941.0,1.7666766617590275,0.5474828302997787,5.0771474737642865,-0.011679078696595294,0.093,0.9999999999998909,101.6278979789568,0.4271752668889069,86,2026-10-07 23:16:34.168243,25.0,0.1438501337338891,0.3721163247869912,0.19993088445808374
0420,cdot_cos,R,Q-R,87,17,18117,0.07488709825834595,0.08721855156883815,0.07658224390687604,0.8715301370389302,941.0,1.817296725914806,0.5485551013234999,5.116581943383671,-0.03240835670298111,0.033,0.9999999999998886,-19.332125505403486,0.43214240450477015,87,2026-10-07 23:16:34.201244,25.0,0.5274888472830205,1.0175353233172184,1.5339413380538962
0420,cdot_cos,S,R-S,88,17,18143,-0.0006570225887366312,-0.0010647036497208565,-0.07554412084708259,0.13140383413780263,941.0,1.833833993097964,0.5487167327482564,5.147419805018179,-0.010785321594538077,0.026,0.9999999999998825,133.7798954691233,0.4371095406447975,88,2026-10-07 23:16:34.227243,25.0,0.13467945843661835,0.5178345297356177,0.6360487378137633
0420,cdot_cos,T,S-T,89,17,18412,-0.5419231002760876,0.07811354659649371,-0.5412660776873509,1.3282433603436838e-06,941.0,1.8442241214610582,0.5487167343819914,5.17658390259966,-0.006826238813993474,0.269,0.9999999999998759,2423332.237453328,0.4420767427676627,89,2026-10-07 23:16:34.496243,25.0,0.5599094995835774,0.12610511867636764,0.0386250125022092
0420,cdot_cos,P,T-P,90,18,18932,0.048047714782379826,-0.002600081119271963,0.5899708150584674,0.9999996069271093,958.0,1.9016785469458497,0.5499464305700138,5.217250554609473,-0.03842457803718607,0.52,0.999999999999875,-25.696053652089205,0.4470440158857421,90,2026-10-07 23:16:35.016243,25.0,0.43939914207835085,0.07437181505464899,0.11048927977844522
0420,cdot_cos,Q,P-Q,91,18,19039,-0.008042454281951515,-0.005956368717294211,-0.05609016906433134,0.19745864337853852,958.0,1.9215708091178931,0.5501891731548844,5.24847089757237,-0.013576983188573637,0.107,0.9999999999998654,102.36191091835934,0.4520111739612416,91,2026-10-07 23:16:35.123244,25.0,0.16039329889105308,0.33206256073603085,0.18590899226208812
0420,cdot_cos,R,Q-R,92,18,19068,0.06229229888419671,0.07107868602946388,0.07033475316614823,0.8530052498480645,958.0,1.9727399349433603,0.5512375253046922,5.287285306836509,-0.03555809138389915,0.029,0.9999999999998626,-20.9672944337981,0.45697830992615424,92,2026-10-07 23:16:35.152243,25.0,0.5389273091080938,1.2076375033150686,1.7644526146712818
0420,cdot_cos,S,R-S,93,18,19121,-0.0009071894187802015,-0.0026651226265297324,-0.06319948830297692,0.17079729374941363,958.0,1.9916137843101671,0.551447382529102,5.31796667640561,-0.013350418950320866,0.053,0.9999999999998566,105.82276829417931,0.46194545353101873,93,2026-10-07 23:16:35.205244,25.0,0.1894852942889491,0.28024479185280005,0.3561103654114492
0420,cdot_cos,T,S-T,94,18,19351,-0.23082014393656725,0.12422677977280122,-0.22991295451778704,0.0031795725765856805,958.0,2.002445882879757,0.5514512890702155,5.346519324038258,-0.007719487425595176,0.23,0.9999999999998483,1441.4110490960416,0.46691265077611144,94,2026-10-07 23:16:35.435244,25.0,0.48217714721439553,0.15170256904032348,0.04709608073734782
0420,cdot_cos,P,T-P,95,19,19890,0.02249260488190143,-0.0006758527573585961,0.25331274881846866,0.998226134404015,937.0,2.061396966068716,0.5526774305095733,5.386834000042184,-0.042723396031369223,0.539,0.9999999999998473,-28.54801859082945,0.47187994484028484,95,2026-10-07 23:16:35.974244,25.0,0.44073356303403677,0.07116079755525007,0.10937121185335585
0420,cdot_cos,Q,P-Q,96,19,19997,-0.04926971347461456,-0.02739174607030842,-0.07176231835651599,0.14257592611221942,937.0,2.0791572226443167,0.5528525074937648,5.416827018563292,-0.013113310021793546,0.107,0.9999999999998365,169.12609128100837,0.47684710474056907,96,2026-10-07 23:16:36.081243,25.0,0.10455754487798267,0.344063920344753,0.16598370631402584
0420,cdot_cos,R,Q-R,97,19,20028,0.04911206091330082,0.05996744116378345,0.09838177438791539,0.9212566157208101,937.0,2.135026645022493,0.5539834524210818,5.456105094669904,-0.04196429736157626,0.031,0.9999999999998342,-25.510514829600787,0.4818142407174965,97,2026-10-07 23:16:36.112243,25.0,0.5028251925642183,1.2515942999616139,1.8022394315540768
0420,cdot_cos,S,R-S,98,19,20080,-0.0018258629134571026,-0.10690225449363612,-0.05093792382675792,0.21866756638661983,937.0,2.1567560692419367,0.5542518095667328,5.48681383079951,-0.016619853397165915,0.052,0.9999999999998268,94.44296295121599,0.4867813841946108,98,2026-10-07 23:16:36.164243,25.0,0.21763195748642422,0.33546734178157694,0.4178735426816093
0420,cdot_cos,T,S-T,99,19,20309,-0.12480231084424474,0.05093081195525537,-0.12297644793078764,0.04417519530241347,937.0,2.169915248567777,0.554306019210047,5.5152761081589325,-0.010146438186898605,0.229,0.999999999999818,119.41445865550313,0.4917485874220439,99,2026-10-07 23:16:36.393243,25.0,0.5283487074271743,0.15850606377199183,0.057463665178342005
0420,cdot_cos,P,T-P,100,20,20827,0.02430075581763303,0.0009675512195619123,0.14910306666187778,0.9765138183211531,919.0,2.229351846449509,0.5555040171120431,5.555041063998477,-0.046572960580392286,0.518,0.9999999999998167,-30.406165430505677,0.49671589143244943,100,2026-10-07 23:16:36.911244,25.0,0.4574265918510993,0.0754839020282337,0.11474246695315048
0420,cdot_cos,Q,P-Q,101,20,20940,-0.04410219778464032,-0.029745881069313408,-0.06840295360227336,0.15315413861592492,919.0,2.248116571069027,0.5556918501392044,5.584634965855683,-0.014963650941921477,0.113,0.9999999999998045,168.28408782086385,0.5016830556166166,101,2026-10-07 23:16:37.024243,25.0,0.12094658936516717,0.3323429065451833,0.16605950990724044
0420,cdot_cos,R,Q-R,102,20,20967,0.04462425084711532,0.06571148370371423,0.08872644863175563,0.9018685804874794,919.0,2.3044613433287204,0.5567976054575843,5.623381171621239,-0.0456620073223476,0.027,0.9999999999998018,-27.7623411528374,0.5066501896316274,102,2026-10-07 23:16:37.051244,25.0,0.5105353612139689,1.484315233644891,2.086843417025676
0420,cdot_cos,S,R-S,103,20,20996,0.00041141236884391835,-0.08792769628893742,-0.0442128384782714,0.24874423459810122,919.0,2.3282695936858513,0.5571024851403207,5.6539737184740595,-0.019631226343049007,0.029,0.9999999999997934,85.38050402592627,0.5116173248728646,103,2026-10-07 23:16:37.080243,25.0,0.26554033446585484,0.6124675171480328,0.8209741502458915
0420,cdot_cos,T,S-T,104,20,21248,-0.18908956361268134,0.05050954534984645,-0.18950097598152527,0.008684229867608674,919.0,2.3399844593233063,0.5571131284111788,5.6814624336117525,-0.009733578525019819,0.252,0.9999999999997833,929.9441825729165,0.5165845434123284,104,2026-10-07 23:16:37.332243,25.0,0.3617304312563555,0.1463255499301059,0.046487562053393064
0420,cdot_cos,P,T-P,105,21,21746,0.06523399856911982,0.0015781188203737927,0.2543235621818012,0.9982703223715852,962.0,2.4020176708506247,0.5583362426743873,5.721245046337076,-0.05232607010020945,0.498,0.9999999999997817,-34.82298658136717,0.5215518570277823,105,2026-10-07 23:16:37.830244,25.0,0.4430900587767657,0.08154234420979391,0.12456468178176372
0420,cdot_cos,Q,P-Q,106,21,21858,-0.003536740639777058,-0.003176324228634212,-0.06877073920889688,0.15196541201969985,962.0,2.421200634156261,0.5585223741091176,5.750340949670698,-0.01645683909169078,0.112,0.9999999999997683,192.70915232821582,0.5265190233741055,106,2026-10-07 23:16:37.942244,25.0,0.11308741238142735,0.33014922899176385,0.1712764580860393
0420,cdot_cos,R,Q-R,107,21,21886,0.06406200210538407,0.08554757610048931,0.06759874274516113,0.8442200263004904,962.0,2.47597109814478,0.5595560972945638,5.7880944568592705,-0.04768376214742063,0.028,0.9999999999997641,-30.208206118790507,0.5314861571582321,107,2026-10-07 23:16:37.970243,25.0,0.5195067864210258,1.3367032395047678,1.9560879995899536
0420,cdot_cos,S,R-S,108,21,21915,-0.0006593828505728122,-0.0013136289015826387,-0.06472138495595688,0.16547609795403845,962.0,2.496056015568528,0.5597586577931296,5.817183792322534,-0.01775169041634234,0.029,0.9999999999997544,147.76855281757935,0.536453291828438,108,2026-10-07 23:16:37.999244,25.0,0.1852306784710028,0.5457585748489305,0.6925833594395964
0420,cdot_cos,T,S-T,109,21,22167,-0.2874170281777777,0.13431266302286857,-0.2867576453272049,0.0007695451172123809,962.0,2.5076250954860178,0.5597595997524892,5.844062974916378,-0.010290214631286236,0.252,0.999999999999743,7921.228988091258,0.5414205176914296,109,2026-10-07 23:16:38.251244,25.0,0.48427420205219185,0.1490682621388547,0.045909047291625704
0420,cdot_cos,P,T-P,110,22,22708,0.05000218826818385,-0.0018663605494750133,0.33741921644596157,0.9997830182732336,956.0,2.571186419686511,0.5609830152476363,5.883640737575652,-0.05734962593726051,0.541,0.9999999999997412,-38.46560019277693,0.5463878653806984,110,2026-10-07 23:16:38.792243,25.0,0.4401804593252018,0.07976473456763739,0.11748858447410923
0420,cdot_cos,Q,P-Q,111,22,22814,-0.002567102556122963,-0.0021477079669870616,-0.052569290824306815,0.21177949388762032,956.0,2.5939305382882014,0.5612420712005207,5.91305349607077,-0.020867431542064357,0.106,0.9999999999997263,140.82746985346952,0.5513550314170927,111,2026-10-07 23:16:38.898243,25.0,0.17407241464625867,0.3803057032301063,0.21456715661972234
0420,cdot_cos,R,Q-R,112,22,22846,0.07686593325543425,0.09554070173653735,0.07943303581155722,0.879300837057507,956.0,2.6518112287712934,0.5623173036862705,5.951008356216932,-0.05390461598006188,0.032,0.9999999999997228,-30.72561969233949,0.5563221661662017,112,2026-10-07 23:16:38.930244,25.0,0.5417870295575237,1.1942528074934537,1.808771577596624
0420,cdot_cos,S,R-S,113,22,22896,-1.499987216441968e-05,-4.336724869639053e-05,-0.07688093312759868,0.1276361087876102,956.0,2.6703627179677825,0.5624733321177904,5.979174920618894,-0.017527454197624873,0.05,0.9999999999997108,233.14444315111288,0.5612893094367593,113,2026-10-07 23:16:38.980243,25.0,0.1255013219654958,0.3034153234635273,0.3710297839297816
0420,cdot_cos,T,S-T,114,22,23126,-0.4833055586568944,0.10431559530679786,-0.48329055878473,5.658964525000857e-06,956.0,2.682152761117646,0.5624733390353032,6.005573247294047,-0.011202741989790613,0.23,0.9999999999996974,914304.3756598091,0.5662565331412908,114,2026-10-07 23:16:39.210243,25.0,0.5686056010349383,0.1669455136557551,0.05126105717332021
0420,cdot_cos,P,T-P,115,23,23664,0.040074895009270264,0.00048404341382293184,0.5233804536661647,0.9999979228492162,961.0,2.74715765424943,0.5636953538122841,6.044960666614452,-0.06261372373827756,0.538,0.9999999999996956,-42.07067108918419,0.5712238983370478,115,2026-10-07 23:16:39.748243,25.0,0.43995550406054884,0.08351992863691343,0.12082693890666114
0420,cdot_cos,Q,P-Q,116,23,23775,-0.005606171082253576,-0.004932856756312498,-0.04568106609152384,0.24194845954112057,961.0,2.772020204330965,0.5639909034241753,6.074369515206289,-0.02434065361299323,0.111,0.9999999999996793,129.49795427024674,0.5761910689219177,116,2026-10-07 23:16:39.859244,25.0,0.20754795299272988,0.36819671786985947,0.22398693767148783
0420,cdot_cos,R,Q-R,117,23,23805,0.05975016719910718,0.07674611514431152,0.06535633828136075,0.8367043549572349,961.0,2.8288973256165386,0.5650126192119002,6.111547519167025,-0.056477583619552255,0.03,0.9999999999996743,-31.453884135550688,0.5811582020444988,117,2026-10-07 23:16:39.889244,25.0,0.5660793702515311,1.3102019483971865,1.8959040428524552
0420,cdot_cos,S,R-S,118,23,23834,-0.0011090963895659675,-0.0022240124104943664,-0.06085926358867315,0.17924345139321549,961.0,2.850632321234796,0.565231425335453,6.139986511433943,-0.02188269971619266,0.029,0.9999999999996616,158.10747588608297,0.5861253352190504,118,2026-10-07 23:16:39.918243,25.0,0.20578487699038128,0.5831694616032329,0.7494826075261218
0420,cdot_cos,T,S-T,119,23,24084,-0.29443703881557026,0.14254070465960153,-0.2933279424260043,0.0006530532878998828,961.0,2.862721154389526,0.5652322224844574,6.165957206183737,-0.012243463248783346,0.25,0.9999999999996472,12092.138878268313,0.5910925760763227,119,2026-10-07 23:16:40.168243,25.0,0.45507339857997464,0.15698347017683467,0.04835533261891989
0420,cdot_cos,P,T-P,120,24,24625,0.03995113716397912,-0.0019532143819874486,0.3343881759795494,0.999765941268695,937.0,2.9291240563232135,0.5664521880649274,6.2051745038061,-0.06813162965797917,0.541,0.9999999999996446,-45.81126492737997,0.5960599626901311,120,2026-10-07 23:16:40.709243,25.0,0.44030089806837,0.08043970143018034,0.12274103869443134
0420,cdot_cos,Q,P-Q,121,24,24731,-0.02797535133666376,-0.01698757398585367,-0.06792648850064288,0.15470544314076737,937.0,2.9497569113369813,0.5666408960112362,6.233051693590887,-0.021485940099383587,0.106,0.999999999999625,247.18455407408499,0.6010271331999973,121,2026-10-07 23:16:40.815244,25.0,0.11406501678495656,0.38563043520026213,0.19464957560158275
0420,cdot_cos,R,Q-R,122,24,24762,0.05661560985612702,0.06839726681157804,0.08459096119279078,0.8923308651072069,937.0,3.010877708585669,0.5677289722304656,6.270773320251269,-0.0644945784542257,0.031,0.9999999999996199,-39.52722943003364,0.605994266054688,122,2026-10-07 23:16:40.846244,25.0,0.5133195890051258,1.3377378416518058,1.9716386209254129
0420,cdot_cos,S,R-S,123,24,24776,-0.006095885948835021,-0.010888627963245863,-0.06271149580496205,0.17253204485255347,937.0,3.032696657519393,0.5679392765809588,6.29875314448395,-0.023340970748403064,0.014,0.9999999999996061,195.68595518501328,0.6109613905553152,123,2026-10-07 23:16:40.860243,25.0,0.17150395789716577,1.2475029762562935,1.5584963524088684
0420,cdot_cos,T,S-T,124,24,25043,-0.17454949182316756,0.07605685106125239,-0.16845360587433253,0.014609872292721943,937.0,3.0458077919208453,0.567957083857588,6.324504283439757,-0.014106652186004294,0.267,0.9999999999995894,518.5699506249914,0.6159286487876934,124,2026-10-07 23:16:41.127244,25.0,0.5196460483894668,0.15090103851843853,0.049105372290082626
0420,cdot_cos,P,T-P,125,25,25562,0.03129714819817396,-0.000609857316812938,0.2058466400213415,0.9942120134983647,983.0,3.1132778120882394,0.5691684664934368,6.363498849689828,-0.0735055112249002,0.519,0.9999999999995868,-49.033936331172995,0.620896044168914,125,2026-10-07 23:16:41.646244,25.0,0.44570982757990496,0.08742872332662101,0.13000003885817749
0420,cdot_cos,Q,P-Q,126,25,25652,-0.025509755552983165,-0.01412494059301361,-0.05680690375115713,0.19463452775801918,983.0,3.136558806733878,0.569405519604711,6.3915632116388,-0.02573385492075516,0.09,0.9999999999995663,201.52300911540286,0.6258632084219379,126,2026-10-07 23:16:41.736243,25.0,0.15623814149519744,0.4752376111788914,0.25867771828487207
0420,cdot_cos,R,Q-R,127,25,25687,0.0582680041938229,0.06268428941305995,0.08377775974680607,0.8903619904157538,983.0,3.19882058210044,0.570489519608684,6.429092505128618,-0.06972043192181403,0.035,0.9999999999995616,-40.57802291498307,0.6308303429283816,127,2026-10-07 23:16:41.771244,25.0,0.5321130160049314,1.18630813391239,1.7789078676160561
0420,cdot_cos,S,R-S,128,25,25713,-0.012350781677345681,-0.03778311747885388,-0.07061878587116859,0.14610662776994526,983.0,3.219600376107745,0.570667337580389,6.456366038722892,-0.02357170003505549,0.026,0.9999999999995448,259.52793997287523,0.6357974729282138,128,2026-10-07 23:16:41.797244,25.0,0.1411683058648839,0.6509292178260232,0.7992228464348209
0420,cdot_cos,T,S-T,129,25,25980,-0.19972334896264,0.1265447253853509,-0.1873725672852943,0.009154489797694105,983.0,3.232668901427393,0.5706784783765936,6.481663679841475,-0.014902453090058382,0.267,0.9999999999995266,778.1532653333194,0.6407647406900513,129,2026-10-07 23:16:42.064243,25.0,0.5589289704310346,0.15370921110465413,0.04894578771403693
0420,cdot_cos,P,T-P,130,26,26545,0.04394214686116592,-0.0021664194726727327,0.24366549582380592,0.9977434011759484,1033.0,3.3016810948376305,0.5718922767961276,6.520577418489478,-0.07964160804773437,0.565,0.9999999999995234,-53.33600202126416,0.6457321833105975,130,2026-10-07 23:16:42.629244,25.0,0.4435782468989638,0.08368827735242074,0.12214547506236718
0420,cdot_cos,Q,P-Q,131,26,26649,-0.005171172617979031,-0.0037612876628632676,-0.04911331947914495,0.22656092872880448,1033.0,3.3272366548356285,0.572167778103667,6.548761964474799,-0.029913651874467283,0.104,0.9999999999995011,180.49989169708914,0.6506993575567549,131,2026-10-07 23:16:42.733243,25.0,0.18968635602496003,0.4156483605006435,0.24572653844228817
0420,cdot_cos,R,Q-R,132,26,26679,0.06267291412308527,0.06295075013318811,0.0678440867410643,0.8450249698006498,1033.0,3.3881359538217644,0.5731949444742519,6.5855109823076505,-0.07217035043270156,0.03,0.9999999999994942,-41.139098561193634,0.6556664882655198,132,2026-10-07 23:16:42.763244,25.0,0.55681998421628,1.389853447760614,2.0299766328711963
0420,cdot_cos,S,R-S,133,26,26730,-0.0010297258535925627,-0.0021770785631075383,-0.06370263997667784,0.16902318500932081,1033.0,3.4106278617012653,0.5734003244079285,6.612777583077137,-0.026982316052615217,0.051,0.999999999999476,220.02166215143595,0.6606336324562537,133,2026-10-07 23:16:42.814244,25.0,0.18735917463573687,0.34822161285353415,0.4410178015588422
0420,cdot_cos,T,S-T,134,26,26960,-0.22193883108271775,0.17618189514449534,-0.22090910522912519,0.003979040343373904,1033.0,3.423654558332825,0.5734051590319128,6.637647061451542,-0.01570901514201514,0.23,0.9999999999994544,2331.7844256962035,0.6656008870261875,134,2026-10-07 23:16:43.044243,25.0,0.48790597292239973,0.1812926093414971,0.05663781144156318
0420,cdot_cos,P,T-P,135,27,27578,0.033760746238803256,0.00035569568976925577,0.255699577321521,0.998328714380712,999.0,3.494022461998354,0.574617705375602,6.676456952990006,-0.0858297412637346,0.618,0.9999999999994513,-57.82931636936641,0.6705683860514496,135,2026-10-07 23:16:43.662244,25.0,0.4417661150748334,0.07628676729027305,0.1138639217888821
0420,cdot_cos,Q,P-Q,136,27,27689,-0.02424573746231125,-0.01447401127151444,-0.05800648370111451,0.18997662107139376,999.0,3.5179450027036023,0.5748483453047735,6.703828879553098,-0.029572556339650596,0.111,0.9999999999994247,243.91780350510538,0.6755355668813986,136,2026-10-07 23:16:43.773243,25.0,0.14921839146546093,0.3966526190116696,0.21551838473196713
0420,cdot_cos,R,Q-R,137,27,27719,0.05585742007360377,0.06666987917688562,0.08010315753591501,0.8810675841656854,999.0,3.5820793434189446,0.57591757247872,6.740945176462238,-0.08022423252731309,0.03,0.9999999999994174,-47.37223054358652,0.6805026963512311,137,2026-10-07 23:16:43.803244,25.0,0.5318593184285604,1.4708950917637318,2.1378113571780766
0420,cdot_cos,S,R-S,138,27,27747,-0.0022176360539493383,-0.003941488853205415,-0.05807505612755311,0.18971295370798139,999.0,3.6061987082094262,0.5761477076663928,6.768205903311668,-0.03054102593644949,0.028,0.9999999999993967,215.8870492308407,0.6854698251485576,138,2026-10-07 23:16:43.831244,25.0,0.19656356676388143,0.6654331197019556,0.8614058853743429
0420,cdot_cos,T,S-T,139,27,27999,-0.25603896627694994,0.1572060096542833,-0.25382133022300063,0.0017514937477611072,999.0,3.619343598122254,0.5761498321980797,6.792709163671575,-0.016730916950486584,0.252,0.9999999999993732,6500.307371765126,0.6904371025650236,139,2026-10-07 23:16:44.083244,25.0,0.43804899523195434,0.16840738923994103,0.05216226155884094
0420,cdot_cos,P,T-P,140,28,28577,0.04003247196707426,0.0021380276484951237,0.2960714382440242,0.9993902100059323,960.0,3.6910760323863565,0.5773616139095098,6.83143766347001,-0.09230372102306975,0.578,0.9999999999993688,-62.365031061076714,0.6954046012174062,140,2026-10-07 23:16:44.661243,25.0,0.4409866828916311,0.08563252656011792,0.12410455755035012
0420,cdot_cos,Q,P-Q,141,28,28689,-0.006285899111008262,-0.005698156677768762,-0.046318371078082524,0.2390382929039895,960.0,3.7183347988257505,0.5776513155255338,6.85923249251028,-0.0355444085436737,0.112,0.9999999999993413,195.92335472055467,0.7003717855845085,141,2026-10-07 23:16:44.773243,25.0,0.20253222011060207,0.39435691764594977,0.2433818432088746
0420,cdot_cos,R,Q-R,142,28,28718,0.05158560490114393,0.07117873109878119,0.05787150401215219,0.809503550153459,960.0,3.7794119819390493,0.5786319926422135,6.8951991809206366,-0.08054122910285447,0.029,0.9999999999993308,-45.88342054062317,0.7053389133142155,142,2026-10-07 23:16:44.802243,25.0,0.5719632261431374,1.4889836950065725,2.1061097625275447
0420,cdot_cos,S,R-S,143,28,28747,-0.0033638755065056843,-0.0067762380119681795,-0.05494948040764962,0.20201674714791046,960.0,3.8046958531361317,0.5788766304672194,6.922360890100412,-0.03372002872501764,0.029,0.9999999999993084,191.38986531097703,0.7103060416908726,143,2026-10-07 23:16:44.831244,25.0,0.24944224059002237,0.6673955530445295,0.8718576274856006
0420,cdot_cos,T,S-T,144,28,29015,-0.2439760888888642,0.10000994641892828,-0.24061221338235853,0.002435158425383363,960.0,3.818120924015632,0.5788795791543928,6.946558157499841,-0.01799579934011651,0.268,0.9999999999992819,5332.620403608359,0.715273340132906,144,2026-10-07 23:16:45.099244,25.0,0.4173741524549074,0.1612346391769495,0.0500935480578369
0420,cdot_cos,P,T-P,145,29,29537,0.03908858958824447,-0.0018599400766082328,0.2830646784771087,0.9991560870691194,937.0,3.8911176197349766,0.5800889612390353,6.985199414263626,-0.09888059186241453,0.522,0.9999999999992769,-66.88109039270931,0.7202408238761038,145,2026-10-07 23:16:45.621243,25.0,0.44131130885189457,0.09278765028349147,0.1398404132554495
0420,cdot_cos,Q,P-Q,146,29,29643,-0.023051331965807765,-0.013924772765090706,-0.062139921554052235,0.1745816167624298,937.0,3.914991230911597,0.5803001772081775,7.011797284058559,-0.03274075684219735,0.106,0.999999999999245,313.1384207776903,0.7252080068722664,146,2026-10-07 23:16:45.727243,25.0,0.13264125980213465,0.4284295566444209,0.2252227469492496
0420,cdot_cos,R,Q-R,147,29,29674,0.06037447647346024,0.07195673490178005,0.083425808439268,0.8895001203885328,937.0,3.981944685743594,0.5813758725140157,7.04881144896812,-0.092823371631603,0.031,0.9999999999992365,-55.85467786585683,0.7301751351704558,147,2026-10-07 23:16:45.758244,25.0,0.5234682223288262,1.4603264581770028,2.159788865548283
0420,cdot_cos,S,R-S,148,29,29688,-0.004029574712992119,-0.006553361400707899,-0.06440405118645236,0.1665745527013942,937.0,4.005531471318571,0.5815772297240426,7.075195968460257,-0.03307086428346067,0.014,0.9999999999992112,296.74878461099263,0.7351422512880604,148,2026-10-07 23:16:45.772243,25.0,0.16417832252053655,1.3259157214697201,1.6847703982126712
0420,cdot_cos,T,S-T,149,29,29955,-0.30913048343098304,0.13277777507536825,-0.3051009087179909,0.00048662854609585985,937.0,4.019070325944746,0.5815778179263656,7.099065580135897,-0.019070957244323297,0.267,0.999999999999182,23801.176041008013,0.7401095599111783,149,2026-10-07 23:16:46.039244,25.0,0.4799392887114991,0.16447652688797723,0.05070732069728377
0420,cdot_cos,P,T-P,150,30,30474,0.0486479002100024,0.0031727466448450126,0.35777838364098546,0.9998695590651886,978.0,4.093361936676751,0.5827858976667573,7.137644118223133,-0.10570690111654926,0.519,0.9999999999991775,-71.71376273899118,0.7450770649450067,150,2026-10-07 23:16:46.558244,25.0,0.4406138324938926,0.09697140680006255,0.1431437586358479
0420,cdot_cos,Q,P-Q,151,30,30586,-0.0046500138190331075,-0.004111969106851153,-0.053297914029035505,0.2087547502629305,978.0,4.119726646203211,0.5830379981030006,7.164494852151292,-0.03797233760630603,0.112,0.9999999999991442,268.68086592622626,0.7500442556530873,151,2026-10-07 23:16:46.670244,25.0,0.16800071645311698,0.4044456411656833,0.23539919220053449
0420,cdot_cos,R,Q-R,152,30,30616,0.057781512578264554,0.07804723596494102,0.06243152639729766,0.8264664197108663,978.0,4.183957760297864,0.5840356440826446,7.2004790344703125,-0.09346655295359041,0.03,0.9999999999991335,-55.625158101760306,0.755011382352559,152,2026-10-07 23:16:46.700243,25.0,0.5522616112728435,1.488063699971661,2.1410371364884404
0420,cdot_cos,S,R-S,153,30,30643,-0.0017659638697563637,-0.00339555444144697,-0.05954747644802092,0.1841188966645004,978.0,4.209010468201511,0.5842578046432121,7.226873955335331,-0.03684201545448044,0.027,0.9999999999991065,254.88114251457148,0.7599785073216068,153,2026-10-07 23:16:46.727243,25.0,0.21503478382668562,0.7183970661886824,0.9278780705054238
0420,cdot_cos,T,S-T,154,30,30913,-0.3585382470925667,0.10171769688938989,-0.35677228322281035,0.00013376301713708278,978.0,4.222751201872053,0.5842579660311951,7.2504547175493625,-0.020300249074678842,0.27,0.9999999999990749,102496.89025543754,0.7649458294396997,154,2026-10-07 23:16:46.997243,25.0,0.4427033638062454,0.16530868334814372,0.050891606187194086
0420,cdot_cos,P,T-P,155,31,31452,0.038451185201395864,-0.00041598310742990105,0.39698943229396255,0.9999510536009213,979.0,4.298277157209508,0.5854639214377143,7.288971210671953,-0.11266659503609594,0.539,0.9999999999990691,-76.59184200518214,0.769913374828706,155,2026-10-07 23:16:47.536243,25.0,0.44051086888771096,0.09412904702729227,0.14012236611772766
0420,cdot_cos,Q,P-Q,156,31,31562,-0.018249505719089048,-0.012438938999804585,-0.05670069092048491,0.19505109193214124,979.0,4.324222314567474,0.5856990370129582,7.315383090300415,-0.03915835419049451,0.11,0.9999999999990322,312.6472619661277,0.7748805669599637,156,2026-10-07 23:16:47.646244,25.0,0.1530172597974167,0.4248744293623087,0.23586506689059886
0420,cdot_cos,R,Q-R,157,31,31592,0.055248591015044195,0.06714545680878468,0.07349809673413324,0.8626471307504953,979.0,4.391749531669216,0.5867384067246035,7.3518156736733005,-0.10294581307883899,0.03,0.9999999999990224,-61.37128893949551,0.7798476925976264,157,2026-10-07 23:16:47.676243,25.0,0.5381479847567789,1.5576094533915323,2.2509072367247347
0420,cdot_cos,S,R-S,158,31,31620,-0.0023273915132975527,-0.004317219318989396,-0.05757598252834175,0.19163834685912018,979.0,4.417678881770966,0.5869691997202195,7.3780929465399225,-0.039946764178980576,0.028,0.9999999999989926,272.96776807158517,0.7848148172442402,158,2026-10-07 23:16:47.704243,25.0,0.20657842744748411,0.7145759940165228,0.9260482179196394
0420,cdot_cos,T,S-T,159,31,31872,-0.24965241450360878,0.13033599282240924,-0.24732502299031123,0.002059715496146802,979.0,4.431765787334141,0.5869716800597583,7.401435779192445,-0.02180083572936582,0.252,0.9999999999989576,7315.905006580559,0.7897821354666525,159,2026-10-07 23:16:47.956243,25.0,0.43502571712026966,0.18012125220155287,0.0559004189014896
0420,cdot_cos,P,T-P,160,32,32431,0.03515551743708893,0.00021521361647980973,0.2848079319406977,0.9991920469262415,937.0,4.508459992880549,0.5881743990480162,7.439887700808629,-0.11980500072075306,0.559,0.9999999999989527,-81.48550571513528,0.7947497244115267,160,2026-10-07 23:16:48.515244,25.0,0.4412998644561443,0.09243815636046124,0.13719893657675716
0420,cdot_cos,Q,P-Q,161,32,32541,-0.02038289752359425,-0.014591510133136379,-0.05553841496068318,0.19965366312289906,937.0,4.535111646145137,0.5884145947686243,7.46614919078326,-0.042106779371046774,0.11,0.9999999999989125,323.4787911831736,0.7997169197177277,161,2026-10-07 23:16:48.625243,25.0,0.1579832429432784,0.4323123683997888,0.24228775695080368
0420,cdot_cos,R,Q-R,162,32,32571,0.052355580675870705,0.06854824816013816,0.07273847819946495,0.8603814714689962,937.0,4.603568713928502,0.5894492037821387,7.502468554254712,-0.10920927072887587,0.03,0.9999999999989004,-64.85782598190819,0.8046840442645933,162,2026-10-07 23:16:48.655244,25.0,0.5409440012692368,1.5864494800670168,2.2819022594455047
0420,cdot_cos,S,R-S,163,32,32598,-0.003650327272188151,-0.0073383643387182375,-0.056005907948058854,0.19779267493417976,937.0,4.630298614949158,0.5896869380698841,7.528623872661195,-0.043078672837696126,0.027,0.9999999999988689,278.1702148156016,0.8096511668211664,163,2026-10-07 23:16:48.682244,25.0,0.21543151010472317,0.7619299224629544,0.9899963340983654
0420,cdot_cos,T,S-T,164,32,32850,-0.22793221141156206,0.08616690050093839,-0.22428188413937392,0.0036584625994012156,937.0,4.644712929741502,0.5896913349163119,7.551738793056676,-0.023333959369060072,0.252,0.9999999999988307,4490.6534247228365,0.8146184960725444,164,2026-10-07 23:16:48.934243,25.0,0.4290510786364057,0.1830652481165607,0.05719966187437966
0420,cdot_cos,P,T-P,165,33,33368,0.03313272820886041,0.0006454749853576786,0.2610649396204225,0.9985381994658574,959.0,4.722563499999905,0.5908908690389649,7.5901358226328055,-0.12716453911907338,0.518,0.9999999999988249,-86.55908805692593,0.8195860748283428,165,2026-10-07 23:16:49.452243,25.0,0.44197331652322985,0.09928153961801368,0.150290676174523
0420,cdot_cos,Q,P-Q,166,33,33479,-0.031027176175208823,-0.01990457725049394,-0.06415990438406924,0.16742363512783587,959.0,4.747568604785764,0.591091887943937,7.615691748677702,-0.041286676545402884,0.111,0.9999999999987818,427.21286630039,0.8245532745487442,166,2026-10-07 23:16:49.563244,25.0,0.12492544537729963,0.4328188376575149,0.2252712142870204
0420,cdot_cos,R,Q-R,167,33,33506,0.05056390379450926,0.06527134145504303,0.08159107996971808,0.8849105586455139,959.0,4.818649281959873,0.5921538575444049,7.652319846037081,-0.11845875828180837,0.027,0.9999999999987702,-72.66882376143744,0.8295203953190357,167,2026-10-07 23:16:49.590244,25.0,0.5212800136579112,1.8210208962547416,2.6326176731151496
0420,cdot_cos,S,R-S,168,33,33536,-0.0049941635092244285,-0.00948936635429985,-0.05555806730373369,0.19957516748920498,959.0,4.84590373318352,0.5923932465775151,7.67829960835304,-0.04587912856929681,0.03,0.9999999999987366,303.1869454064707,0.8344875197575273,168,2026-10-07 23:16:49.620243,25.0,0.20556871992294412,0.6959078502334423,0.9084817074549001
0420,cdot_cos,T,S-T,169,33,33789,-0.2640955472838599,0.11733759515664752,-0.2591013837746355,0.0015352362357324554,959.0,4.8604037529738795,0.59239508791295,7.701141710765504,-0.024514217800426365,0.253,0.9999999999986953,11602.943365926434,0.8394548614806283,169,2026-10-07 23:16:49.873244,25.0,0.4183104542815745,0.18498377604104718,0.05731233118719182
0420,cdot_cos,P,T-P,170,34,34327,0.0570201467633662,-0.005503329395062623,0.3211156940472261,0.9996738713208143,959.0,4.93950552386029,0.593593526095632,7.739518411622422,-0.13489705136427235,0.538,0.9999999999986893,-92.10557136691317,0.8444224864105131,170,2026-10-07 23:16:50.411244,25.0,0.4411922220284587,0.09750783969711974,0.14702931391526086
0420,cdot_cos,Q,P-Q,171,34,34419,-0.005253149847175116,-0.003605286828823985,-0.06227329661054131,0.17410164477889786,959.0,4.96532218848798,0.593802130755268,7.764976531271138,-0.04449087280157935,0.092,0.9999999999986429,433.3852308018399,0.8493896706497752,171,2026-10-07 23:16:50.503244,25.0,0.1310709766326683,0.5244066461567551,0.2806159198662011
0420,cdot_cos,R,Q-R,172,34,34447,0.06814602940585425,0.07021042048243362,0.07339917925302937,0.862353856856493,959.0,5.035996346753133,0.594834883388911,7.801192494198481,-0.12288271451236507,0.028,0.9999999999986305,-75.90572917181666,0.8543567913150114,172,2026-10-07 23:16:50.531244,25.0,0.528379581916361,1.6944302979226158,2.5240770808983015
0420,cdot_cos,S,R-S,173,34,34476,-0.0022270605946396282,-0.0032914351873105244,-0.07037309000049388,0.14687461700791368,959.0,5.060210285171647,0.5950106966754797,7.826149959773383,-0.04249486655190326,0.029,0.9999999999985916,457.23420299669954,0.8593239137638277,173,2026-10-07 23:16:50.560243,25.0,0.15081410863263436,0.6740343445652016,0.8349633937418637
0420,cdot_cos,T,S-T,174,34,34727,-0.22080394234774756,0.15351106898830572,-0.21857688175310794,0.00421693005745108,959.0,5.0750903387379145,0.5950157441065186,7.848802864735046,-0.026215145173765532,0.251,0.9999999999985473,3225.347954761343,0.8642912648311204,174,2026-10-07 23:16:50.811244,25.0,0.5374043794442102,0.18936960417974616,0.059283081937321305
0420,cdot_cos,P,T-P,175,35,35286,0.043334234607468144,-0.0021687176164426323,0.2641381769552157,0.9986461585145291,1000.0,5.155273826469879,0.5962105001475845,7.887129869024315,-0.14245414336717516,0.559,0.9999999999985414,-97.29099012523757,0.8692589390146875,175,2026-10-07 23:16:51.370244,25.0,0.4422080308970722,0.09752781065775107,0.14344094406433797
0420,cdot_cos,Q,P-Q,176,35,35377,-0.008558079113599903,-0.006026567664669981,-0.05189231372106805,0.21461845121708945,1000.0,5.18412643105328,0.5964671161001623,7.913037206881787,-0.051795289573473194,0.091,0.9999999999984929,353.28611835304025,0.8742261245794264,176,2026-10-07 23:16:51.461244,25.0,0.1737165921003131,0.5472362726042626,0.31706158882858
0420,cdot_cos,R,Q-R,177,35,35422,0.06019565466878538,0.06391982012995955,0.06875373378238528,0.847979791821889,1000.0,5.254870828083855,0.5974805149435167,7.948968006488237,-0.12811674298724757,0.045,0.9999999999984791,-75.31235496692274,0.8791932622264942,177,2026-10-07 23:16:51.506243,25.0,0.5511666709620667,1.0785434364238573,1.5720977117905557
0420,cdot_cos,S,R-S,178,35,35437,-0.0022312277836371037,-0.0031538438859220435,-0.062426882452422484,0.17355023174707057,1000.0,5.281195340331427,0.5976878180772474,7.974156857055618,-0.048108395738136654,0.015,0.9999999999984379,385.9485662820418,0.8841603682636182,178,2026-10-07 23:16:51.521244,25.0,0.1895533212800161,1.3791269681775613,1.7549674831714768
0420,cdot_cos,T,S-T,179,35,35705,-0.22781585423581077,0.15989081040045156,-0.22558462645217367,0.003541646333044981,1000.0,5.296244637129182,0.5976920481571046,7.996581371153836,-0.027610699668675853,0.268,0.9999999999983901,4845.699552025542,0.8891277495779616,179,2026-10-07 23:16:51.789243,25.0,0.4759786166773723,0.1798262464531057,0.05615409252893539
0420,cdot_cos,P,T-P,180,36,36286,0.0422823667827225,-0.0017015150192847036,0.27009822101853326,0.9988333546280034,976.0,5.377582208430292,0.5988844546461936,8.03488506524858,-0.15044171607172957,0.581,0.999999999998384,-103.01102646372337,0.8940954777311305,180,2026-10-07 23:16:52.370244,25.0,0.4419895119581299,0.09380008650124877,0.13999581979537
0420,cdot_cos,Q,P-Q,181,36,36393,-0.015553588604007776,-0.010146295058865745,-0.057835955386730274,0.19063353420700613,976.0,5.405240337643633,0.5991119003157359,8.06023367778164,-0.05166909111443017,0.107,0.9999999999983294,434.2690944876587,0.8990626833136336,181,2026-10-07 23:16:52.477243,25.0,0.14783795233487257,0.46930419352594976,0.2584871889097299
0420,cdot_cos,R,Q-R,182,36,36425,0.05822431338246298,0.06648365926742147,0.07377790198647076,0.8634738626882732,976.0,5.478013305844845,0.6001415787112229,8.096360010231662,-0.13709865261919219,0.032,0.9999999999983145,-82.96722731990577,0.9040298056783551,182,2026-10-07 23:16:52.509243,25.0,0.5362661275883964,1.5644865106823613,2.2741552562878797
0420,cdot_cos,S,R-S,183,36,36475,-0.001507205207736418,-0.004098548546068989,-0.059731518590199394,0.1834287346983064,976.0,5.505367474327304,0.6003602008882932,8.121529738596571,-0.05199776019483918,0.05,0.9999999999982705,389.2601087627293,0.908996949464934,183,2026-10-07 23:16:52.559244,25.0,0.19463561330693221,0.4289917633648077,0.5470833696491795
0420,cdot_cos,T,S-T,184,36,36704,-0.1954961288319692,0.10819759460042505,-0.19398892362423278,0.0077697045746974655,976.0,5.520912482181326,0.6003694604405027,8.143815083830622,-0.02966482284736522,0.229,0.9999999999982179,2411.880924947262,0.9139642987376244,184,2026-10-07 23:16:52.788243,25.0,0.4710257898258133,0.21369648185360457,0.0678821303669074
0420,cdot_cos,P,T-P,185,37,37262,0.03433439571331962,0.00052407230043085,0.22983052454528882,0.9968138892633324,944.0,5.603240463016255,0.6015568171661385,8.182064976878781,-0.15834408406045142,0.558,0.999999999998211,-108.37455874448804,0.9189320319767855,185,2026-10-07 23:16:53.346244,25.0,0.4436781154541614,0.09737689493626893,0.14754118429198762
0420,cdot_cos,Q,P-Q,186,37,37373,-0.030346404748730224,-0.019594265371881813,-0.06468080046204985,0.16561625714671574,944.0,5.629585096930202,0.6017539760031618,8.206838192017482,-0.05115593762371577,0.111,0.9999999999981528,543.663921207145,0.9238992456150145,186,2026-10-07 23:16:53.457243,25.0,0.12303065772317114,0.4574413505972038,0.2373390442697931
0420,cdot_cos,R,Q-R,187,37,37401,0.05116886715726108,0.06812926080605645,0.08151527190599131,0.8847174031504387,944.0,5.704792442848834,0.6028066324823252,8.243264920283458,-0.14722525374052237,0.028,0.9999999999981375,-91.26369144961356,0.9288663620599511,187,2026-10-07 23:16:53.485244,25.0,0.5207251802319953,1.8576329287500748,2.68597663995115
0420,cdot_cos,S,R-S,188,37,37430,-0.00440836111322208,-0.008882663587996827,-0.055577228270483156,0.1994986568238576,944.0,5.733612540940206,0.6030438693840495,8.268529155973185,-0.05692417978612624,0.029,0.9999999999980901,380.636710807095,0.933833480558721,188,2026-10-07 23:16:53.514244,25.0,0.20467345273005147,0.7659880377602786,0.9937964859093786
0420,cdot_cos,T,S-T,189,37,37682,-0.2119927563260124,0.08074365054813586,-0.20758439521279032,0.00554328173285412,944.0,5.7492197490389305,0.6030504605716762,8.29058135631901,-0.03094622912296295,0.252,0.9999999999980349,3941.315607214839,0.9388008687351538,189,2026-10-07 23:16:53.766243,25.0,0.4319460945867638,0.19673559281023026,0.061933365471127697
0420,cdot_cos,P,T-P,190,38,38206,0.045255974443163295,-0.0008161274879233908,0.2572487307691757,0.998392101868704,976.0,5.832767279716562,0.6042369772603642,8.328840359900447,-0.16691814907966615,0.524,0.9999999999980274,-114.59756213548,0.9437685918031341,190,2026-10-07 23:16:54.290244,25.0,0.442815368715104,0.10879892508964045,0.15944185243822875
0420,cdot_cos,Q,P-Q,191,38,38311,-0.0052340829484321715,-0.0041676456920266315,-0.05049005739159547,0.22058656374582972,976.0,5.863241022532874,0.6044989634881842,8.35435075556598,-0.061468281926579785,0.105,0.9999999999979683,402.5015667064896,0.9487358020559062,191,2026-10-07 23:16:54.395243,25.0,0.1798707487349325,0.49509712922624605,0.29022612206010784
0420,cdot_cos,R,Q-R,192,38,38341,0.0626426984521553,0.0706063230553855,0.06787678140058746,0.8451319801092435,976.0,5.936737676854074,0.6055021533790906,8.390092884606206,-0.14943539274555373,0.03,0.999999999997951,-87.6873975868042,0.9537029198817815,192,2026-10-07 23:16:54.425244,25.0,0.5550688260234415,1.6790338706062318,2.449888477373345
0420,cdot_cos,S,R-S,193,38,38392,-0.00047791722136325256,-0.001218534351047352,-0.06312061567351855,0.17107673459526737,976.0,5.963983054769248,0.6057051173055789,8.414733354878912,-0.05585896952978629,0.051,0.9999999999978995,461.049531485087,0.9586700651707853,193,2026-10-07 23:16:54.476243,25.0,0.18726576838134074,0.4184470360129817,0.5342230963759522
0420,cdot_cos,T,S-T,194,38,38622,-0.37855040226956493,0.1346617018153521,-0.3780724850482017,7.854092980875982e-05,976.0,5.979419274527398,0.6057052104774759,8.436506318311618,-0.03176112711890617,0.23,0.9999999999978388,258638.52904612734,0.9636374380870676,194,2026-10-07 23:16:54.706244,25.0,0.4682648329414312,0.21780144219549574,0.06711399894848075
0420,cdot_cos,P,T-P,195,39,39182,0.04541618526911711,-0.001770141917583257,0.42396658753868205,0.9999750637907733,995.0,6.064171718179176,0.6068908405277078,8.474778535416737,-0.17566138691090447,0.56,0.9999999999978317,-121.37028726950409,0.968605237274915,195,2026-10-07 23:16:55.266243,25.0,0.44078802610953893,0.1024299863495559,0.15134364937817404
0420,cdot_cos,Q,P-Q,196,39,39288,-0.008157537419041083,-0.0058306523419047775,-0.05357372268815819,0.20761811167572394,995.0,6.094140859238901,0.607136847608699,8.499925548446159,-0.062693122654513,0.106,0.9999999999977677,459.2073683457494,0.973572452197375,196,2026-10-07 23:16:55.372243,25.0,0.1649811012558915,0.49646562587052884,0.28272774584646365
0420,cdot_cos,R,Q-R,197,39,39319,0.0635000649551655,0.06902579823310898,0.07165760237420658,0.857103741268041,995.0,6.169422430863728,0.6081518547859237,8.535827797665513,-0.15870094413055832,0.031,0.9999999999977497,-94.58831782702963,0.9785395700049238,197,2026-10-07 23:16:55.403244,25.0,0.546095931748524,1.654977481490697,2.4284377943492568
0420,cdot_cos,S,R-S,198,39,39369,-0.0007148449469746407,-0.001768868358379719,-0.06421490990214014,0.16723203823103536,995.0,6.196749463091324,0.6083497871488447,8.560250047315288,-0.0580796380660709,0.05,0.9999999999976942,508.3620716671622,0.9835067139785738,198,2026-10-07 23:16:55.453243,25.0,0.17684682792654863,0.43093812512211116,0.546540644551925
0420,cdot_cos,T,S-T,199,39,39599,-0.24980098380556917,0.16636398333212507,-0.24908613885859454,0.0019711727878791814,995.0,6.212516243375939,0.6083521199756469,8.581872526303709,-0.033626715236795286,0.23,0.9999999999976292,10482.099573987216,0.9884740982949352,199,2026-10-07 23:16:55.683244,25.0,0.4832663266427105,0.2207571912366646,0.06855121862876029
0420,cdot_cos,P,T-P,200,40,40177,0.036238299337996716,0.0006801074404779941,0.28603928314356586,0.999216520659715,1000.0,6.29829777106019,0.6095340249590915,8.620122839290202,-0.18424885827979381,0.578,0.9999999999976217,-127.44014548785158,0.9934419542882755,200,2026-10-07 23:16:56.261244,25.0,0.44153722311765947,0.09970109706241069,0.14841094755060702
0420,cdot_cos,Q,P-Q,201,40,40289,-0.020430777486710842,-0.013950894886359444,-0.05666907682470756,0.19517521203798613,1000.0,6.327770711580086,0.6097647348398757,8.644917702740635,-0.06387410522036996,0.112,0.9999999999975523,521.7581173821045,0.9984091807640112,201,2026-10-07 23:16:56.373244,25.0,0.1518954762510696,0.47322750635510136,0.26315125464192773
0420,cdot_cos,R,Q-R,202,40,40319,0.052632971952624404,0.06308149690731885,0.07306374943933525,0.8613554436126066,1000.0,6.404300732483732,0.6107823256696308,8.680858532075751,-0.16709144527328207,0.03,0.9999999999975329,-101.43304856408506,1.0033762957252852,202,2026-10-07 23:16:56.403244,25.0,0.5391671470635051,1.7756224926386142,2.551000696788227
0420,cdot_cos,S,R-S,203,40,40348,-0.002746141061741382,-0.004994965045892029,-0.05537911301436579,0.20029080411857722,1000.0,6.4343080611384025,0.6110188079805788,8.705688609796091,-0.0660500091088517,0.029,0.9999999999974755,427.26847415920633,1.0083434102077626,203,2026-10-07 23:16:56.432243,25.0,0.21658510331409853,0.8031739406656353,1.034735470850691
0420,cdot_cos,T,S-T,204,40,40599,-0.18439805757652916,0.10525231731798841,-0.1816519165147878,0.010547134549255006,1000.0,6.450884821042339,0.6110312594806793,8.727282672660355,-0.03661956914339482,0.251,0.9999999999974066,2363.605969407706,1.013310835718135,204,2026-10-07 23:16:56.683244,25.0,0.4476781711154175,0.20573817773128544,0.06604286814317455
0420,cdot_cos,P,T-P,205,41,41177,0.04897423012138014,-0.0026357026451593072,0.2333722876979093,0.9970830839584621,958.0,6.537588626359508,0.6122077173320449,8.765491447357578,-0.1928583819533304,0.578,0.9999999999973976,-132.8044286742354,1.0182787264820916,205,2026-10-07 23:16:57.261244,25.0,0.44480380906129596,0.1005398052314959,0.1500065835937171
0420,cdot_cos,Q,P-Q,206,41,41268,-0.008857445007515417,-0.006341868318686649,-0.05783167512889556,0.1906500450338297,958.0,6.5671088358899485,0.6124325167751709,8.790071748190382,-0.06623635118953987,0.091,0.999999999997323,563.266656727715,1.023245926815125,206,2026-10-07 23:16:57.352243,25.0,0.14783333156751133,0.5835876602146078,0.32439790692792053
0420,cdot_cos,R,Q-R,207,41,41302,0.06064633074433593,0.06693118208168485,0.06950377575185135,0.8503812509377966,958.0,6.643801580518566,0.6134346349468863,8.8257990499892,-0.17330956775617434,0.034,0.9999999999973018,-106.84689649259795,1.0282130461832026,207,2026-10-07 23:16:57.386244,25.0,0.5391212371396914,1.538827194981231,2.255668959665231
0420,cdot_cos,S,R-S,208,41,41328,-0.0038134213398096,-0.00584397263204612,-0.06445975208414553,0.1663813220809535,958.0,6.671749085148672,0.6136305923168863,8.849917838618001,-0.06364382955350054,0.026,0.9999999999972379,559.640794335391,1.033180154805039,208,2026-10-07 23:16:57.412243,25.0,0.17850894187706962,0.8539462281368285,1.074904024234841
0420,cdot_cos,T,S-T,209,41,41597,-0.2074425283824555,0.11843088783271298,-0.2036291070426459,0.006115905998368035,958.0,6.6882067843816815,0.6136377946892769,8.871270269384663,-0.03760325294005507,0.269,0.9999999999971648,3615.555431072048,1.0381476197565882,209,2026-10-07 23:16:57.681243,25.0,0.500319384737404,0.19386012702788186,0.06118103804092645
0420,cdot_cos,P,T-P,210,42,42135,0.0469916665279378,-0.0019798245479423853,0.2544341949103933,0.9982750914952535,980.0,6.776045833489673,0.6148127408570104,8.909494910350835,-0.20203606932583745,0.538,0.9999999999971547,-139.94923418744946,1.0431154858606424,210,2026-10-07 23:16:58.219244,25.0,0.44313601851944234,0.1115501507263813,0.16326960800741863
0420,cdot_cos,Q,P-Q,211,42,42206,-0.0029955887169525563,-0.001464272973273728,-0.04998725524489035,0.22275529815129572,980.0,6.808234746563268,0.6150747365415076,8.934489075371248,-0.07467781847289476,0.071,0.9999999999970786,486.10820097051146,1.0480826590119499,211,2026-10-07 23:16:58.290244,25.0,0.18169312434525084,0.7746257734373118,0.4533649728675361
0420,cdot_cos,R,Q-R,212,42,42261,0.06734812292835601,0.0734745135677013,0.07034371164530857,0.8530333296143803,980.0,6.886042693317771,0.6160774214662764,8.97023515112547,-0.18179681765633815,0.055,0.9999999999970578,-106.83216286326216,1.053049809327386,212,2026-10-07 23:16:58.345243,25.0,0.5547577588816017,0.9538244576876859,1.4146899409909672
0420,cdot_cos,S,R-S,213,42,42287,-0.0019615547882011713,-0.002888115111499198,-0.06930967771655719,0.1502371911098735,980.0,6.913155436908913,0.6162539135774439,8.993942299421455,-0.0638227279080675,0.026,0.9999999999969889,668.4383169758197,1.0580169164132165,213,2026-10-07 23:16:58.371244,25.0,0.15747868354595213,0.8331341643128884,1.0427978304285477
0420,cdot_cos,T,S-T,214,42,42555,-0.4396984056724596,0.11858971173614287,-0.43773685088425845,1.767359313175354e-05,980.0,6.929365669862041,0.6162539343378111,9.015030394973362,-0.038278299358788744,0.268,0.9999999999969099,1230442.0388793664,1.062984394630101,214,2026-10-07 23:16:58.639244,25.0,0.5130743727079488,0.1962961855172753,0.06048594385495506
0420,cdot_cos,P,T-P,215,43,43115,0.03960945498448024,-0.000795692697317978,0.47930786065693987,0.9999937485853002,998.0,7.018370192346173,0.6174279012559609,9.053282991807173,-0.21152395949264569,0.56,0.9999999999968996,-147.57286381364764,1.0679523277808998,215,2026-10-07 23:16:59.199244,25.0,0.4408565969680745,0.11004636805806671,0.15893664729309212
0420,cdot_cos,Q,P-Q,216,43,43224,-0.005241897881098419,-0.004266104725756431,-0.04485135286557866,0.2457732254770904,998.0,7.052617602087076,0.6177162236269171,9.078550796955271,-0.08208645988297279,0.109,0.9999999999968208,448.93325197207196,1.0729195617518625,216,2026-10-07 23:16:59.308243,25.0,0.2066262885543278,0.515017175038177,0.31419641964131306
0420,cdot_cos,R,Q-R,217,43,43254,0.0621382295593116,0.07162781606251956,0.06738012744041003,0.8434999068030914,998.0,7.130643936504495,0.6187051220178414,9.11410913860649,-0.18832423994199154,0.03,0.9999999999967963,-107.43043070352239,1.0778866724763536,217,2026-10-07 23:16:59.338243,25.0,0.5688595879561982,1.7852770413287515,2.600877813913982
0420,cdot_cos,S,R-S,218,43,43305,-0.0004744054976993233,-0.0012063223810299549,-0.06261263505701092,0.17288517619760355,998.0,7.159734224566801,0.6189076871440586,9.138076063247086,-0.07072813009858063,0.051,0.9999999999967242,580.5348237352753,1.0828538177176308,218,2026-10-07 23:16:59.389244,25.0,0.18963582084127992,0.4468829405383676,0.5703978051432476
0420,cdot_cos,T,S-T,219,43,43534,-0.2690254292093096,0.16361364880912516,-0.26855102371161027,0.001212599437723682,998.0,7.176225996439409,0.618909107769708,9.159032000269052,-0.0402248182400984,0.229,0.9999999999966401,21471.745123464727,1.0878212483704055,219,2026-10-07 23:16:59.618243,25.0,0.4684524444664413,0.23250705096570007,0.07201647105942298
0420,cdot_cos,P,T-P,220,44,44113,0.02735804835827842,0.0005495846703148651,0.29638347756758804,0.9993949455940067,1004.0,7.266222453909092,0.6200792588966311,9.19727558161913,-0.22087708075120122,0.579,0.9999999999966303,-154.38370168999228,1.0927892478759194,220,2026-10-07 23:17:00.197243,25.0,0.441363730956592,0.10304729658894574,0.15543429614798407
0420,cdot_cos,Q,P-Q,221,44,44224,-0.03499832621022566,-0.021335749429709377,-0.06235637456850408,0.17380320186082568,1004.0,7.295554765889408,0.6202826160576819,9.221178592461289,-0.07256966541249633,0.111,0.9999999999965399,729.295268346402,1.0977564889190299,221,2026-10-07 23:17:00.308243,25.0,0.1295542238483045,0.5008749781167783,0.2642550628857332
0420,cdot_cos,R,Q-R,222,44,44253,0.04597719003614365,0.057687196791714905,0.08097551624636931,0.8833339662642764,1004.0,7.377416699051016,0.6213155004549401,9.257407137822367,-0.2038609186708003,0.029,0.9999999999965163,-127.11127557625312,1.1027235963292137,222,2026-10-07 23:17:00.337244,25.0,0.5251750456971196,1.9768222952789725,2.822825281434772
0420,cdot_cos,S,R-S,223,44,44283,-0.005033298079106167,-0.08777217833294693,-0.051010488115249816,0.21835778061853012,1004.0,7.410210459015588,0.6215706576033294,9.282044004749462,-0.08228285238613817,0.03,0.9999999999964435,476.4830891555665,1.1076907064130266,223,2026-10-07 23:17:00.367244,25.0,0.2281932065125907,0.8613231097349091,1.0931253321524004
0420,cdot_cos,T,S-T,224,44,44553,-0.14299550460520485,0.07705631545857226,-0.1379622065260987,0.030797048906379385,1004.0,7.429096085635111,0.6216066394018688,9.303370984229696,-0.04754979483869195,0.27,0.999999999996357,965.295203613803,1.1126582185135185,224,2026-10-07 23:17:00.637243,25.0,0.4816890403944932,0.20169535279465695,0.06994676525749086
0420,cdot_cos,P,T-P,225,45,45117,0.02719644864046309,-0.0006877293543163463,0.17019195324566794,0.9860027578563414,934.0,7.519125949524703,0.6227579284346562,9.341383934844222,-0.2280655518868838,0.564,0.9999999999963438,-156.79447289717118,1.1176262306416969,225,2026-10-07 23:17:01.201244,25.0,0.45316081732502,0.10678721048061032,0.15962741824395785
0420,cdot_cos,Q,P-Q,226,45,45222,-0.03240873783869573,-0.018741375736386172,-0.05960518647915882,0.18390226666387588,934.0,7.549552059057239,0.622972505981454,9.365346065910996,-0.07767974778278239,0.105,0.9999999999962491,700.8459475294383,1.1225934656587755,226,2026-10-07 23:17:01.306243,25.0,0.1442839799855867,0.5447300810004917,0.2897724717384402
0420,cdot_cos,R,Q-R,227,45,45252,0.05506026126076391,0.06704516031213588,0.08746899909945964,0.8990510593323197,934.0,7.633519266534806,0.6240208254234685,9.401837573715126,-0.2157627018680447,0.03,0.999999999996226,-131.71839474800055,1.127560573134646,227,2026-10-07 23:17:01.336244,25.0,0.5273050714058668,1.9077092748723454,2.7989069159189013
0420,cdot_cos,S,R-S,228,45,45275,-0.0048764490634370635,-0.008913588401502703,-0.059936710324200976,0.18266162815968265,934.0,7.66401461554958,0.6242336725722033,9.425737600726482,-0.0789340542950024,0.023,0.9999999999961454,642.8493328962288,1.1325276694404738,228,2026-10-07 23:17:01.359244,25.0,0.17667291234257562,1.050541548147162,1.325884739772769
0420,cdot_cos,T,S-T,229,45,45532,-0.17549739064280376,0.0730186609086081,-0.1706209415793667,0.013849995912545095,934.0,7.681844177749576,0.6242498093760516,9.446629620131942,-0.046294992717000126,0.257,0.9999999999960519,2022.6472283425717,1.1374951746823585,229,2026-10-07 23:17:01.616243,25.0,0.4940969224959081,0.21326603773764471,0.06937572840465277
0420,cdot_cos,P,T-P,230,46,46051,0.04580067863350994,0.0015797489821323088,0.2212980692763137,0.9960593129940483,959.0,7.7736333589467295,0.6254096053156925,9.484822439433596,-0.23973930708329805,0.519,0.9999999999960393,-166.79168097984154,1.1424631448311682,230,2026-10-07 23:17:02.135243,25.0,0.4462417462760987,0.12013944532791727,0.176857767239217
0420,cdot_cos,Q,P-Q,231,46,46161,-0.006630053277122839,-0.005861084784750247,-0.052430731910632786,0.2123583085046012,959.0,7.806548921999954,0.6256566863948088,9.509175239068282,-0.08664116523175003,0.11,0.9999999999959437,619.6271377764264,1.1474303931054364,231,2026-10-07 23:17:02.245243,25.0,0.17083843951055222,0.5109854962010996,0.29923239139295016
0420,cdot_cos,R,Q-R,232,46,46189,0.05614766902976959,0.07306118652280219,0.06277772230689242,0.8277041972390877,959.0,7.886050168110971,0.6266191026419661,9.544394801319564,-0.2105565087911799,0.028,0.9999999999959135,-128.7544177744692,1.1523974957680798,232,2026-10-07 23:17:02.273243,25.0,0.5551519165309209,1.9699589615211899,2.839330218250621
0420,cdot_cos,S,R-S,233,46,46217,-0.0038256630495234387,-0.0072529202868101385,-0.05997333207929303,0.18252498050420693,959.0,7.916866623845141,0.626831199721481,9.568179985800457,-0.082171304255615,0.028,0.9999999999958294,605.3134009631751,1.1573645994207558,233,2026-10-07 23:17:02.301243,25.0,0.20963041360997228,0.8542924565453199,1.1005877047917587
0420,cdot_cos,T,S-T,234,46,46471,-0.2943228958109029,0.12726395636253768,-0.29049723276137945,0.0007009093643020101,959.0,7.933890545677509,0.6268320140959244,9.588703004527526,-0.045531265197889255,0.254,0.9999999999957296,44991.63665808792,1.1623321143058052,234,2026-10-07 23:17:02.555244,25.0,0.4472119566581217,0.21671192243096604,0.06702331430066406
0420,cdot_cos,P,T-P,235,47,47010,0.04662547195182634,-0.0020225500000110126,0.3409483677627292,0.9998013384381664,979.0,8.026956280440071,0.6279929318211142,9.626966666388098,-0.2503201386054278,0.539,0.9999999999957173,-176.40257269227305,1.167300155201589,235,2026-10-07 23:17:03.094244,25.0,0.44126580089145123,0.1164646562214677,0.17266370085818566
0420,cdot_cos,Q,P-Q,236,47,47116,-0.008310207200860769,-0.006060916601809426,-0.054935679152687114,0.20207237398769096,979.0,8.059439445084251,0.6282273890346641,9.651030371508805,-0.08803505013595969,0.106,0.9999999999956155,692.1735783355437,1.1722674003890963,236,2026-10-07 23:17:03.200243,25.0,0.15827606779181286,0.5432717641323154,0.30644494947339723
0420,cdot_cos,R,Q-R,237,47,47147,0.06374121090472719,0.07115039069130669,0.07205141810558796,0.8583053403733697,979.0,8.142129894436122,0.6292225758116581,9.686776628813409,-0.2254623900037554,0.031,0.9999999999955883,-138.0920074952233,1.1772345071093,237,2026-10-07 23:17:03.231244,25.0,0.5436032918871784,1.8161413640537858,2.667433850060347
0420,cdot_cos,S,R-S,238,47,47199,-0.0007135002278977364,-0.001912522409383413,-0.06445471113262492,0.16639880213601943,979.0,8.172040209655586,0.6294153850779891,9.710165839010541,-0.08210224195874344,0.052,0.9999999999954973,743.5334969787239,1.1822016545027507,238,2026-10-07 23:17:03.283243,25.0,0.17444996073239205,0.4526287928540749,0.5751983696050763
0420,cdot_cos,T,S-T,239,47,47429,-0.348380145477227,0.11919316978020897,-0.3476666452493293,0.00016795170383845652,979.0,8.189203288892946,0.6294155796658042,9.730546978348492,-0.04724770351771191,0.23,0.999999999995391,179119.8407059065,1.1871691388244245,239,2026-10-07 23:17:03.513243,25.0,0.47821347612384796,0.24179470968442235,0.07462208364069488
0420,cdot_cos,P,T-P,240,48,47989,0.04907215442926811,-0.0022868548703415255,0.3974522999064951,0.9999516167017916,977.0,8.28326577611042,0.6305733707551254,9.768819210412191,-0.2603652669770202,0.56,0.9999999999953794,-184.07255456098744,1.1921372557843055,240,2026-10-07 23:17:04.073244,25.0,0.441078241247161,0.1128783574895558,0.1679687271740615
0420,cdot_cos,Q,P-Q,241,48,48095,-0.0073701269488901985,-0.005399543020313631,-0.05644228137815831,0.1960673878149643,977.0,8.315627049281249,0.6308002111859811,9.792672082354313,-0.09024065778183368,0.106,0.9999999999952711,749.9748107225945,1.1971045049243922,241,2026-10-07 23:17:04.179244,25.0,0.15179378291749296,0.5458856237080177,0.3052950299134721
0420,cdot_cos,R,Q-R,242,48,48126,0.06387771448347292,0.07157841929496409,0.07124784143236311,0.8558444892792716,977.0,8.39899352833652,0.6317897038835424,9.828360761292531,-0.2338301496853836,0.031,0.9999999999952413,-145.1142512293792,1.2020716100790356,242,2026-10-07 23:17:04.210243,25.0,0.5411406577516201,1.8306272871449785,2.689241259847475
0420,cdot_cos,S,R-S,243,48,48178,-0.0009023877712022524,-0.002429478401294017,-0.06478010225467518,0.16527348517274967,977.0,8.429125941084237,0.6319806589491449,9.851623018133212,-0.08507230615627984,0.052,0.9999999999951453,779.020148325113,1.2070387574761294,243,2026-10-07 23:17:04.262244,25.0,0.17401656076441196,0.4583507588741521,0.5794694759176335
0420,cdot_cos,T,S-T,244,48,48408,-0.23728354551651784,0.1380938748285626,-0.2363811577453156,0.0027061218150063503,977.0,8.446662007259432,0.6319837852267332,9.871921875562071,-0.0496493607328957,0.23,0.9999999999950333,11330.710221164798,1.2120062549902566,244,2026-10-07 23:17:04.492243,25.0,0.489944937720744,0.24461753696879177,0.07624376597910815
0420,cdot_cos,P,T-P,245,49,48966,0.054781388021245235,0.003116089836463739,0.2920649335377631,0.999326011530083,958.0,8.541650008089881,0.6331375075465439,9.91018942703444,-0.270373645126406,0.558,0.9999999999950212,-191.31491226565322,1.2169744057856786,245,2026-10-07 23:17:05.050244,25.0,0.4420343865583207,0.11345006308383206,0.17022939216926403
0420,cdot_cos,Q,P-Q,246,49,49076,-0.005245203228024784,-0.004758388561031558,-0.06002659124927002,0.18232639497572453,958.0,8.573272277660989,0.6333478393970181,9.933693478630605,-0.09065854739110181,0.11,0.9999999999949056,854.4359654996806,1.2219416669126149,246,2026-10-07 23:17:05.160243,25.0,0.13774800242572516,0.5110978442900124,0.28747517791915683
0420,cdot_cos,R,Q-R,247,49,49107,0.05335288552026253,0.07414182767054918,0.058598088748287314,0.8122889354369124,958.0,8.654091533833684,0.6342842782545448,9.968580807012124,-0.23297282728475868,0.031,0.9999999999948694,-151.97391559501696,1.2269087704194694,247,2026-10-07 23:17:05.191243,25.0,0.5428826262986136,1.8351231477888648,2.60707277976437
0420,cdot_cos,S,R-S,248,49,49136,-0.002698337417384246,-0.005481026867990916,-0.05605122293764678,0.19761298240849948,958.0,8.687049912823898,0.6345119411785658,9.992324939615363,-0.09560943362233346,0.029,0.999999999994772,603.3630388133015,1.2318758709222732,248,2026-10-07 23:17:05.220243,25.0,0.2377076289854445,0.8738465234301517,1.1364958272487635
0420,cdot_cos,T,S-T,249,49,49405,-0.23613329420126405,0.09347953378475427,-0.23343495678387982,0.0029123629072066257,958.0,8.704774632192633,0.63451529595955,10.012503392260893,-0.05156800731633759,0.269,0.999999999994655,13127.95872904621,1.23684346129602,249,2026-10-07 23:17:05.489243,25.0,0.42568930353636925,0.21123679832253986,0.06589115006964555
0420,cdot_cos,P,T-P,250,50,49924,0.039230337806812905,-0.003461067200933054,0.27536363200807695,0.9989771006899757,940.0,8.800695310321425,0.6356652558581953,10.050771493399592,-0.28051691875533913,0.519,0.9999999999946404,-199.09295246617918,1.2418115694402525,250,2026-10-07 23:17:06.008243,25.0,0.44212265970692305,0.1255190062302032,0.18481826229054293
0420,cdot_cos,Q,P-Q,251,50,50015,-0.012990127398276256,-0.008152579630142263,-0.05222046520508916,0.213238880028601,940.0,8.835063360659584,0.6359105231009466,10.074739551625731,-0.10122723548188689,0.091,0.9999999999945247,730.9972634839056,1.2467787956066456,251,2026-10-07 23:17:06.099244,25.0,0.17013542824164682,0.6621844320848292,0.37767088283691375
0420,cdot_cos,R,Q-R,252,50,50043,0.0628988907927964,0.06579577663935851,0.07588901819107266,0.869577179483553,940.0,8.921212876960864,0.6369099781332209,10.110654708166582,-0.255176732588999,0.028,0.9999999999944941,-154.03344036079082,1.2517458915762345,252,2026-10-07 23:17:06.127244,25.0,0.547000596634721,2.0764764497103183,3.07676843933142
0420,cdot_cos,S,R-S,253,50,50068,-0.0041546313134323415,-0.0062167509691678354,-0.06705352210622874,0.15758098018521194,940.0,8.951346041843362,0.6370909687829621,10.133574458524699,-0.0898203939279164,0.025,0.9999999999943879,913.6181283261286,1.2567129822678669,253,2026-10-07 23:17:06.152243,25.0,0.15866399893803967,0.957844178284688,1.2053265952999226
0420,cdot_cos,T,S-T,254,50,50326,-0.276984051079247,0.14016302909337527,-0.27282941976581465,0.0010897294573775913,940.0,8.969105085875098,0.6370922202635799,10.153601438042658,-0.05307764462292841,0.258,0.9999999999942655,29359.423376036015,1.2616805665005117,254,2026-10-07 23:17:06.410244,25.0,0.5004511504797613,0.22228060727848092,0.06883350399897804
0420,cdot_cos,P,T-P,255,51,50864,0.052154818159003455,-0.0022575254278712543,0.3291388692382505,0.9997331272591761,937.0,9.066042835199058,0.6382395618890195,10.191891136090518,-0.2911798862090101,0.538,0.999999999994252,-207.52514883686098,1.266648751774643,255,2026-10-07 23:17:06.948243,25.0,0.4414390688093168,0.12051969974439919,0.18018169019323385
0420,cdot_cos,Q,P-Q,256,51,50971,-0.006244770661185141,-0.004820022234398295,-0.05839958882018859,0.18846889744085485,937.0,9.098784282800072,0.6384556818024156,10.215314486146465,-0.09902973902692426,0.107,0.9999999999941276,889.0904320784223,1.2716160156823544,256,2026-10-07 23:17:07.055244,25.0,0.14365686364224822,0.554113525452299,0.3059948373926516
0420,cdot_cos,R,Q-R,257,51,51000,0.06473626808240864,0.07712446422879501,0.07098103874359378,0.8550196169590398,937.0,9.18462312964585,0.6394354401192325,10.250953624882305,-0.26101452671919223,0.029,0.9999999999940945,-165.3313729640417,1.2765831121140123,257,2026-10-07 23:17:07.084243,25.0,0.5376234723640569,2.0087530835399057,2.9599602360613186
0420,cdot_cos,S,R-S,258,51,51016,-0.0013993049050020218,-0.0022757509342773733,-0.06613557298741066,0.1606513986520564,937.0,9.215291961645386,0.6396193997135617,10.2738325372112,-0.09382969523402238,0.016,0.9999999999939834,908.8127862792016,1.2815501811621208,258,2026-10-07 23:17:07.100243,25.0,0.16833652123681592,1.519249663308686,1.9168019999710184
0420,cdot_cos,T,S-T,259,51,51283,-0.26651962305734433,0.12850239132319288,-0.2651203181523423,0.0013210480565075456,937.0,9.233239118871728,0.6396209122567534,10.293748090127817,-0.05505341129219876,0.267,0.9999999999938551,25636.48043555455,1.286517801148656,259,2026-10-07 23:17:07.367244,25.0,0.49443511478577773,0.21688150602555792,0.06721781732712231
0420,cdot_cos,P,T-P,260,52,51801,0.043348317518827825,0.0021601303137191922,0.3098679405761722,0.9995680197066595,980.0,9.331106685863034,0.6407645784296621,10.33204249058729,-0.30167545938575313,0.518,0.9999999999938416,-215.6416390862859,1.291485979776451,260,2026-10-07 23:17:07.885243,25.0,0.4415306569745496,0.12582980934485183,0.18893352701024377
0420,cdot_cos,Q,P-Q,261,52,51912,-0.016912913392618554,-0.011760364387875588,-0.060261230911446376,0.18145350165133736,980.0,9.363598801352994,0.6409720193407047,10.355244929365483,-0.10083426964633505,0.111,0.9999999999937119,968.1850543846728,1.2964532571008118,261,2026-10-07 23:17:07.996243,25.0,0.13645028315781363,0.5345191167140299,0.29272176117081283
0420,cdot_cos,R,Q-R,262,52,51943,0.05211968777633626,0.0692938901440267,0.06903260116895481,0.8488763334952752,980.0,9.449769929773549,0.6419417689520299,10.390760454983278,-0.2687952103137926,0.031,0.999999999993677,-173.20031759324647,1.3014203564787945,262,2026-10-07 23:17:08.027244,25.0,0.5353332524006298,1.9460147351076391,2.7797138200178844
0420,cdot_cos,S,R-S,263,52,51972,-0.0022408108594799813,-0.004333670808912473,-0.05436049863581624,0.20440084932904942,980.0,9.484251714929668,0.6421751018136765,10.414355245217772,-0.10821831681343899,0.029,0.9999999999935659,688.1880776122608,1.3063874524543972,263,2026-10-07 23:17:08.056243,25.0,0.2267689525999076,0.9092643422145571,1.1890270743489384
0420,cdot_cos,T,S-T,264,52,52222,-0.23451869866830813,0.11067473293953849,-0.23227788780882816,0.0029975821086012733,980.0,9.502507261621993,0.6421785231890326,10.434191167095825,-0.05745295801381436,0.25,0.9999999999934318,14837.705167365084,1.3113550509829242,264,2026-10-07 23:17:08.306243,25.0,0.4132929165796832,0.23399753612703122,0.07302218676930039
0420,cdot_cos,P,T-P,265,53,52781,0.034100483551112094,-2.4891777231323646e-05,0.2686191822194202,0.9987894625279855,896.0,9.601250482993184,0.6433177115748684,10.47247922044525,-0.3122316980691763,0.559,0.9999999999934184,-223.64934827564198,1.316323360731055,265,2026-10-07 23:17:08.865243,25.0,0.4422002028701978,0.11624495612268836,0.17664261425973257
0420,cdot_cos,Q,P-Q,266,53,52890,-0.03166604364276506,-0.021252175379006352,-0.06576652719387716,0.1618993737413006,896.0,9.632469122567159,0.6435022168052124,10.495230201829763,-0.09936382582443465,0.109,0.9999999999932788,1153.7226985267487,1.3212906380107268,266,2026-10-07 23:17:08.974244,25.0,0.11738366397285561,0.5554894852693321,0.2864095373759182
0420,cdot_cos,R,Q-R,267,53,52920,0.04975942294507097,0.0696132234026098,0.08142546658783603,0.8844882185233265,896.0,9.722347190781898,0.6445094523679695,10.531398021225353,-0.28750404350104564,0.03,0.9999999999932468,-186.7886963418993,1.3262577333559324,267,2026-10-07 23:17:09.004243,25.0,0.5197582114395952,2.128811964948489,2.9959356071579775
0420,cdot_cos,S,R-S,268,53,52971,0.004043504486950185,-0.04750349096688248,-0.045715918458120786,0.24178868918112068,896.0,9.760197840464068,0.644784573813143,10.555605192166743,-0.12183429640140214,0.051,0.9999999999931356,602.1695146126032,1.3312248792007235,268,2026-10-07 23:17:09.055244,25.0,0.2567132291891145,0.5534381808520641,0.7421696016111765
0420,cdot_cos,T,S-T,269,53,53200,-0.20765732506953208,0.052787391949804696,-0.21170082955648226,0.005003902341303315,896.0,9.778797885228808,0.6447902665387821,10.575373521352896,-0.060043234802015,0.229,0.999999999992994,10854.389534411424,1.3361924444349504,269,2026-10-07 23:17:09.284243,25.0,0.35732502725232895,0.2580624031859397,0.08122290290279707
0420,cdot_cos,P,T-P,270,54,53677,0.035421363321488514,0.0009801325859745715,0.2430786883910206,0.9977101287981736,921.0,9.878390421123228,0.6459244984020868,10.613649779046987,-0.3229755274142392,0.477,0.9999999999929806,-231.8152937849578,1.3411606013758555,270,2026-10-07 23:17:09.761244,25.0,0.44304074114118186,0.13937040482098895,0.20878938342645673
0420,cdot_cos,Q,P-Q,271,54,53790,-0.02402440386745686,-0.01642005524382507,-0.05944576718894537,0.18450117040772973,921.0,9.911757251428032,0.6461340665090727,10.636737322129509,-0.10891043570947972,0.113,0.9999999999928416,1021.4583448957159,1.3461278937237993,271,2026-10-07 23:17:09.874244,25.0,0.14008372921184756,0.5439556181453659,0.2952816841133061
0420,cdot_cos,R,Q-R,272,54,53816,0.052123940668343485,0.07376381066185807,0.07614834453580034,0.8703106919761668,921.0,10.001324390824081,0.647121862596165,10.672635475075612,-0.2937932280945984,0.026,0.9999999999928078,-187.16696168471427,1.351094978354195,272,2026-10-07 23:17:09.900243,25.0,0.5329670787958944,2.3907213325763483,3.4448899767711194
0420,cdot_cos,S,R-S,273,54,53842,-0.003423751212551268,-0.0072867730859850375,-0.055547691880894756,0.19961660624541072,921.0,10.036074760722002,0.6473482491578962,10.695976753909418,-0.11466447675183314,0.026,0.9999999999926876,791.2516978610334,1.3560620641056733,273,2026-10-07 23:17:09.926244,25.0,0.2096744523251393,1.022705093533228,1.3365526883815777
0420,cdot_cos,T,S-T,274,54,54099,-0.2883604117972181,0.08990582078939541,-0.2849366605846668,0.0008053591763379478,921.0,10.054505055687809,0.6473491623873544,10.715563617105612,-0.06097514005940087,0.257,0.9999999999925419,58790.63165598747,1.3610297128611968,274,2026-10-07 23:17:10.183244,25.0,0.4145706368367247,0.23174206511634982,0.07171320998368419
0420,cdot_cos,P,T-P,275,55,54598,0.04770982532238747,-0.0020477348366491387,0.3360702371196056,0.9997755775569265,939.0,10.155190182191806,0.6484820165430389,10.753886423044856,-0.33459104202797607,0.499,0.9999999999925286,-241.52791477667338,1.365997959225281,275,2026-10-07 23:17:10.682244,25.0,0.4414183622195827,0.1363474084544106,0.20177380060921235
0420,cdot_cos,Q,P-Q,276,55,54705,-0.006439689943067259,-0.004950499974366925,-0.05414951526545473,0.2052599457247097,939.0,10.19057976932531,0.648714392103837,10.777282670575019,-0.11836071296520795,0.107,0.9999999999923875,930.5209563354606,1.3709652422206626,276,2026-10-07 23:17:10.789243,25.0,0.16091550617992056,0.5816818383921569,0.33074380498602635
0420,cdot_cos,R,Q-R,277,55,54736,0.06438951420235249,0.07754471930979254,0.07082920414541975,0.8545484430805014,939.0,10.279670095607727,0.6496810713659963,10.812877917339815,-0.2994065102744853,0.031,0.9999999999923509,-187.2863155302062,1.375932337713269,277,2026-10-07 23:17:10.820243,25.0,0.546247978459467,1.9552930462208027,2.8738814929811856
0420,cdot_cos,S,R-S,278,55,54750,-0.0007008021854679999,-0.0011412406734247439,-0.0650903163878205,0.1642063464531993,939.0,10.311807938191,0.6498666838781803,10.835472895864118,-0.10861906462675544,0.014,0.9999999999922211,1027.8803050660579,1.3808993916402599,278,2026-10-07 23:17:10.834244,25.0,0.1726511616511202,1.8096494888073522,2.295560184519501
0420,cdot_cos,T,S-T,279,55,55018,-0.4110232632812184,0.10595416349834887,-0.41032246109575043,3.507238110314884e-05,939.0,10.330340281294333,0.6498667235178006,10.854944248292403,-0.06278956214811963,0.268,0.9999999999920701,1156153.920191545,1.3858670852763608,279,2026-10-07 23:17:11.102243,25.0,0.48196178068478596,0.22415345706719475,0.06915053396765988
0420,cdot_cos,P,T-P,280,56,55537,0.041480825727889095,-0.001723357883911693,0.4525040890091075,0.9999877821729982,958.0,10.431954191179017,0.6509960898972975,10.893278512201105,-0.34576486983455135,0.519,0.9999999999920566,-250.56112243441254,1.3908354192637022,280,2026-10-07 23:17:11.621243,25.0,0.4411352018775637,0.13098270632410314,0.19578788031730934
0420,cdot_cos,Q,P-Q,281,56,55643,-0.016803044921975104,-0.011304449275094252,-0.0582838706498642,0.18891176891223146,958.0,10.466300330458752,0.6512092533079581,10.916287767646086,-0.11760275718639124,0.106,0.9999999999919071,1070.3624601478414,1.3958027043754708,281,2026-10-07 23:17:11.727243,25.0,0.14368835409304942,0.5884035234290521,0.32402018188429726
0420,cdot_cos,R,Q-R,282,56,55675,0.05602137829619624,0.06553542445552527,0.07282442321817134,0.8606393757214473,958.0,10.556695738145976,0.652179611246003,10.951989684365046,-0.3109616996710992,0.032,0.9999999999918705,-199.2655853099865,1.400769800939861,282,2026-10-07 23:17:11.759244,25.0,0.5369719012651235,1.9569139079675668,2.8248564902257356
0420,cdot_cos,S,R-S,283,56,55726,-0.001145148359108589,-0.04207920315447486,-0.057166526655304827,0.19322910609135632,958.0,10.591542820568677,0.6523973009409346,10.975052980514278,-0.12055353592991694,0.051,0.9999999999917396,874.6769744933548,1.405736948004813,283,2026-10-07 23:17:11.810244,25.0,0.2060886183887468,0.5365036067045045,0.6832761259353086
0420,cdot_cos,T,S-T,284,56,55956,-0.17105727315093838,0.0867359971629066,-0.1699121247918298,0.014094121177380585,958.0,10.611419106029835,0.6524131767255321,10.99469398308663,-0.06893856914157556,0.23,0.9999999999915822,3251.175806232615,1.410704560828086,284,2026-10-07 23:17:12.040244,25.0,0.4729764999119061,0.2647839764527296,0.0864186324398205
0420,cdot_cos,P,T-P,285,57,56495,0.02637501798044443,-0.0008222787363303168,0.1974322911313828,0.9928665925120569,917.0,10.713343449736932,0.6535306991929779,11.032900152131552,-0.35500666561764427,0.539,0.9999999999915684,-255.98420148984303,1.415672986541771,285,2026-10-07 23:17:12.579243,25.0,0.4467257114331034,0.12152440307835222,0.18909896791669184
0420,cdot_cos,Q,P-Q,286,57,56602,-0.05236226482453963,-0.029957201806721522,-0.07873728280498406,0.12255739766670701,917.0,10.742422412548299,0.653668526800021,11.054571174199765,-0.10188648973621287,0.107,0.9999999999914015,1836.498371493518,1.420640278734989,286,2026-10-07 23:17:12.686244,25.0,0.08338098164963566,0.5864686559221597,0.27176600758286723
0420,cdot_cos,R,Q-R,287,57,56632,0.04693321138693838,0.05883652763283728,0.09929547621147801,0.9228978154654741,917.0,10.838847742104274,0.6547055849294703,11.091449449634519,-0.3393495906360446,0.03,0.999999999991373,-228.97761866629904,1.4256073683426838,287,2026-10-07 23:17:12.716243,25.0,0.4967047454101436,2.2833307809537295,3.214177651865846
0420,cdot_cos,S,R-S,288,57,56685,0.0045783439678387895,-0.12770044928718388,-0.04235486741909959,0.257525136105927,917.0,10.879422259405523,0.6549947033514004,11.115662172960107,-0.14364352521994345,0.053,0.9999999999912466,676.9062452319052,1.4305745208589304,288,2026-10-07 23:17:12.769243,25.0,0.2560346091083359,0.5829960320643974,0.7655569302122338
0420,cdot_cos,T,S-T,289,57,56913,-0.13753219402544684,0.04893877687488654,-0.14211053799328563,0.027847663504314987,917.0,10.9006453215031,0.6550259605128673,11.135474855914236,-0.07534537651308909,0.228,0.9999999999910847,2185.040019682352,1.435542143963507,289,2026-10-07 23:17:12.997243,25.0,0.4039485822413987,0.2711744769380395,0.09308360569113043
0420,cdot_cos,P,T-P,290,58,57412,0.039513868236965406,0.0020760179302420955,0.17704606226241223,0.9881809308961276,919.0,11.003077820889269,0.6561342589351149,11.1735977679859,-0.36515806696057296,0.499,0.9999999999910696,-261.4933709458479,1.4405105040717432,290,2026-10-07 23:17:13.496243,25.0,0.4521851012360831,0.1424695115421354,0.20527554987208071
0420,cdot_cos,Q,P-Q,291,58,57524,-0.005419901579519652,-0.005225485803182135,-0.04493376981648506,0.24539148739896527,919.0,11.042829894022152,0.6564092160453201,11.1975374985733,-0.14257646362288762,0.112,0.9999999999909182,809.5139026285749,1.4454778155423558,291,2026-10-07 23:17:13.608243,25.0,0.20989697215658917,0.5759555261408779,0.35492922440073993
0420,cdot_cos,R,Q-R,292,58,57552,0.05752092341325582,0.08425834663582653,0.06294082499277548,0.8282849221331541,919.0,11.132091858744825,0.6573365207767979,11.23260665070353,-0.3216086167634009,0.028,0.9999999999908737,-193.06722705403513,1.4504448983435687,292,2026-10-07 23:17:13.636243,25.0,0.5731102896646301,2.213581213609547,3.1879273115240636
0420,cdot_cos,S,R-S,293,58,57581,-0.0020302450833270696,-0.004530208398012772,-0.05955116849658289,0.18410503166082212,919.0,11.166790441984286,0.6575424724205222,11.255349389463321,-0.12568091771022274,0.029,0.9999999999907307,951.3286493380956,1.4554119850747922,293,2026-10-07 23:17:13.665244,25.0,0.2103611275038776,0.9296971198737923,1.196502870326236
0420,cdot_cos,T,S-T,294,58,57834,-0.24736837593286556,0.08413938690811071,-0.24533813084953848,0.0021643828848809483,919.0,11.186014291697505,0.6575448932846621,11.274581571087948,-0.06979848146797564,0.253,0.99999999999056,23083.673024245014,1.4603796931450361,294,2026-10-07 23:17:13.918243,25.0,0.4490480474425425,0.24404407874089318,0.07598359570442335
0420,cdot_cos,P,T-P,295,59,58331,0.04235651151040418,0.00248198569529351,0.28972488744326974,0.9992854352959619,938.0,11.290276745827178,0.6586617173837793,11.312922292107553,-0.3800524262925198,0.497,0.9999999999905459,-277.80018811359196,1.4653480862873283,295,2026-10-07 23:17:14.415244,25.0,0.4420443231293937,0.14466020726101017,0.20978360991885883
0420,cdot_cos,Q,P-Q,296,59,58444,-0.004020507602341306,-0.0037548060108465614,-0.046377019112745485,0.23877169450523875,938.0,11.32980653771495,0.6589283142443799,11.336668326925095,-0.1449594145686252,0.113,0.9999999999903885,881.8296329306688,1.470315406119432,296,2026-10-07 23:17:14.528243,25.0,0.19754575468010982,0.5768250029158338,0.34982116714841843
0420,cdot_cos,R,Q-R,297,59,58471,0.06163131022570208,0.08684901629245595,0.06565181782804339,0.8377111318638188,938.0,11.420639196486157,0.6598628521598532,11.37190760542201,-0.3345670540296518,0.027,0.9999999999903446,-202.8891886799543,1.4752824844376597,297,2026-10-07 23:17:14.555244,25.0,0.5673803573494515,2.3130891376665743,3.364172547081747
0420,cdot_cos,S,R-S,298,59,58500,-0.0008520951065908253,-0.0018363674073729795,-0.0624834053322929,0.17334764754027218,938.0,11.454713351148945,0.660056081214775,11.394371727763813,-0.12616095303729044,0.029,0.9999999999901943,1078.544326973481,1.4802495696264137,298,2026-10-07 23:17:14.584243,25.0,0.19168411028762464,0.9186035775335675,1.1749708504409602
0420,cdot_cos,T,S-T,299,59,58752,-0.43063656405362005,0.06151453828979757,-0.4297844689470292,2.1560809101747424e-05,938.0,11.473918203983104,0.6600561052451028,11.413474155462087,-0.07127246191113976,0.252,0.9999999999900167,2284134.094822231,1.4852172925220344,299,2026-10-07 23:17:14.836244,25.0,0.46295658277101287,0.24684746560295984,0.0762097334688852
0420,cdot_cos,P,T-P,300,60,59269,0.041573686234101515,0.0019888564426355916,0.47221025028772157,0.999992534840213,959.0,11.579124473812836,0.6611697466384562,11.451833604907385,-0.39192995857756624,0.517,0.9999999999900031,-287.93604348782026,1.4901857819613629,300,2026-10-07 23:17:15.353244,25.0,0.4412472060314008,0.13820829449327554,0.2034937520884578
0420,cdot_cos,Q,P-Q,301,60,59382,-0.010544547891786368,-0.008555909416808944,-0.05211823412588788,0.21366797202138627,959.0,11.61682558048915,0.6614074672259164,11.475029615152366,-0.14127216141852253,0.113,0.999999999989835,1054.421915396881,1.4951531071926174,301,2026-10-07 23:17:15.466244,25.0,0.16960380881851705,0.5737461310984667,0.3336381121797718
0420,cdot_cos,R,Q-R,302,60,59410,0.056391615396397955,0.0771196435056053,0.06693616328818433,0.8420291461350952,959.0,11.70879109944109,0.6623434899887015,11.510341776892348,-0.3460668345180673,0.028,0.9999999999897888,-218.79240681089345,1.500120186457448,302,2026-10-07 23:17:15.494244,25.0,0.5533426721832149,2.2805907556479834,3.284482819712117
0420,cdot_cos,S,R-S,303,60,59440,-0.0017576478399773455,-0.003615169192061537,-0.0581492632363753,0.1894279363216891,959.0,11.744538662805438,0.6625538884677121,11.533045201829689,-0.13521363317687368,0.03,0.9999999999896366,1002.1612434306676,1.505087272797666,303,2026-10-07 23:17:15.524243,25.0,0.2102605395979842,0.9208801669455962,1.1915854454782604
0420,cdot_cos,T,S-T,304,60,59690,-0.2585063624176501,0.11174277448460213,-0.2567487145776728,0.0016280907300725977,959.0,11.764043909457826,0.6625556965167385,11.552092428712617,-0.07395148807698934,0.25,0.9999999999894519,33883.011027822824,1.5100550073119317,304,2026-10-07 23:17:15.774244,25.0,0.4367431983226285,0.2510836840667494,0.07802098660955181
0420,cdot_cos,P,T-P,305,61,60228,0.043068879244596674,-0.0025030838842159463,0.3015752416622468,0.9994685559463032,938.0,11.870080504838812,0.6636647409196403,11.59044608774215,-0.40351510365031695,0.538,0.9999999999894376,-297.15998269412916,1.515023599581668,305,2026-10-07 23:17:16.312243,25.0,0.4418734294452313,0.1295903615478643,0.19709404345908318
0420,cdot_cos,Q,P-Q,306,61,60319,-0.023085136488897377,-0.013602031044040263,-0.06615401573349405,0.16058923671714212,938.0,11.903483138483328,0.6638427685434405,11.612546786218958,-0.12782817892141707,0.091,0.9999999999892518,1548.5626266538484,1.5199908642857813,306,2026-10-07 23:17:16.403244,25.0,0.11570642101227108,0.7150538147956836,0.3670619081814861
0420,cdot_cos,R,Q-R,307,61,60365,0.05981953388518448,0.07179456773392882,0.08290467037408186,0.8882130451919688,938.0,12.000220299131627,0.6648265912610505,11.64874407928024,-0.3716890803760118,0.046,0.9999999999892139,-247.87077701052405,1.5249579957622292,307,2026-10-07 23:17:16.449243,25.0,0.5188769990550074,1.4327304609875553,2.1029817532238955
0420,cdot_cos,S,R-S,308,61,60419,-0.0012883469782971875,-0.004287388832642514,-0.06110788086348167,0.17833088892280546,938.0,12.035294340894183,0.665023946025372,11.671164092788231,-0.1354672015079141,0.054,0.9999999999890511,1196.9403408133983,1.52992515284011,308,2026-10-07 23:17:16.503244,25.0,0.17486221028413232,0.508817278137514,0.6495192918991834
0420,cdot_cos,T,S-T,309,61,60647,-0.22119922162927574,0.10249433783861174,-0.21991087465097856,0.004079179603225463,938.0,12.055172565170478,0.6650284596865547,11.690174792237997,-0.076951211412972,0.228,0.9999999999888581,12964.196408710912,1.5348928376403879,309,2026-10-07 23:17:16.731244,25.0,0.46746549274143556,0.2778673550044088,0.08718519419427893
0420,cdot_cos,P,T-P,310,62,61166,0.04257041205696732,-0.0024335562269626404,0.26376963368624307,0.9986336442669185,898.0,12.162001854776193,0.6661325500311904,11.72851559957571,-0.41504179166221755,0.519,0.9999999999888427,-306.2164087312799,1.5398614141728042,310,2026-10-07 23:17:17.250243,25.0,0.4428190465948786,0.1327515943725227,0.20583678151390136
0420,cdot_cos,Q,P-Q,311,62,61258,-0.03357658564692904,-0.019643795549155612,-0.07614699770389635,0.1296931084938554,898.0,12.192968720129157,0.6662758056542181,11.749944964854677,-0.12096801404286879,0.092,0.9999999999886453,2052.7904692621605,1.5448286854166053,311,2026-10-07 23:17:17.342243,25.0,0.0879484504370668,0.7064848892261323,0.336596362532215
0420,cdot_cos,R,Q-R,312,62,61293,0.0567798235820951,0.07299622846902312,0.09035640922902413,0.9054163470634484,898.0,12.291995074393801,0.6672750489151553,11.786470600110814,-0.38831464365839974,0.035,0.9999999999886094,-267.5490944665159,1.549795782442874,312,2026-10-07 23:17:17.377243,25.0,0.502339350028272,1.9172688647537024,2.829324407561273
0420,cdot_cos,S,R-S,313,62,61319,-0.004863463310610931,-0.008911538756852657,-0.06164328689270603,0.1763780138344847,898.0,12.327177540661916,0.6674695300901287,11.808784734531757,-0.1386776458503709,0.026,0.9999999999884409,1283.6049445004262,1.5547628527609632,313,2026-10-07 23:17:17.403244,25.0,0.1652783456522602,1.0644085853681253,1.3531717795428697
0420,cdot_cos,T,S-T,314,62,61588,-0.21221057494783546,0.06721034133647155,-0.20734711163722452,0.005576078797432865,898.0,12.347344320832944,0.6674756775586491,11.827742433913944,-0.07966887349564551,0.269,0.9999999999882424,9598.873448211325,1.5597306811188254,314,2026-10-07 23:17:17.672243,25.0,0.47679179587800613,0.23762482896622308,0.07496944301497363
0420,cdot_cos,P,T-P,315,63,62064,0.048128380036137376,0.0012266147822230153,0.26033895498397286,0.9985114659726286,960.0,12.455019698645744,0.6685755871067334,11.866083462308868,-0.426862198570666,0.476,0.9999999999882259,-315.65625162517904,1.5646991634706953,315,2026-10-07 23:17:18.148243,25.0,0.4433651376293429,0.15339218760534265,0.22620877691764732
0420,cdot_cos,Q,P-Q,316,63,62176,-0.004727536878575174,-0.0042444959996517035,-0.05285591691471255,0.21058580956190381,960.0,12.49337368343323,0.6688073233886119,11.889024228935911,-0.1528898119337868,0.112,0.99999999998804,1182.2593528123257,1.5696665020665144,316,2026-10-07 23:17:18.260243,25.0,0.16663329264176457,0.5909149470726722,0.34244629274541144
0420,cdot_cos,R,Q-R,317,63,62203,0.06150176582127491,0.08146312910433702,0.06622930269985008,0.8396643189338343,960.0,12.587384646790023,0.6697305061611378,11.924258035996722,-0.3762104970884448,0.027,0.9999999999879896,-241.90300317632165,1.5746335725075833,317,2026-10-07 23:17:18.287244,25.0,0.5523321610881776,2.3928597029055387,3.4818875317330553
0420,cdot_cos,S,R-S,318,63,62233,-0.00094735727109121,-0.001877187224978867,-0.06244912309236612,0.17347049654214128,960.0,12.62258810739013,0.6699210685381154,11.946449340924108,-0.14156078968282293,0.03,0.9999999999878156,1231.3538019797404,1.5796006537635383,318,2026-10-07 23:17:18.317244,25.0,0.19059782416193075,0.917432726066784,1.1734486866702198
0420,cdot_cos,T,S-T,319,63,62485,-0.3590116528371192,0.0983393101526731,-0.35806429556602803,0.00012951201391904975,960.0,12.64243061035403,0.6699212107899857,11.96522080888835,-0.07996537283811699,0.252,0.9999999999876086,433002.50971812545,1.5845684471035615,319,2026-10-07 23:17:18.569243,25.0,0.46288524040904316,0.25495372586850684,0.07874009112658906
0420,cdot_cos,P,T-P,320,64,63024,0.044554754753619204,-0.0004098115461190425,0.4035664075907384,0.9999584744524358,979.0,12.751084785227857,0.6710186047594974,12.003591702184103,-0.4393577310674859,0.539,0.9999999999875934,-327.49620301748774,1.5895371706279915,320,2026-10-07 23:17:19.108243,25.0,0.44131567514101133,0.1322478786326147,0.20158474002565305
0420,cdot_cos,Q,P-Q,321,64,63135,-0.022597886478288393,-0.014072853889215581,-0.06715264123190759,0.1572523095798415,979.0,12.784993823519988,0.6711910103860422,12.025423018494338,-0.13784889791025318,0.111,0.9999999999873872,1748.8340676560417,1.5945045110021379,321,2026-10-07 23:17:19.219244,25.0,0.11222589478934067,0.5923545812847703,0.30548683146064554
0420,cdot_cos,R,Q-R,322,64,63163,0.05403505221022834,0.06920468176132658,0.07663293868851673,0.8716719717182757,979.0,12.882587502273076,0.6721458423926141,12.061273601759236,-0.3981933056949263,0.028,0.9999999999873409,-272.65990875126454,1.5994715823552168,322,2026-10-07 23:17:19.247243,25.0,0.5200584212795997,2.4089560190347914,3.485488526895976
0420,cdot_cos,S,R-S,323,64,63193,-0.002930626338177537,-0.005557958599073679,-0.05696567854840588,0.19401307545051702,979.0,12.919895360585937,0.6723581715673225,12.083803711932045,-0.15296974796358387,0.03,0.9999999999871639,1154.9216355602202,1.6044386615479802,323,2026-10-07 23:17:19.277244,25.0,0.20127456210620276,0.9685021681629399,1.2435952770953662
0420,cdot_cos,T,S-T,324,64,63444,-0.19032015419838239,0.09466046628309775,-0.18738952786020485,0.009150644497197756,979.0,12.940697632362852,0.6723681843512411,12.102675007714389,-0.08548441443671907,0.251,0.9999999999869512,6739.917097494293,1.6094064692526686,324,2026-10-07 23:17:19.528243,25.0,0.4540962711203994,0.25908951173746747,0.08287757680045978
0420,cdot_cos,P,T-P,325,65,64003,0.04588713619357808,0.0025871826846187132,0.23620729039196048,0.9972821219667399,978.0,13.049958295478145,0.6734584849241275,12.14099379226677,-0.4504777511417444,0.559,0.9999999999869343,-334.7639593903586,1.61437530239718,325,2026-10-07 23:17:20.087244,25.0,0.44475304715441083,0.13331912340603966,0.19545735798800223
0420,cdot_cos,Q,P-Q,326,65,64113,-0.004762573430101494,-0.00416822929527445,-0.050649709623679574,0.21990111133973128,978.0,13.089748412330804,0.6736986450332296,12.163995633418292,-0.16493167823099314,0.11,0.9999999999867316,1188.98210855388,1.6193426445258796,326,2026-10-07 23:17:20.197243,25.0,0.1770542419963008,0.6065383739790193,0.3617283350241736
0420,cdot_cos,R,Q-R,327,65,64145,0.055689213906999865,0.07558149503711148,0.06045178733710136,0.8192529996091056,978.0,13.18339673775353,0.6745925712181399,12.19880289149846,-0.3896046548773637,0.032,0.9999999999866712,-251.3328062640087,1.6243097269140263,327,2026-10-07 23:17:20.229243,25.0,0.5617664256862067,2.0496280582595614,2.9265101694601614
0420,cdot_cos,S,R-S,328,65,64172,-0.0014694589325568107,-0.0028310887773473964,-0.057158672839556675,0.1932597165362576,978.0,13.220924608059416,0.6748032612920684,12.221256945586413,-0.1568541230186093,0.027,0.9999999999864863,1104.7057296954308,1.629276793689065,328,2026-10-07 23:17:20.256243,25.0,0.22675929411951212,1.0701781461319726,1.389921122440251
0420,cdot_cos,T,S-T,329,65,64442,-0.2650942672693865,0.12742822366844136,-0.2636248083368297,0.0013713049770895987,978.0,13.241186357644656,0.6748047560243848,12.239899776239266,-0.0848727514625277,0.27,0.9999999999862632,48156.69719765294,1.6342446832232032,329,2026-10-07 23:17:20.526243,25.0,0.4282238010932404,0.24178492163656462,0.07504351698236941
0420,cdot_cos,P,T-P,330,66,64981,0.041994898115813355,-0.0010245368374655508,0.30708916538519987,0.9995369577633182,938.0,13.351488465743161,0.6758933102527774,12.278262510171377,-0.46350553704219777,0.539,0.9999999999862431,-347.83088954490836,1.6392134933153573,330,2026-10-07 23:17:21.065243,25.0,0.4418037698596589,0.13436601294709408,0.20464213005288526
0420,cdot_cos,Q,P-Q,331,66,65090,-0.02478338809758111,-0.015572415615259214,-0.06677828621339446,0.15849656755092426,938.0,13.386032919601623,0.6760657480162832,12.29999061878908,-0.14591132106075552,0.109,0.9999999999860201,1841.7903916440657,1.644180836767353,331,2026-10-07 23:17:21.174243,25.0,0.11342370061650736,0.6169355677759343,0.316921595031764
0420,cdot_cos,R,Q-R,332,66,65120,0.05531861240620063,0.07044608883077336,0.08010200050378175,0.881064553069765,938.0,13.485980419518315,0.677023437830806,12.33600669815643,-0.4236329929992456,0.03,0.9999999999859706,-289.99125575629887,1.649147910134253,332,2026-10-07 23:17:21.204243,25.0,0.5191453410768776,2.279885459479066,3.33158333055638
0420,cdot_cos,S,R-S,333,66,65139,-0.004635276086754024,-0.008762657709793831,-0.05995388849295465,0.18259752094664972,938.0,13.522826047170367,0.6772217303677911,12.358189472653617,-0.1569170580803275,0.019,0.9999999999857755,1345.0629003699903,1.6541149466449516,333,2026-10-07 23:17:21.223244,25.0,0.1827336660173144,1.5126666904875228,1.9392435606343459
0420,cdot_cos,T,S-T,334,66,65400,-0.22717614497226782,0.09300035059279226,-0.2225408688855138,0.0038205930021427844,938.0,13.54346175375684,0.6772258786760779,12.376807119042029,-0.0880693521556198,0.261,0.9999999999855442,16596.574112955106,1.6590828243432554,334,2026-10-07 23:17:21.484244,25.0,0.45760715289456744,0.25230279276659406,0.07906400990985935
0420,cdot_cos,P,T-P,335,67,65919,0.04150248733830977,-0.003094398978320959,0.2686786323105776,0.9987912581826087,939.0,13.65452810499453,0.678309383746379,12.415153415934,-0.4754757633945231,0.519,0.9999999999855237,-357.5492370619469,1.6640516083377601,335,2026-10-07 23:17:22.003244,25.0,0.4427383307821771,0.14729644314228654,0.21400067675855264
0420,cdot_cos,Q,P-Q,336,67,66012,-0.005564744868392482,-0.003974669713965598,-0.047067232206702246,0.23564952104745332,939.0,13.696355461738534,0.678564741254282,12.438351961461139,-0.17999483202634184,0.093,0.9999999999853115,1157.1264686697514,1.6690189009106908,336,2026-10-07 23:17:22.096244,25.0,0.19366839976442424,0.7546355037115855,0.4497565241290819
0420,cdot_cos,R,Q-R,337,67,66040,0.0661401602824837,0.07167406310584921,0.07170490515087619,0.8572485175695927,939.0,13.794890308684884,0.6794927826273676,12.473884294557028,-0.4255491927473233,0.028,0.9999999999852558,-264.59419573565134,1.67398596553691,337,2026-10-07 23:17:22.124243,25.0,0.5615641192150765,2.3707861373445698,3.5191016766553673
0420,cdot_cos,S,R-S,338,67,66068,-0.0029714205405906866,-0.00456901184469019,-0.06911158082307439,0.1508705427287908,939.0,13.82911948542983,0.6796559657409305,12.49537783182483,-0.14850211115209497,0.028,0.9999999999850478,1697.7680811835435,1.6789530314252372,338,2026-10-07 23:17:22.152243,25.0,0.1548016915398989,0.9775996795769538,1.2224705980337727
