record_id,input,event,transition,event_index,k,peak,value_cos,value_sin,value_return,x_input,rr,knowledge,decision,decision_norm,entropy,delta_t,cosine_similarity,delta_h_over_delta_d,frobenius_norm,matrix_size,timestamp,scale,P,zdot,zdot_back
0323,cdot_cos,Q,P-Q,1,0,1362,-0.00953443820457323,-0.01009066946248968,-0.03522991869409069,0.1720376443554008,998.0,0.0008545353280204059,0.500213633819005,0.500213633819005,,,1.0,,0.004967141530112327,1,2026-10-08 02:16:17.446244,44.6,,,
0323,cdot_cos,R,Q-R,2,0,1392,0.13626028374259339,0.21155527300849716,0.1457947219471666,0.9985024775608659,998.0,0.00822257487401911,0.5014535555182288,0.709162419114089,-1.2060920029120325e-05,,0.9999999999999999,,0.009934283060224654,2,2026-10-08 02:16:17.476243,44.6,,,
0323,cdot_cos,S,R-S,3,0,1441,-0.0030863950751340843,-0.011946321884697002,-0.13934667881772747,0.00199550251835979,998.0,0.010087724396214892,0.5014560334831091,0.868547327754705,-6.158712984072158e-06,0.049,1.0,2.3818767941389694,0.014901424597190675,3,2026-10-08 02:16:17.525243,44.6,0.3835249031981804,0.0354312031413118,0.03806427596317921
0323,cdot_cos,T,S-T,4,0,1671,-0.12324137261679641,0.04958979306400608,-0.12015497754166232,0.00468398056197341,998.0,0.011694832781867667,0.5014618499321809,1.0029236998648083,-6.312986628901516e-06,0.23,0.9999999999999999,-0.02652368187604478,0.019868566162012706,4,2026-10-08 02:16:17.755244,44.6,0.9758586729109259,0.030607003098991108,0.006987427763707716
0323,cdot_cos,P,T-P,5,1,2230,0.024663525027502322,2.167480398468069e-05,0.14790489764429873,0.9986368029446455,998.0,0.0241669458217508,0.5027019203813625,1.124075666395629,-8.065730989099445e-05,0.559,0.9999999999999998,-0.059951693318033905,0.024835707872800733,5,2026-10-08 02:16:18.314244,44.6,0.39782989820994547,0.01519764297339634,0.02231147234326142
0323,cdot_cos,Q,P-Q,6,1,2359,-0.009059441417957882,-0.009615888812151016,-0.033722966445460203,0.18182310484156872,998.0,0.028685797626124776,0.5029276984955994,1.2319162388380454,-4.306905034363071e-05,0.129,1.0,0.16648318493763248,0.02980284945745858,6,2026-10-08 02:16:18.443244,44.6,0.41780348054652766,0.07722757876576442,0.03502985894863546
0323,cdot_cos,R,Q-R,7,1,2390,0.1242132583634573,0.20386133011554672,0.13327269978141518,0.9973852338213719,998.0,0.04409166114331802,0.5041661739393476,1.3338983157136688,-0.0002021795993880633,0.031,0.9999999999999999,-0.12847291389394663,0.0347699909837531,7,2026-10-08 02:16:18.474244,44.6,0.45521917162548703,0.29836020773715116,0.49696333926429825
0323,cdot_cos,S,R-S,8,1,2440,-0.0029687017770445114,-0.011535397330930394,-0.12718196014050182,0.003428098959649818,998.0,0.04718413050582815,0.504170430606671,1.4260093214446141,-5.089971505750591e-05,0.05,1.0,35.53951315362785,0.039737132563531785,8,2026-10-08 02:16:18.524243,44.6,0.05119484033227158,0.060469052377605734,0.06184938725020253
0323,cdot_cos,T,S-T,9,1,2669,-0.116839252983476,0.04598797317586355,-0.11387055120643148,0.0061899038560807645,998.0,0.050138566381078595,0.5041781166030608,1.5125343498392276,-5.1849303747180346e-05,0.229,1.0000000000000002,-0.12354789691765411,0.04470427444878891,9,2026-10-08 02:16:18.753243,44.6,0.9818522932326407,0.04659112317720921,0.012901466704150422
0323,cdot_cos,P,T-P,10,2,3228,0.019833524713204754,4.577034922275244e-05,0.13667277769668076,0.9977523186303338,979.0,0.06852286492098997,0.505416996144129,1.5982688760519579,-0.0003933600222561886,0.559,1.0000000000000002,-0.27566095587834744,0.049671417181827535,10,2026-10-08 02:16:19.312243,44.6,0.419711092224785,0.02227780514688369,0.03288783280842821
0323,cdot_cos,Q,P-Q,11,2,3338,-0.012258709970911618,-0.010433879342689393,-0.03209223468411637,0.19289408223101634,979.0,0.07504515253529456,0.5056564998191406,1.6770728829028665,-0.00016884438204078006,0.11,1.0000000000000002,0.9374204391834762,0.05463855888349741,11,2026-10-08 02:16:19.422244,44.6,0.2645514999595549,0.1227201768000314,0.059293523766405405
0323,cdot_cos,R,Q-R,12,2,3388,0.11189424093502398,0.1962200958668336,0.1241529509059356,0.9960779912898248,979.0,0.09552130381699687,0.5068932194690704,1.7559296205012025,-0.0006297148802149852,0.05,1.0,-0.3726555959552961,0.05960570044377409,12,2026-10-08 02:16:19.472243,44.6,0.4810078459504078,0.2448147398115641,0.40952302563404624
0323,cdot_cos,S,R-S,13,2,3438,-0.0032219054406140246,-0.014108019880061738,-0.11511614637563801,0.005857369193914249,979.0,0.09952662651645097,0.506900491680594,1.827655714568158,-0.00014085772944867267,0.05,1.0000000000000002,67.22262535647317,0.06457284206084579,13,2026-10-08 02:16:19.522244,44.6,0.03109917963508975,0.07940398324610867,0.08010645398908195
0323,cdot_cos,T,S-T,14,2,3668,-0.10722394518589985,0.03510355668289135,-0.10400203974528582,0.00957962551621923,979.0,0.10346170214160774,0.5069123852498564,1.896692471001405,-0.0001440209564262581,0.23,1.0000000000000002,-0.2659611179631593,0.06953998458288332,14,2026-10-08 02:16:19.752243,44.6,0.9782757872719576,0.05813899153252453,0.017109024457203345
0323,cdot_cos,P,T-P,15,3,4207,0.022035637220842716,2.3097139595966262e-05,0.12925958240674257,0.9968743341182079,978.0,0.12627056262141226,0.5081500077432616,1.9680565178200786,-0.0009447017750371297,0.539,0.9999999999999998,-0.6469507647747055,0.07450712910842082,15,2026-10-08 02:16:20.291244,44.6,0.42846391337831885,0.028472653560191314,0.04231699532431264
0323,cdot_cos,Q,P-Q,16,3,4337,-0.010707395227617504,-0.011749165542143366,-0.03274303244846022,0.18841544372262534,978.0,0.13415522267949398,0.5083839153219031,2.0335356621755203,-0.00037019400777165735,0.13,1.0000000000000002,2.456131479801227,0.07947427119650023,16,2026-10-08 02:16:20.421243,44.6,0.21184297587696527,0.12470238759139256,0.06065123121601324
0323,cdot_cos,R,Q-R,17,3,4367,0.11625233221841297,0.2080184613955212,0.12695972744603048,0.9965378724452868,978.0,0.15869318339517433,0.5096209996884404,2.1012212117678652,-0.0012954034641132698,0.03,0.9999999999999999,-0.7478951972623401,0.08444141259033737,17,2026-10-08 02:16:20.451244,44.6,0.4895714139295662,0.48737769315838064,0.8179320238560116
0323,cdot_cos,S,R-S,18,3,4416,-0.0027380631607278353,-0.011935007425207578,-0.1189903953791408,0.004932465550796728,978.0,0.16339788426899682,0.509627122482785,2.162164766141182,-0.00027317076252426545,0.049,0.9999999999999997,166.95525671247378,0.08940855424185823,18,2026-10-08 02:16:20.500243,44.6,0.023704237914302446,0.09902673266565355,0.0960143035473978
0323,cdot_cos,T,S-T,19,3,4646,-0.08569529334927016,0.022915237634638003,-0.08295723018854233,0.02412955341576973,978.0,0.16839780319640837,0.5096570750665758,2.221543687172527,-0.0002990585432279692,0.23,1.0,-0.8642920719133785,0.09437569772052157,19,2026-10-08 02:16:20.730243,44.6,0.9170766179628009,0.06826567722081839,0.021738777945267636
0323,cdot_cos,P,T-P,20,4,5185,0.021335198685565646,1.5287985313273905e-05,0.1070304920348358,0.9916205641307305,998.0,0.19480009579057328,0.510887934602933,2.2847603028099077,-0.0017284767131580197,0.539,0.9999999999999999,-1.1613170534149013,0.09934284495000768,20,2026-10-08 02:16:21.269243,44.6,0.4373675136363611,0.032875032912018765,0.04898384525819092
0323,cdot_cos,Q,P-Q,21,4,5315,-0.011811956006060423,-0.012561079979504704,-0.03314715469162607,0.18567479080242907,998.0,0.2038370886755646,0.5111183911807526,2.3422387191847887,-0.0006493390158438938,0.13,0.9999999999999999,4.682607489549705,0.10430998750446656,21,2026-10-08 02:16:21.399244,44.6,0.18977771214068326,0.1425812434268497,0.06951532988454864
0323,cdot_cos,R,Q-R,22,4,5345,0.12155921182191348,0.2008496274200994,0.1333711678279739,0.9973966620168209,998.0,0.2318712190815542,0.5123562606263137,2.4031638822775494,-0.0022014162782831295,0.03,0.9999999999999996,-1.253829527826978,0.10927712878495126,22,2026-10-08 02:16:21.429244,44.6,0.4940908909741311,0.5555851913577035,0.9344710135329864
0323,cdot_cos,S,R-S,23,4,5395,-0.003500003352282493,-0.013615896295338603,-0.12505921517419596,0.0037672298308893152,998.0,0.2371722001570268,0.5123609358592183,2.457196730328748,-0.00044811382581394895,0.05,0.9999999999999998,375.01927460048614,0.11424427049138589,23,2026-10-08 02:16:21.479244,44.6,0.01998791490119434,0.10537291774055463,0.10601962150945221
0323,cdot_cos,T,S-T,24,4,5624,-0.11979892787565166,0.0471552824827527,-0.11629892452336917,0.005558063068902037,998.0,0.24240851085560966,0.5123678335600843,2.510079508609437,-0.0004525909453114267,0.229,0.9999999999999997,-0.649074174776391,0.11921141521380366,24,2026-10-08 02:16:21.708243,44.6,0.990156568299886,0.07647720342145073,0.022865985583331232
0323,cdot_cos,P,T-P,25,5,6183,0.022168948887005647,5.218318784607837e-05,0.14196787676265732,0.998224271664618,1018.0,0.27219875932405124,0.5136065769257232,2.568032888314377,-0.002762567234128861,0.559,0.9999999999999999,-1.8647738933609064,0.12417856632980664,25,2026-10-08 02:16:22.267244,44.6,0.4333670753856355,0.03543136636863921,0.053292036616174564
0323,cdot_cos,Q,P-Q,26,5,6313,-0.01260337545458314,-0.013028442710381763,-0.034772324341588785,0.1749641613325594,1018.0,0.2820207784557483,0.5138236813837683,2.619996983569032,-0.000980923339429987,0.13,0.9999999999999994,8.20639018996357,0.1291457094687487,26,2026-10-08 02:16:22.397243,44.6,0.16262754481379502,0.157453694036845,0.0755539933207466
0323,cdot_cos,R,Q-R,27,5,6343,0.12103720351243168,0.18886562185460828,0.1336405789670148,0.9974276758755745,1018.0,0.31313671977363094,0.5150612384530033,2.6763367081557172,-0.0033366078199844724,0.03,0.9999999999999993,-1.903495635971476,0.13411285058811928,27,2026-10-08 02:16:22.427244,44.6,0.49360888985819595,0.6159739540842221,1.0371980439294215
0323,cdot_cos,S,R-S,28,5,6393,-0.004627270866984118,-0.016369056852026616,-0.1256644743794158,0.00366726340373089,1018.0,0.3189792157008016,0.5150657882737514,2.725471975387967,-0.0006654037268258558,0.05,0.9999999999999997,587.1009521212765,0.13907999232532806,28,2026-10-08 02:16:22.477243,44.6,0.01805358355019075,0.165723240368556,0.11684991854341353
0323,cdot_cos,T,S-T,29,5,6623,-0.03713079527204448,0.016982248777908077,-0.03250352440506036,0.19005433065012375,1018.0,0.32970904381048655,0.5153015773191332,2.774983925584589,-0.0012540256623792493,0.23,0.9999999999999994,-2.4963922077053318,0.14404713870171368,29,2026-10-08 02:16:22.707244,44.6,0.625386214315525,0.09122371614254182,0.0466514265638475
0323,cdot_cos,P,T-P,30,6,7201,0.024898642661907448,7.236670225510506e-05,0.06202943793395192,0.9408391916126331,979.0,0.36094212512637086,0.5164687178958531,2.82881567794204,-0.0038858561918203058,0.578,0.9999999999999991,-2.2549387639639304,0.14901429522912538,30,2026-10-08 02:16:23.285243,44.6,0.5079945331244182,0.036196472103438924,0.05403647286485176
0323,cdot_cos,Q,P-Q,31,6,7331,-0.010987642067856686,-0.012105998441506312,-0.035886284729764135,0.16790779075273432,979.0,0.37155216556206194,0.5166769942609456,2.876735766944982,-0.0013999818920198063,0.13,0.9999999999999992,11.935460361510078,0.15398143912957263,31,2026-10-08 02:16:23.415244,44.6,0.16937375014992392,0.17148027592182846,0.08161569565916216
0323,cdot_cos,R,Q-R,32,6,7361,0.12376835887913633,0.19897073395129514,0.13475600094699303,0.997552206900492,979.0,0.40552699686604626,0.5179142571476396,2.9297654784355953,-0.004754986299236165,0.03,0.9999999999999989,-2.7116342398186584,0.15894858004058193,32,2026-10-08 02:16:23.445244,44.6,0.49382402950543974,0.672653008877928,1.1324943767994775
0323,cdot_cos,S,R-S,33,6,7411,-0.0036641014770032836,-0.016196264520894992,-0.12743246035613962,0.0033901414497039943,979.0,0.4119113460947376,0.5179184615703858,2.9752150603753664,-0.0009399355502054574,0.05,0.9999999999999988,907.3899032864381,0.1639157218087413,33,2026-10-08 02:16:23.495244,44.6,0.017268989238369156,0.17033970756547334,0.1276869845738271
0323,cdot_cos,T,S-T,34,6,7641,-0.041891633033355954,0.013894942776221554,-0.03822753155635267,0.15382014420235712,979.0,0.4225609676225936,0.5181092252427049,3.0210699810312356,-0.0016005180885833325,0.23,0.9999999999999984,-3.4628319446114584,0.16888287014259323,34,2026-10-08 02:16:23.725244,44.6,0.6618406631278321,0.09741858107686255,0.04630270229502599
0323,cdot_cos,P,T-P,35,7,8180,0.025397787682502535,-1.5199491955048483e-06,0.06728942071585849,0.9526241648665856,997.0,0.4567238933900944,0.5192905248046499,3.0721641896846714,-0.005409065956399007,0.539,0.9999999999999988,-3.2240322357733575,0.17385003101961868,35,2026-10-08 02:16:24.264243,44.6,0.49455122955313463,0.042098558340154926,0.06338205151669907
0323,cdot_cos,Q,P-Q,36,7,8310,-0.011938382087640087,-0.012713908052966716,-0.03733616977014262,0.15906610657123407,997.0,0.4679432135132806,0.5194877537374325,3.1169265420143653,-0.0018679973964071729,0.13,0.9999999999999979,17.95410293019559,0.17881717585481938,36,2026-10-08 02:16:24.394243,44.6,0.15022071653159505,0.18392993826323076,0.08630246248604781
0323,cdot_cos,R,Q-R,37,7,8340,0.12531589691474168,0.20470968589796257,0.13725427900238177,0.9978097366887907,997.0,0.5045456773385344,0.5207248150150559,3.1674454141914983,-0.006408150898544919,0.03,0.9999999999999977,-3.6701120504396587,0.18378431655685998,37,2026-10-08 02:16:24.424243,44.6,0.49238386217367897,0.7245557695308102,1.2200821275084595
0323,cdot_cos,S,R-S,38,7,8390,-0.003375493592502941,-0.013212907535471377,-0.12869139050724462,0.003205629502808955,997.0,0.5114165596851292,0.5207287888784675,3.2099878588320325,-0.0012566882432343174,0.05,0.9999999999999977,1296.3361146705786,0.18875145838667054,38,2026-10-08 02:16:24.474244,44.6,0.01658532899011987,0.1439655101835291,0.13741764693189662
0323,cdot_cos,T,S-T,39,7,8619,-0.08367326061338969,0.027427601611599763,-0.08029776702088674,0.027085955029259444,997.0,0.5189422283568873,0.5207623659183919,3.252159954126777,-0.0013959460163750098,0.229,0.9999999999999974,-4.147410654853744,0.19371860889488865,39,2026-10-08 02:16:24.703244,44.6,0.9050557730413917,0.09890496097961111,0.032863181972742704
0323,cdot_cos,P,T-P,40,8,9177,0.02423954624734881,0.00013216608735143744,0.1079128068607385,0.9919412960593105,980.0,0.5567150318137911,0.5219918918948178,3.301366621242485,-0.007313018890057446,0.558,0.9999999999999972,-4.812483011447031,0.19868577676055685,40,2026-10-08 02:16:25.261244,44.6,0.4452519645665573,0.04473241217187532,0.06769319615932583
0323,cdot_cos,Q,P-Q,41,8,9288,-0.012195037893891718,-0.010505002263997577,-0.036434584141240525,0.1645188748012125,980.0,0.5688636003407002,0.52219579012522,3.343684552146638,-0.0024610975553705297,0.111,0.9999999999999963,23.795799135262044,0.20365292155061168,41,2026-10-08 02:16:25.372243,44.6,0.1392553244935451,0.23056681583575192,0.10944656330548687
0323,cdot_cos,R,Q-R,42,8,9319,0.13320379352007106,0.1883731987063699,0.1453988314139628,0.9984758420749081,980.0,0.607900864929328,0.523433100741444,3.392234231950301,-0.00826605944471042,0.031,0.9999999999999963,-4.691596284088568,0.20862006206268577,42,2026-10-08 02:16:25.403244,44.6,0.49546195156787953,0.7467981576729716,1.2592665996331576
0323,cdot_cos,S,R-S,43,8,9368,-0.004515743395813318,-0.012489117222389608,-0.13771953691588437,0.002145379047445063,980.0,0.6151650861164244,0.5234357589895824,3.4323978442173124,-0.0015987049485870852,0.049,0.9999999999999964,2508.1761178878937,0.2135872038768928,43,2026-10-08 02:16:25.452243,44.6,0.015444965752477726,0.1482932358927158,0.14824941198155822
0323,cdot_cos,T,S-T,44,8,9598,-0.12434970459109104,0.0585559924313666,-0.11983396119527773,0.004751204109762286,980.0,0.6224336020468142,0.5234416460002509,3.4721191125913147,-0.001618655734806646,0.23,0.9999999999999954,-3.3889502402806344,0.21855435692853373,44,2026-10-08 02:16:25.682244,44.6,0.9877501204209338,0.10343199576962493,0.03160224317560781
0323,cdot_cos,P,T-P,45,9,10157,0.024381367157873216,-3.926390088675686e-05,0.14873107174896427,0.998686054202519,998.0,0.6627438041704519,0.5246789274182883,3.5196532817916233,-0.009319729151403467,0.559,0.9999999999999957,-6.224189019837261,0.22352153197324726,45,2026-10-08 02:16:26.241244,44.6,0.437657146953842,0.0476437363560626,0.07211127392421765
0323,cdot_cos,Q,P-Q,46,9,10286,-0.01162188836647896,-0.012298152233497353,-0.03600325552435218,0.16718017539266894,998.0,0.6756992992928922,0.5248860193010928,3.559950234037801,-0.0031193297539689768,0.129,0.9999999999999944,29.94033041500955,0.2284886788773403,46,2026-10-08 02:16:26.370244,44.6,0.13700545873501507,0.2101814705376765,0.10043019474759937
0323,cdot_cos,R,Q-R,47,9,10316,0.12223443791017707,0.19803687488838032,0.13385632627665603,0.9974522461645294,998.0,0.7169706235691724,0.526121417688958,3.606906767326078,-0.010336992606610784,0.03,0.9999999999999941,-5.842376777837543,0.23345581902025392,47,2026-10-08 02:16:26.400243,44.6,0.49746193384138954,0.8163630252875809,1.3757108092093406
0323,cdot_cos,S,R-S,48,9,10366,-0.003961585489386071,-0.015265014841208693,-0.12619602339956315,0.0035816534539366363,998.0,0.724681080810147,0.5261258531927823,3.64510688554533,-0.001999114571115723,0.05,0.9999999999999934,1879.80404614883,0.2384229609155,48,2026-10-08 02:16:26.450243,44.6,0.01544012737541215,0.16126447459709814,0.15420914481949266
0323,cdot_cos,T,S-T,49,9,10596,-0.08514788509488752,0.028309245245474148,-0.08118629960550144,0.02606099408586518,998.0,0.7330970710288822,0.5261581268886045,3.683106938813581,-0.002206433900302531,0.23,0.9999999999999932,-6.423786427453809,0.243390116754458,49,2026-10-08 02:16:26.680243,44.6,0.9103180191059199,0.11034191809795783,0.036591261820587744
0323,cdot_cos,P,T-P,50,10,11155,0.027996254276798676,-7.215338852934166e-05,0.1131441393716862,0.9936075748516919,958.0,0.7754383631352076,0.5273884358917379,3.729199448952913,-0.01148415676489312,0.559,0.9999999999999929,-7.540969659623688,0.2483572998537549,50,2026-10-08 02:16:27.239244,44.6,0.4458059584385816,0.04919913877502145,0.07574470859807768
0323,cdot_cos,Q,P-Q,51,10,11265,-0.012804420337517858,-0.011211630665317926,-0.04080067461431654,0.13946866376278025,958.0,0.7881017081793562,0.527561103098667,3.767539928095191,-0.0035597575019189883,0.11,0.9999999999999915,45.89406062627752,0.25332444637966706,51,2026-10-08 02:16:27.349244,44.6,0.10794790969799274,0.2548848426714893,0.11512131858316878
0323,cdot_cos,R,Q-R,52,10,11315,0.11985850511923321,0.18689032777538403,0.13266292545675107,0.9973133406923542,958.0,0.8315130285229353,0.528795618176229,3.813199502038044,-0.012637361976218717,0.05,0.9999999999999915,-7.353174245734396,0.2582915880024715,52,2026-10-08 02:16:27.399244,44.6,0.4875732095341803,0.5151903661380453,0.8682264068715817
0323,cdot_cos,S,R-S,53,10,11365,-0.002962058214324766,-0.014905713490659559,-0.12282056333355798,0.004161136923117219,958.0,0.8396207447931607,0.5288007682737268,3.8497277741900375,-0.0024352914995571634,0.05,0.9999999999999902,1980.9470560558723,0.2632587299089308,53,2026-10-08 02:16:27.449243,44.6,0.015157489745583142,0.16920096605839707,0.1621543254045088
0323,cdot_cos,T,S-T,54,10,11594,-0.08470682398271315,0.028499523960866892,-0.08174476576838838,0.025436201902824383,958.0,0.848433125128775,0.528832249661473,3.8861075860352705,-0.002673730108049507,0.229,0.9999999999999897,-7.573954821001927,0.26822588870096425,54,2026-10-08 02:16:27.678244,44.6,0.9146825044025921,0.11609624800366203,0.03848201019918894
0323,cdot_cos,P,T-P,55,11,12113,0.023160877409996623,7.936276783249868e-05,0.10786770139270976,0.9919251990540575,998.0,0.892792826378838,0.5300597351819883,3.9310282847496163,-0.01387892276223034,0.519,0.9999999999999893,-9.128574200595576,0.27319307664981385,55,2026-10-08 02:16:28.197243,44.6,0.44603707778770485,0.057004707693561404,0.0854714860309498
0323,cdot_cos,Q,P-Q,56,11,12243,-0.010672143192633893,-0.011418100840791553,-0.03383302060263052,0.18109405202332912,998.0,0.9076040117146917,0.5302837962600886,3.9682806604655374,-0.0047912242653163125,0.13,0.9999999999999879,40.55902334294822,0.27816022634911997,56,2026-10-08 02:16:28.327244,44.6,0.15005726588421095,0.23189519409533202,0.11393219489118303
0323,cdot_cos,R,Q-R,57,11,12273,0.12521438574895674,0.2112679193827408,0.13588652894159065,0.9976722883437502,998.0,0.9530855768436243,0.5315179585801106,4.012872683891472,-0.015200741070933003,0.03,0.9999999999999876,-8.434479514356532,0.2831273658470538,57,2026-10-08 02:16:28.357243,44.6,0.5041894218103087,0.8988192635162892,1.516052170964418
0323,cdot_cos,S,R-S,58,11,12323,-0.003058160018113961,-0.012037159541764073,-0.1282725457670707,0.003265877595907944,998.0,0.9615331675256691,0.5315219979823911,4.047951034870727,-0.0029051606848260127,0.05,0.9999999999999863,3043.91083939288,0.2880945078542592,58,2026-10-08 02:16:28.407244,44.6,0.014518614579366944,0.16830909293055973,0.1689518136408963
0323,cdot_cos,T,S-T,59,11,12553,-0.13043544048759786,0.050515461390539855,-0.1273772804694839,0.0033984665513891294,998.0,0.9699164861366802,0.5315262013729991,4.082730320053809,-0.0029083983609133695,0.23,0.9999999999999855,-0.7702534428217273,0.2930616702083397,59,2026-10-08 02:16:28.637243,44.6,0.9988874032241646,0.11957093413700953,0.03644921135222243
0323,cdot_cos,P,T-P,60,12,13111,0.022930140776429,4.7222234741833606e-05,0.15336558126402686,0.9989311525317068,979.0,1.0165357972286935,0.5327615321298698,4.126753189174302,-0.016628764439186098,0.558,0.9999999999999856,-11.106633589395283,0.29802887173910436,60,2026-10-08 02:16:29.195244,44.6,0.43819189477992854,0.05502585976455968,0.08354715249464735
0323,cdot_cos,Q,P-Q,61,12,13221,-0.013627037519026483,-0.011675524433800467,-0.03655717829545548,0.16376870424713919,979.0,1.0313253456339289,0.5329640192016647,4.16258218485747,-0.005438112551886292,0.11,0.999999999999983,55.266006802810004,0.3029960205091056,61,2026-10-08 02:16:29.305243,44.6,0.1277322373477461,0.28297657717411095,0.13445044004759443
0323,cdot_cos,R,Q-R,62,12,13252,0.12977843450058543,0.18237475622690144,0.1434054720196119,0.9983343687063647,979.0,1.0787906442069979,0.5341981435256631,4.206280518493858,-0.017977557094955632,0.031,0.9999999999999831,-10.160600758960271,0.30796315975885563,62,2026-10-08 02:16:29.336244,44.6,0.49782559340243737,0.9068463032937724,1.531138663647388
0323,cdot_cos,S,R-S,63,12,13301,-0.005556602904236864,-0.015264223646688292,-0.1353350374048223,0.0023855369228250245,979.0,1.0875498164381427,0.5342010919914384,4.240089848923245,-0.003405944429218464,0.049,0.9999999999999819,4942.099985612337,0.3129303016812124,63,2026-10-08 02:16:29.385243,44.6,0.01386637497359379,0.18729085350408922,0.17875861696214004
0323,cdot_cos,T,S-T,64,12,13531,-0.0875944513074122,0.03548406278026835,-0.08203784840317534,0.025114172429915614,979.0,1.0971451478503986,0.5342321323543657,4.273857190432266,-0.0037626589916759743,0.23,0.9999999999999803,-11.491958495863926,0.31789746774740857,64,2026-10-08 02:16:29.615244,44.6,0.9095513245435757,0.12586299994250827,0.04171883222719948
0323,cdot_cos,P,T-P,65,13,14090,0.023286964292675315,3.615860987827346e-05,0.11088141560008752,0.992933589464627,977.0,1.1454467964116966,0.5354591535628239,4.317009850765714,-0.01943600522043234,0.559,0.9999999999999802,-12.773492520516955,0.3228646800130374,65,2026-10-08 02:16:30.174243,44.6,0.44645895859335766,0.05743153630151825,0.08640724250679414
0323,cdot_cos,Q,P-Q,66,13,14220,-0.011221385286346851,-0.012364311978675931,-0.034508349579022164,0.17667016226013443,977.0,1.161353605435496,0.5356774297982672,4.35186417808593,-0.006583559584493028,0.13,0.9999999999999777,58.881561750599104,0.32783183293605617,66,2026-10-08 02:16:30.304243,44.6,0.14196096815702544,0.2508010488199665,0.12236006941384218
0323,cdot_cos,R,Q-R,67,13,14250,0.1190642040328783,0.20634892083580803,0.13028558931922515,0.9970137236268365,977.0,1.2106550691048878,0.5369089830624718,4.394789603882865,-0.02097430860566369,0.03,0.9999999999999774,-11.685039891850968,0.33279897161154043,67,2026-10-08 02:16:30.334244,44.6,0.5035294119372432,0.9745921605121407,1.6433821223130605
0323,cdot_cos,S,R-S,68,13,14300,-0.003447728497537345,-0.0152855167447694,-0.12251193253041565,0.004218567424056618,977.0,1.2198291350662245,0.5369141930684339,4.427508031275288,-0.003999130345896875,0.05,0.9999999999999758,3258.18787603326,0.3377661136880685,68,2026-10-08 02:16:30.384243,44.6,0.014339785186801167,0.23870875815467762,0.1834813192267326
0323,cdot_cos,T,S-T,69,13,14529,-0.04422255740051894,0.01445073120068858,-0.0407748289029816,0.13960706728938121,977.0,1.2345259449203556,0.5370866057312438,4.461376588559187,-0.006469177692277152,0.229,0.9999999999999742,-14.326368528418952,0.3427332837462286,69,2026-10-08 02:16:30.613244,44.6,0.6826193990830866,0.13870923951215303,0.06417820897000494
0323,cdot_cos,P,T-P,70,14,15067,0.027353250671144864,0.0001834744884624676,0.0715758080716638,0.9605427635701943,940.0,1.2833579667627906,0.538272619264191,4.50351202347714,-0.022043110004874678,0.538,0.9999999999999739,-13.131327661916735,0.34770050468882585,70,2026-10-08 02:16:31.151244,44.6,0.493357333566171,0.059665741562849074,0.09076583985582705
0323,cdot_cos,Q,P-Q,71,14,15178,-0.011725468058022211,-0.010783386667610912,-0.03907871872916707,0.14894357911380732,940.0,1.2987262828419812,0.5384564863199112,4.537115214003913,-0.00711384665518296,0.111,0.9999999999999709,81.19596678816681,0.3526676563757378,71,2026-10-08 02:16:31.262244,44.6,0.12262549199365629,0.2997670892453372,0.13845329801072656
0323,cdot_cos,R,Q-R,72,14,15226,0.12829747109621148,0.20562956152902234,0.1400229391542337,0.9980636708566766,940.0,1.3499062605752554,0.5396882981425837,4.579407283294257,-0.024291893074617668,0.048,0.9999999999999706,-13.94534952762962,0.35763479779775925,72,2026-10-08 02:16:31.310244,44.6,0.493046687218514,0.6317401727400964,1.0662495361098794
0323,cdot_cos,S,R-S,73,14,15278,-0.0022882182220816337,-0.014364740051484732,-0.13058568931829312,0.0029466899672282356,940.0,1.3593733394250305,0.5396919342419567,4.6111301282065735,-0.004596305393184945,0.052,0.9999999999999684,5416.680255625708,0.3626019403206816,73,2026-10-08 02:16:31.362243,44.6,0.013772365758139348,0.1804450359282574,0.18205920864952013
0323,cdot_cos,T,S-T,74,14,15508,-0.17407337034997208,0.04705584464168736,-0.17178515212789044,0.0004703242442268049,940.0,1.3686725443117942,0.5396925146031608,4.642610777482411,-0.004546073596344719,0.23,0.9999999999999661,86.55264425988813,0.3675691148458223,74,2026-10-08 02:16:31.592243,44.6,0.9890113309369263,0.13375312861548996,0.04043132559462488
0323,cdot_cos,P,T-P,75,15,16007,0.023959327513855263,3.1355784885079755e-05,0.19803269786382735,0.9998540730293384,979.0,1.4208997785881559,0.5409260485060334,4.684557232207109,-0.02609755011420547,0.499,0.9999999999999662,-17.471328893086994,0.3725363400745127,75,2026-10-08 02:16:32.091244,44.6,0.4378825373706984,0.0688907060292281,0.10466379614501337
0323,cdot_cos,Q,P-Q,76,15,16137,-0.012625579226163607,-0.0138933951081057,-0.036584906740018866,0.16359941199071495,979.0,1.4374254689289638,0.5411278360490842,4.717443374184768,-0.008460721229766847,0.13,0.9999999999999626,87.40296163871875,0.3775034969630487,76,2026-10-08 02:16:32.221244,44.6,0.12436259405485843,0.26711650184991004,0.12712069492929212
0323,cdot_cos,R,Q-R,77,15,16167,0.12652098208536638,0.21247040568301825,0.13914656131153,0.9979866434424812,979.0,1.4903500690691325,0.5423584828564757,4.759176648176112,-0.02774289362715178,0.03,0.999999999999962,-15.668323585266455,0.3824706348242791,77,2026-10-08 02:16:32.251244,44.6,0.49905895358907165,1.0450661466652005,1.7641533380056216
0323,cdot_cos,S,R-S,78,15,16217,-0.003425433785331674,-0.014988030343122193,-0.12994641587069805,0.0030316555934536567,979.0,1.5001294377288759,0.5423622205008218,4.790013710770822,-0.005236094692885951,0.05,0.9999999999999596,6021.653439962939,0.3874377771192585,78,2026-10-08 02:16:32.301243,44.6,0.01359036523011642,0.2569745600112383,0.19558737319486763
0323,cdot_cos,T,S-T,79,15,16446,-0.0434937943690416,0.014517431906967106,-0.040068360583709925,0.1434349204095601,979.0,1.5160475250702563,0.5425390519904402,4.822192851556332,-0.008595621294361647,0.229,0.9999999999999571,-18.99846350175955,0.39240495629802474,79,2026-10-08 02:16:32.530244,44.6,0.676487285686391,0.1486093206824863,0.06951129843397576
0323,cdot_cos,P,T-P,80,16,16986,0.026853549981222743,-7.842036199154238e-05,0.07034734435026434,0.9584130153414652,978.0,1.5681925066014546,0.5437203392148172,4.863182851408394,-0.028781400051742942,0.54,0.9999999999999567,-17.087951465848004,0.3973722025328628,80,2026-10-08 02:16:33.070244,44.6,0.49591633375543925,0.06347273389269519,0.09656478061333015
0323,cdot_cos,Q,P-Q,81,16,17095,-0.01231935331099016,-0.010431078341687224,-0.0391729032922129,0.1484118944636495,978.0,1.5845980776743671,0.5439032199319098,4.895129315556623,-0.009255708203874259,0.109,0.9999999999999529,106.76736267378922,0.4023393570273174,81,2026-10-08 02:16:33.179244,44.6,0.12128843927684975,0.32591811396013337,0.15050982635699556
0323,cdot_cos,R,Q-R,82,16,17144,0.1279128064782671,0.19009927440149116,0.14023215978925727,0.9980816206700466,978.0,1.6392426554447637,0.5451327971944936,4.9363877732893995,-0.031510270174581426,0.049,0.9999999999999524,-18.099360363855936,0.4073064987291235,82,2026-10-08 02:16:33.228243,44.6,0.49348453277512117,0.660589259838795,1.1151954647019704
0323,cdot_cos,S,R-S,83,16,17195,-0.0035795624340125313,-0.015518574641282753,-0.13149236891227964,0.002830239602288912,978.0,1.649335825138569,0.5451362831063247,4.966428244334723,-0.005936995412404774,0.051,0.999999999999949,7336.179456452516,0.4122736413333134,83,2026-10-08 02:16:33.279244,44.6,0.013467930811634063,0.207962172560596,0.1979052881138306
0323,cdot_cos,T,S-T,84,16,17425,-0.08425633238215849,0.03405898944874325,-0.08067676994814596,0.026644051083892725,978.0,1.6604547970459445,0.545169099479519,4.996557677934432,-0.0065825003492607365,0.23,0.9999999999999463,-19.670209533333967,0.41724082564670323,84,2026-10-08 02:16:33.509243,44.6,0.9065910697858106,0.14438849607823465,0.04834335611902361
0323,cdot_cos,P,T-P,85,17,17964,0.024884206975663493,-1.92832666902519e-05,0.10914053935782198,0.9923674242465428,958.0,1.715754533334557,0.5463910754469795,5.037477178168543,-0.03337967866854929,0.539,0.9999999999999459,-21.929382437019026,0.42220808489782286,85,2026-10-08 02:16:34.048243,44.6,0.4480729747883436,0.06707923590095831,0.10259691333694343
0323,cdot_cos,Q,P-Q,86,17,18074,-0.01386030864483454,-0.012177418219490572,-0.038744515620498035,0.15084288922373834,958.0,1.7327662133471775,0.5465767709766342,5.068744867436636,-0.010487682338410464,0.11,0.9999999999999407,123.27704588642432,0.4271752412526409,86,2026-10-08 02:16:34.158243,44.6,0.11273101064718737,0.3331438871953721,0.15465163647836858
0323,cdot_cos,R,Q-R,87,17,18122,0.12474206308706348,0.18539743295657346,0.13860237173189802,0.9979372817513462,958.0,1.7890461885175388,0.5478049553647322,5.109584888955441,-0.03541737811386397,0.048,0.9999999999999404,-20.298007381497438,0.4321423826737062,87,2026-10-08 02:16:34.206244,44.6,0.4946607262446979,0.6946158182336107,1.1724994827158608
0323,cdot_cos,S,R-S,88,17,18174,-0.00375792958958447,-0.019005575305739555,-0.12849999267664794,0.0032330221371233412,958.0,1.7994493318976041,0.5478089333817334,5.138903734574469,-0.006670718655969652,0.052,0.9999999999999368,7226.379235902249,0.4371095255980266,88,2026-10-08 02:16:34.258244,44.6,0.013441885216669955,0.2716789643924885,0.2000604496166407
0323,cdot_cos,T,S-T,89,17,18402,-0.040378000454825695,0.010839495651277849,-0.036620070865241224,0.1633849246872761,958.0,1.8173008008143576,0.5480099596132866,5.16991604774682,-0.011535975388699451,0.228,0.9999999999999335,-24.202098876052656,0.4420767147637519,89,2026-10-08 02:16:34.486243,44.6,0.6559003181283007,0.15967014279461497,0.07829591630155039
0323,cdot_cos,P,T-P,90,18,18922,0.025748045140133763,9.131011163610397e-05,0.06612604559495946,0.950226687774242,958.0,1.8722589170119486,0.549178791007055,5.209967916712721,-0.036213376062279506,0.52,0.9999999999999328,-21.112883179854833,0.4470439838977006,90,2026-10-08 02:16:35.006243,44.6,0.5058857860407917,0.06926704148786185,0.1056886849953672
0323,cdot_cos,Q,P-Q,91,18,19033,-0.014667924398601014,-0.01301765779523656,-0.040415969538734775,0.14154066613384528,958.0,1.889338523961734,0.5493528477419402,5.240492672756043,-0.011473151788804294,0.111,0.9999999999999277,142.13885081667536,0.4520111424567152,91,2026-10-08 02:16:35.117243,44.6,0.11574588447520553,0.3376288584248289,0.15387033288094942
0323,cdot_cos,R,Q-R,92,18,19081,0.1191123166119345,0.18264253379645873,0.1337802410105355,0.9974436080627919,958.0,1.9472125235822606,0.5505790887346421,5.280969613384179,-0.03963163617186523,0.048,0.9999999999999263,-22.963254817484945,0.4569782839249829,92,2026-10-08 02:16:35.165244,44.6,0.49139587164233567,0.7148680051306973,1.2057083254276384
0323,cdot_cos,S,R-S,93,18,19132,-0.0037162003598919194,-0.01920979903400664,-0.12282851697182642,0.004159667234313826,958.0,1.957965852454281,0.5505842012857052,5.309642268314939,-0.007495496884777712,0.051,0.9999999999999221,6285.734634377742,0.46194542675506095,93,2026-10-08 02:16:35.216243,44.6,0.013740703562060547,0.2794252383843709,0.21084958572588816
0323,cdot_cos,T,S-T,94,18,19362,-0.04251468196573889,0.011140777271013128,-0.03879848160584697,0.15053485225996383,958.0,1.9757138978974664,0.550769213001099,5.339906159881681,-0.01246043601865925,0.23,0.9999999999999182,-26.835809415159318,0.4669126222122655,94,2026-10-08 02:16:35.446244,44.6,0.6713556234985131,0.16205738741721906,0.07716541497037188
0323,cdot_cos,P,T-P,95,19,19880,0.02688251097490927,0.00019468455618317957,0.06939719294064817,0.9566907851865217,960.0,2.0325122506662017,0.5519446834426702,5.379691864225014,-0.040612496038184134,0.518,0.9999999999999176,-23.94961117175837,0.4718799057446589,95,2026-10-08 02:16:35.964243,44.6,0.49998002015526616,0.07229922693614366,0.10964932966937305
0323,cdot_cos,Q,P-Q,96,19,19991,-0.011530021462423315,-0.010266528548876278,-0.038412532437332586,0.15274925788700308,960.0,2.0506158970033113,0.5521323105988484,5.409770332943605,-0.013185496891139105,0.111,0.9999999999999114,146.17819566056554,0.476847066356212,96,2026-10-08 02:16:36.075244,44.6,0.12491916870862169,0.34969229877482827,0.16309591294693326
0323,cdot_cos,R,Q-R,97,19,20022,0.14506457941307413,0.2071885894420705,0.15659460087549745,0.9990743785878722,960.0,2.1101439409942135,0.5533591395574381,5.449956097024153,-0.04415748536521208,0.031,0.9999999999999105,-25.245563578541763,0.48181420247567236,97,2026-10-08 02:16:36.106244,44.6,0.4958913766735998,1.1361389008812672,1.9202594835774929
0323,cdot_cos,S,R-S,98,19,20071,-0.004078074528024816,-0.012305325942019128,-0.14914265394109893,0.0012900771247553568,960.0,2.12105650885795,0.5533607233109814,5.47799229776945,-0.008231904867189395,0.049,0.9999999999999055,22683.82012451713,0.48678134488309727,98,2026-10-08 02:16:36.155244,44.6,0.012724983576087371,0.22333360349773154,0.22270546660686302
0323,cdot_cos,T,S-T,99,19,20301,-0.12991359688678722,0.052594280028450846,-0.1258355223587624,0.0036394946806934626,960.0,2.1320306341369912,0.5533651913035956,5.505914757711884,-0.008321145998843368,0.23,0.9999999999999003,-19.973428642189305,0.49174854625141223,99,2026-10-08 02:16:36.385243,44.6,0.9893326833615824,0.15507610386343706,0.047713588169745226
0323,cdot_cos,P,T-P,100,20,20840,0.024172378859759463,2.27169528220048e-05,0.15408597574654667,0.9989649133552279,979.0,2.192391516635131,0.5545912331610825,5.545912983259476,-0.04651145845613399,0.539,0.9999999999998996,-31.149272942094154,0.49671585168225396,100,2026-10-08 02:16:36.924243,44.6,0.4399497737127541,0.07372010524380136,0.11198679498727206
0323,cdot_cos,Q,P-Q,101,20,20970,-0.01238733804868895,-0.013615768548875461,-0.03655971690844841,0.1637531992334602,979.0,2.211500907589809,0.5547921465047109,5.575592792151335,-0.014994127729244938,0.13,0.999999999999893,156.8702713204869,0.5016830207729008,101,2026-10-08 02:16:37.054244,44.6,0.12221441532783393,0.30805309007519477,0.14699531503598637
0323,cdot_cos,R,Q-R,102,20,21000,0.1264578401371894,0.20843686431135733,0.13884517818587833,0.9979594534256636,979.0,2.2724853200546815,0.5560161811855637,5.615488907141574,-0.04869475874382302,0.03,0.9999999999998919,-27.532415169067608,0.5066501558910905,102,2026-10-08 02:16:37.084243,44.6,0.5005342617639355,1.204134613775739,2.0328137488290805
0323,cdot_cos,S,R-S,103,20,21050,-0.003727873786334459,-0.016285210997003727,-0.13018571392352385,0.002999568251128289,979.0,2.2837489844163534,0.5560198592513541,5.642985999992653,-0.009138694121598036,0.05,0.9999999999998859,10754.583217538677,0.5116172986314786,103,2026-10-08 02:16:37.134243,44.6,0.013188428964763896,0.2984104951305522,0.22527328723343842
0323,cdot_cos,T,S-T,104,20,21279,-0.04290014371590056,0.01431853419959213,-0.0391722699295661,0.14841546464201966,979.0,2.3023263695677367,0.5562018383811573,5.672168799401524,-0.01517009245971475,0.229,0.9999999999998809,-33.14335190325715,0.5165845059124141,104,2026-10-08 02:16:37.363244,44.6,0.671940952482968,0.17029564647514472,0.08112395262612793
0323,cdot_cos,P,T-P,105,21,21819,0.023326866746595402,-1.8568189769576324e-05,0.06622701046249596,0.9504392316428794,977.0,2.3617443905019697,0.5573668567874513,5.711311516679387,-0.04931884687600694,0.54,0.9999999999998797,-29.311772442223592,0.5215518292181728,105,2026-10-08 02:16:37.903244,44.6,0.5003698254389901,0.07356527314836002,0.11003337210043145
0323,cdot_cos,Q,P-Q,106,21,21948,-0.011858695304265837,-0.013023020611584992,-0.035185562050861235,0.17231961853028682,977.0,2.3817768645679656,0.5575780135419627,5.740617862017462,-0.016909171058573338,0.129,0.9999999999998718,153.48633242842456,0.5265190008185201,106,2026-10-08 02:16:38.032243,44.6,0.14709271557062564,0.3196392261396753,0.1552904966356267
0323,cdot_cos,R,Q-R,107,21,21979,0.11826510105729154,0.2046499392425152,0.13012379636155738,0.9969921618729519,977.0,2.444211310846006,0.5587992954311659,5.7802657347775845,-0.05358547611765072,0.031,0.9999999999998703,-30.030990701913375,0.5314861356543619,107,2026-10-08 02:16:38.063244,44.6,0.5043701351165335,1.1944571360033054,2.0140143960658192
0323,cdot_cos,S,R-S,108,21,22028,-0.003319140596596648,-0.014531292027132691,-0.12158424165388819,0.004395988506246012,977.0,2.4558332070001705,0.5588046788054108,5.80726944954523,-0.010127738776366293,0.049,0.9999999999998637,8072.583358317605,0.5364532780816741,108,2026-10-08 02:16:38.112243,44.6,0.01369175411503457,0.24717317520489668,0.23718155416662315
0323,cdot_cos,T,S-T,109,21,22258,-0.0861600693602078,0.022759849398062495,-0.08284092876361115,0.024251996338890053,977.0,2.468434282016086,0.5588343778093252,5.834403075071888,-0.011035157905909549,0.23,0.9999999999998571,-30.55385736706178,0.5414204921754675,109,2026-10-08 02:16:38.342243,44.6,0.9210602495192803,0.16445004461412016,0.05478728267789279
0323,cdot_cos,P,T-P,110,22,22796,0.02603966808469478,0.00019778139831918944,0.11219973744490258,0.9933344059423046,960.0,2.5314802275226658,0.5600504513977177,5.873859608073186,-0.05602660375378728,0.538,0.9999999999998564,-36.99730532537215,0.5463878320075827,110,2026-10-08 02:16:38.880243,44.6,0.4479663417707115,0.07661216298759065,0.11718577231706308
0323,cdot_cos,Q,P-Q,111,22,22907,-0.012658838772798135,-0.011271906376374869,-0.03869850685749292,0.1511059156749046,960.0,2.5508689693907334,0.5602353775933475,5.9024469707139104,-0.01751255385131817,0.111,0.9999999999998472,208.26714014906506,0.5513549989858886,111,2026-10-08 02:16:38.991244,44.6,0.11088904092678131,0.37509268381618166,0.17467335016277122
0323,cdot_cos,R,Q-R,112,22,22956,0.11862919798183495,0.1841631257478164,0.13128803675463308,0.9971439239356644,960.0,2.614750803329858,0.5614552790891482,5.941885191024447,-0.05861022577475878,0.049,0.9999999999998457,-33.68933644635576,0.5563221407932286,112,2026-10-08 02:16:39.040244,44.6,0.49598822194929887,0.7730159107869542,1.303710896716831
0323,cdot_cos,S,R-S,113,22,23007,-0.0034895993441868486,-0.01815256272910026,-0.1221187973260218,0.004292867009984459,960.0,2.626624528647855,0.5614605293690513,5.96840832817296,-0.011053624826917702,0.051,0.9999999999998378,9057.917258685959,0.561289284056016,113,2026-10-08 02:16:39.091244,44.6,0.013536663586354667,0.3053839443301762,0.2328181434901333
0323,cdot_cos,T,S-T,114,22,23237,-0.043311882064495155,0.0114047536463751,-0.03982228272030831,0.14478861646138402,960.0,2.645899965651536,0.5616376012729476,5.996649656396842,-0.01804915374629406,0.23,0.9999999999998315,-39.506713179492415,0.5662565049780877,114,2026-10-08 02:16:39.321243,44.6,0.678695910760295,0.1776638446268799,0.08380624784209205
0323,cdot_cos,P,T-P,115,23,23756,0.025193219067992084,-2.388418933415956e-05,0.06850510113248724,0.9550119738865924,978.0,2.7083498971762197,0.5628051554541167,6.035413984761737,-0.05934829201664174,0.519,0.9999999999998298,-35.37235268087863,0.571223855371249,115,2026-10-08 02:16:39.840243,44.6,0.4986367258340033,0.07925090904330903,0.12032742104948668
0323,cdot_cos,Q,P-Q,116,23,23866,-0.013576106570464609,-0.01156890449351682,-0.03876932563845669,0.15070120971967396,978.0,2.728162409238491,0.5629893326832686,6.063581861611826,-0.01911598394008423,0.11,0.9999999999998198,218.4434431000269,0.5761910243546619,116,2026-10-08 02:16:39.950243,44.6,0.1218892683660445,0.3870880219468202,0.1801137460206472
0323,cdot_cos,R,Q-R,117,23,23914,0.12416874090357105,0.18221828725016928,0.13774484747403565,0.9978570362122614,978.0,2.79350926200452,0.5642084081900026,6.102848234019918,-0.06399678816502537,0.048,0.999999999999818,-36.81544250296543,0.5811581657774865,117,2026-10-08 02:16:39.998244,44.6,0.4959412729450051,0.8066369146583116,1.3613927659589427
0323,cdot_cos,S,R-S,118,23,23966,-0.0039257947985725655,-0.017246670635910864,-0.12809453570214363,0.0032918237186524237,978.0,2.8055995530456888,0.5642124285139563,6.128916963319907,-0.012006535103100534,0.052,0.9999999999998093,12931.856651729626,0.5861253096957726,118,2026-10-08 02:16:40.050244,44.6,0.0131654024509688,0.31559605746099667,0.23250559694555106
0323,cdot_cos,T,S-T,119,23,24195,-0.04049864670786546,0.013422968485268364,-0.036572851909292894,0.16367299382127354,978.0,2.8263312519804638,0.564412312662527,6.157012641060564,-0.020706600792014494,0.229,0.9999999999998016,-43.52554092519505,0.5910925374579673,119,2026-10-08 02:16:40.279244,44.6,0.6569423257355418,0.1839628268882795,0.09053143639639738
0323,cdot_cos,P,T-P,120,24,24734,0.02535518161323772,0.00011186576112798525,0.06585382832110317,0.9496493242102318,999.0,2.8898545277605208,0.5655716481596661,6.195528244927925,-0.06435607270021822,0.539,0.9999999999998002,-37.65042303622907,0.5960599165557485,120,2026-10-08 02:16:40.818244,44.6,0.5075046195922824,0.07842989909396196,0.11785394393331541
0323,cdot_cos,Q,P-Q,121,24,24864,-0.01102407841304058,-0.011759475275581951,-0.036379260026278296,0.16485831333127038,999.0,2.9108786832037548,0.5657728351226518,6.223502556768512,-0.021612502773811187,0.13,0.999999999999789,212.4569569125342,0.6010270978683886,121,2026-10-08 02:16:40.948243,44.6,0.13838381202501748,0.3376241802399687,0.16172427264026148
0323,cdot_cos,R,Q-R,122,24,24893,0.1283200577680306,0.19544640984548234,0.13934413618107117,0.9980042716272858,999.0,2.9776368146229126,0.5669902974941776,6.2626139236308935,-0.06961899797084242,0.029,0.9999999999997868,-39.431604885548786,0.6059942296267647,122,2026-10-08 02:16:40.977243,44.6,0.5017966744640558,1.363557081847138,2.3020045316950988
0323,cdot_cos,S,R-S,123,24,24944,-0.004090724058184506,-0.016191648193702387,-0.1324107818262151,0.0027169603893181724,999.0,2.9899649939508888,0.5669936108090035,6.288264735471954,-0.013029141257044255,0.051,0.9999999999997772,17079.529018044665,0.6109613732012382,123,2026-10-08 02:16:41.028243,44.6,0.0129931921375622,0.3309273561345265,0.24172900643090475
0323,cdot_cos,T,S-T,124,24,25174,-0.039949726002850273,0.015713660069626358,-0.035859001944665764,0.1680778660903318,999.0,3.0113914049486343,0.5671985689696778,6.316057360621323,-0.022770218325025682,0.23,0.9999999999997687,-47.52714913098345,0.6159286090558864,124,2026-10-08 02:16:41.258244,44.6,0.6519424294987859,0.18695751567530985,0.09315830868585026
0323,cdot_cos,P,T-P,125,25,25733,0.02362488108542217,1.9201257565926826e-05,0.06357460708827245,0.9445605037846554,959.0,3.0759654511615313,0.5683499589130551,6.354347168955622,-0.06956309546887154,0.559,0.9999999999997673,-40.64033858641544,0.6208960193686819,125,2026-10-08 02:16:41.817244,44.6,0.5103450940491931,0.07668701997942334,0.11551707730393017
0323,cdot_cos,Q,P-Q,126,25,25843,-0.013671435124334327,-0.012039548095146131,-0.0372963162097565,0.15930401215763734,959.0,3.0971274932856296,0.5685440731358842,6.381892982162558,-0.02311561726454498,0.11,0.9999999999997543,239.2791085958529,0.6258631933294395,126,2026-10-08 02:16:41.927244,44.6,0.13407514220263958,0.4060444602246143,0.19238220112816667
0323,cdot_cos,R,Q-R,127,25,25874,0.13460073513610468,0.1889585380586463,0.148272170260439,0.9986589210100569,959.0,3.1652952324109465,0.5697604713281347,6.420876031500268,-0.07548634701786827,0.031,0.9999999999997525,-43.053935863247524,0.6308303253289596,127,2026-10-08 02:16:41.958244,44.6,0.4996849353804596,1.3018554208699917,2.198959326623123
0323,cdot_cos,S,R-S,128,25,25923,-0.005187720933575594,-0.015362158802060903,-0.13978845606968027,0.001956645594998228,959.0,3.177842529379569,0.569762853762991,6.446132453939056,-0.014073460527069113,0.049,0.9999999999997409,25777.362318548265,0.6357974679051474,128,2026-10-08 02:16:42.007244,44.6,0.012730718438440303,0.34501105490600087,0.256067285073932
0323,cdot_cos,T,S-T,129,25,26153,-0.04282046582132102,0.017648268800738495,-0.03763274488774543,0.15730474435836647,959.0,3.1991063157917345,0.5699543793036835,6.473438982651446,-0.023974672722840054,0.23,0.999999999999731,-51.69656307961512,0.6407647116131028,129,2026-10-08 02:16:42.237243,44.6,0.6616713251908047,0.19132684304422173,0.09245124527028444
0323,cdot_cos,P,T-P,130,26,26692,0.028455862656428868,3.0120424180603667e-05,0.0712763284777499,0.9600334107392339,959.0,3.265852877179911,0.5711228069744756,6.5118035683145745,-0.07624329433027975,0.539,0.9999999999997289,-44.73415249743918,0.6457321328537012,130,2026-10-08 02:16:42.776243,44.6,0.5038128501464264,0.08089559305818451,0.12383406565524412
0323,cdot_cos,Q,P-Q,131,26,26822,-0.012369784724434944,-0.014053824448472547,-0.04082564738086381,0.1393350440779761,959.0,3.2863117651084575,0.5712923219045133,6.538741312710261,-0.023682688449889095,0.13,0.9999999999997148,310.0647587130095,0.6506993211383557,131,2026-10-08 02:16:42.906244,44.6,0.10867774862068597,0.34582167051158813,0.15737606098881793
0323,cdot_cos,R,Q-R,132,26,26852,0.12352467112696398,0.20934498922421396,0.13589445585139892,0.9976731092233363,959.0,3.355766511512924,0.5725055994352832,6.577590413884427,-0.08144428179713618,0.03,0.9999999999997122,-47.60789834341681,0.6556664517367992,132,2026-10-08 02:16:42.936243,44.6,0.4920297638872171,1.3723554691501327,2.3151582134822197
0323,cdot_cos,S,R-S,133,26,26902,-0.003319054213811764,-0.016687190402373216,-0.12684372534077576,0.0034800234628222224,959.0,3.3686530932574654,0.5725098299998892,6.602507303449102,-0.015298405280563322,0.05,0.9999999999996997,15635.236115594755,0.6606335949308514,133,2026-10-08 02:16:42.986243,44.6,0.013250624924890536,0.3371651454575897,0.2577316348908276
0323,cdot_cos,T,S-T,134,26,27131,-0.04357141838527712,0.011712493245135324,-0.04025236417146536,0.14242959880332579,959.0,3.389483026058683,0.5726829684677744,6.629286500928022,-0.024849851681755956,0.229,0.9999999999996888,-55.166517977524904,0.6656008461015829,134,2026-10-08 02:16:43.215244,44.6,0.6808819510084401,0.1934019088629232,0.09096040524549165
0323,cdot_cos,P,T-P,135,27,27651,0.025001777156777677,-2.5843349648118306e-05,0.0685731955420548,0.9551422761657978,979.0,3.4572311675166842,0.5738435843943848,6.667461859395519,-0.08182512064788172,0.52,0.9999999999996864,-49.09054551106067,0.6705682775979418,135,2026-10-08 02:16:43.735244,44.6,0.49842340802585094,0.08633061876598914,0.13028488741923314
0323,cdot_cos,Q,P-Q,136,27,27781,-0.012218701240736155,-0.013368106844973008,-0.03722047839751383,0.1597575219620545,979.0,3.4792668695753117,0.5740376305043684,6.694373694652899,-0.026960210597617055,0.13,0.9999999999996712,282.7416125728637,0.6755354695932133,136,2026-10-08 02:16:43.865243,44.6,0.13067620987841705,0.35697537758363485,0.16950540045098061
0323,cdot_cos,R,Q-R,137,27,27811,0.12472570654258394,0.2009549293503194,0.1369444077833201,0.9977793242382988,979.0,3.5500447656884293,0.5752490440163532,6.733119542658259,-0.08768902090126648,0.03,0.9999999999996679,-50.130537345706536,0.6805025993944535,137,2026-10-08 02:16:43.895243,44.6,0.5002999410365041,1.398320601918172,2.359263203770586
0323,cdot_cos,S,R-S,138,27,27860,-0.0037858676904404965,-0.016398887334026325,-0.12851157423302445,0.003231357986356205,979.0,3.563166105690402,0.5752529657794428,6.757694357282221,-0.016450444480536543,0.049,0.9999999999996543,18164.9362271463,0.6854697420887638,138,2026-10-08 02:16:43.944243,44.6,0.013161024086642558,0.3585362037304452,0.26778244901985176
0323,cdot_cos,T,S-T,139,27,28090,-0.04166083543234929,0.014008127334661042,-0.037874967741908794,0.155877976660029,979.0,3.585181313654013,0.575442137054239,6.784364858593166,-0.027733936442504922,0.23,0.9999999999996423,-59.646962648685985,0.6904370023736304,139,2026-10-08 02:16:44.174243,44.6,0.6657454866131395,0.19660819841734298,0.09571829549396041
0323,cdot_cos,P,T-P,140,28,28630,0.02218747581048448,-4.585096568522299e-05,0.06384831124283377,0.9451962875971338,1017.0,3.65360587696238,0.5765887385272966,6.822292145237268,-0.0872269940766815,0.54,0.9999999999996395,-51.886430492300704,0.6954044692209522,140,2026-10-08 02:16:44.714243,44.6,0.5055801502140672,0.08509195790829352,0.12671215427475346
0323,cdot_cos,Q,P-Q,141,28,28759,-0.012246707326077228,-0.012557691604505308,-0.03443418313656171,0.1771518257266173,1017.0,3.67708062819497,0.5768035470123253,6.849164997063579,-0.030301219434831432,0.129,0.9999999999996226,265.0071045110741,0.7003716643431137,141,2026-10-08 02:16:44.843244,44.6,0.152794281217583,0.370289454945656,0.18197481575651264
0323,cdot_cos,R,Q-R,142,28,28789,0.12221923869397602,0.19137693915562692,0.13446594602005324,0.9975204144688019,1017.0,3.749140556338359,0.5780125632723992,6.887817023105052,-0.09415491634982864,0.03,0.9999999999996191,-52.814589037115624,0.7053387932349908,142,2026-10-08 02:16:44.873244,44.6,0.5075414071329606,1.424127521194,2.4019976047796376
0323,cdot_cos,S,R-S,143,28,28839,-0.00430016442636871,-0.015057228410841632,-0.12651940312034474,0.003530548017703916,1017.0,3.76252827946661,0.5780168407216197,6.9120784957179175,-0.017693889422220922,0.05,0.9999999999996039,17875.37922398267,0.7103059366518354,143,2026-10-08 02:16:44.923244,44.6,0.013282287714564528,0.28682195116433995,0.26775446256501745
0323,cdot_cos,T,S-T,144,28,29069,-0.07784096367968121,0.03049702432463407,-0.0735407992533125,0.03626652471947379,1017.0,3.777822751454793,0.5780607788933483,6.936731757097649,-0.02029055791600301,0.23,0.9999999999995888,-59.098237173472114,0.7152732054030394,144,2026-10-08 02:16:45.153243,44.6,0.8798760546368629,0.19045112590672192,0.06649770429644836
0323,cdot_cos,P,T-P,145,29,29647,0.02533451071426779,0.00012527378506823995,0.103175474393949,0.9900642075216574,960.0,3.850135797383702,0.5792597969759857,6.975214115726501,-0.09697434943617907,0.578,0.9999999999995862,-63.955492106921966,0.7202407218878918,145,2026-10-08 02:16:45.731244,44.6,0.4534983443095897,0.08205829161015933,0.12510907600157262
0323,cdot_cos,Q,P-Q,146,29,29758,-0.012721254789441019,-0.011311835104123502,-0.03805576550370881,0.1548199122229195,960.0,3.8726821365561372,0.5794472076229101,7.001489938898992,-0.030607703448463197,0.111,0.9999999999995672,354.12420306348434,0.7252079075577043,146,2026-10-08 02:16:45.842243,44.6,0.11437202369099107,0.43187204262976087,0.20312017272464147
0323,cdot_cos,R,Q-R,147,29,29789,0.12414334495613275,0.18466958372211925,0.13686459974557377,0.9977714234421445,960.0,3.946011390847509,0.5806544657415106,7.040063975148145,-0.10070377293692981,0.031,0.9999999999995633,-58.06220592637428,0.7301750360857675,147,2026-10-08 02:16:45.873244,44.6,0.4985447128032152,1.4019613586480861,2.3654598158507003
0323,cdot_cos,S,R-S,148,29,29838,-0.004593587123136996,-0.013779946003451764,-0.12873693207926973,0.003199145792244829,960.0,3.9596037407923186,0.5806583350183453,7.064016250161478,-0.018873977678211064,0.049,0.999999999999546,21148.601858781225,0.7351421786360182,148,2026-10-08 02:16:45.922244,44.6,0.013094169573884446,0.3751582874330072,0.27739489683284946
0323,cdot_cos,T,S-T,149,29,30086,-0.04145167597375111,0.011088510181377473,-0.03685808885061411,0.16193905514714596,960.0,3.9827769030159437,0.5808541827816533,7.0902316205122125,-0.03232308263620268,0.248,0.9999999999995315,-68.67122059922188,0.7401094695783788,149,2026-10-08 02:16:46.170244,44.6,0.6596251159351514,0.189864772276458,0.09344017025655277
0323,cdot_cos,P,T-P,150,30,30607,0.023531279018066755,-7.251470302713651e-06,0.06498295499181786,0.9477593549650172,978.0,4.053776667841442,0.5819998824695763,7.128016533118312,-0.10013145882309682,0.521,0.9999999999995273,-59.18512233325459,0.7450769694340057,150,2026-10-08 02:16:46.691243,44.6,0.5080407941297871,0.09149044572276302,0.1362759401641038
0323,cdot_cos,Q,P-Q,151,30,30736,-0.010828678921579182,-0.011905559497522365,-0.03435995793964594,0.17763490184939476,978.0,4.078109947459063,0.5822145185292598,7.154374803346978,-0.03471945082448552,0.129,0.9999999999995076,304.75777506861147,0.7500441721578145,151,2026-10-08 02:16:46.820243,44.6,0.15197850152455153,0.3833669579553778,0.1886300745552015
0323,cdot_cos,R,Q-R,152,30,30767,0.12464812354859622,0.21428863494762193,0.1354768024701754,0.9976294629387922,978.0,4.152685342993929,0.5834193724378868,7.1928801616460545,-0.10761226291969112,0.031,0.9999999999995035,-60.499295037578754,0.7550112997821876,152,2026-10-08 02:16:46.851244,44.6,0.5079535391984791,1.426097581854653,2.405657920479564
0323,cdot_cos,S,R-S,153,30,30816,-0.0031505659696136968,-0.013815815514237441,-0.1277986895182099,0.00333540046346506,978.0,4.166527997534051,0.5834233989947338,7.216551962222386,-0.020189469136510343,0.049,0.999999999999484,21711.550861883254,0.7599784423770858,153,2026-10-08 02:16:46.900243,44.6,0.013165987247714268,0.2828898778490524,0.28250315388004105
0323,cdot_cos,T,S-T,154,30,31046,-0.12347026183857256,0.0404750908689815,-0.12031969586895885,0.004649855498481148,978.0,4.180408551023136,0.5834290123673251,7.240166717009836,-0.020312130563164794,0.23,0.999999999999465,-21.85164527371955,0.7649457288920964,154,2026-10-08 02:16:47.130244,44.6,0.9939793708417478,0.19388412486413323,0.06035023256123966
0323,cdot_cos,P,T-P,155,31,31585,0.02414600693416726,3.9241921469986936e-05,0.1476162687727398,0.9986191656703844,979.0,4.2557146949715525,0.5846340563416064,7.278638468336971,-0.11128401903279286,0.539,0.9999999999994621,-75.49258816375563,0.7699132663566228,155,2026-10-08 02:16:47.669244,44.6,0.44154520910276585,0.09155176492154907,0.1397145527799929
0323,cdot_cos,Q,P-Q,156,31,31695,-0.013703893246116629,-0.011730409438982932,-0.03784990018028389,0.15602514148404817,979.0,4.279101353608566,0.5848222424705576,7.304430856979177,-0.03495946770568923,0.11,0.9999999999994392,405.5801123731536,0.774880457368171,156,2026-10-08 02:16:47.779244,44.6,0.1126770192336161,0.45096104887348126,0.21260598760921567
0323,cdot_cos,R,Q-R,157,31,31726,0.12907334436460308,0.181906831043901,0.1427772376107197,0.9982871200537966,979.0,4.354926125723718,0.5860257157348977,7.342884597071096,-0.11456687110533069,0.031,0.9999999999994356,-66.14804479540433,0.7798475840729443,157,2026-10-08 02:16:47.810244,44.6,0.499146643979833,1.4488648238744144,2.4459603908113596
0323,cdot_cos,S,R-S,158,31,31775,-0.004977436272944499,-0.01363769591643095,-0.13405078063754758,0.0025258091281366137,979.0,4.36893097268878,0.5860287593983701,7.36627071140776,-0.021380632724785707,0.049,0.9999999999994145,30616.47229614043,0.7848147266693984,158,2026-10-08 02:16:47.859244,44.6,0.012798317445651013,0.28679223191451875,0.28581320336860294
0323,cdot_cos,T,S-T,159,31,32005,-0.12486597579992294,0.0591349621659903,-0.11988853952697844,0.004739707573609111,979.0,4.383031764451341,0.5860344708473713,7.389616946212548,-0.02159637409114439,0.23,0.999999999999394,-37.77349081008548,0.7897820222579205,159,2026-10-08 02:16:48.089243,44.6,0.9900600281929924,0.19698046036728703,0.06130779027200562
0323,cdot_cos,P,T-P,160,32,32564,0.02413441366806592,3.5944727296125546e-05,0.14900038946798885,0.998701721978979,999.0,4.459541984457732,0.5872374094757669,7.428034498764613,-0.11829234917426337,0.559,0.9999999999993904,-80.3831324396704,0.7947496015636252,160,2026-10-08 02:16:48.648243,44.6,0.4415640487098248,0.09074600906023658,0.13686980323146822
0323,cdot_cos,Q,P-Q,161,32,32694,-0.010634988807891231,-0.011290426968665659,-0.034769402475957153,0.17498297335151333,999.0,4.484485802580686,0.5874480701230266,7.453884172345323,-0.039002161595226376,0.13,0.9999999999993663,376.3882272766477,0.7997168129423154,161,2026-10-08 02:16:48.778244,44.6,0.13094615714488642,0.3921395422665546,0.19187552402272126
0323,cdot_cos,R,Q-R,162,32,32723,0.13088898023842327,0.19900415873232266,0.1415239690463145,0.9981888292730842,999.0,4.561498265447036,0.5886491674334124,7.4922845557342,-0.12168308462481373,0.029,0.9999999999993617,-68.8378221436738,0.804683936734175,162,2026-10-08 02:16:48.807244,44.6,0.5068817485144307,1.5728600438076334,2.6556021678051875
0323,cdot_cos,S,R-S,163,32,32774,-0.0036954024888004966,-0.014417109636293897,-0.13458438272722376,0.0024665544270616553,999.0,4.5757116851215285,0.5886521340791,7.515411181030131,-0.022684264216539497,0.051,0.9999999999993386,33370.62488576506,0.8096510809443712,163,2026-10-08 02:16:48.858243,44.6,0.012724744293944639,0.27981213465034993,0.27869450342141766
0323,cdot_cos,T,S-T,164,32,33004,-0.12274405357502692,0.049491749178051846,-0.11904865108622642,0.004919729597960927,999.0,4.590039103181372,0.5886580512593432,7.538505118455131,-0.022937527854487626,0.23,0.9999999999993155,-42.8014066730253,0.8146183857526054,164,2026-10-08 02:16:49.088243,44.6,0.9890192800142528,0.20003403263260497,0.06229312199931908
0323,cdot_cos,P,T-P,165,33,33563,0.02464885533860457,-5.3877798642132434e-05,0.1473929089136315,0.9986053605423628,978.0,4.667727340132527,0.5898585858633039,7.576874671062506,-0.12551264375800789,0.559,0.9999999999993121,-85.44119891681497,0.819585991542156,165,2026-10-08 02:16:49.647244,44.6,0.44164483291945716,0.091157281270837,0.13897716807004454
0323,cdot_cos,Q,P-Q,166,33,33673,-0.012893550993269425,-0.010959632431214068,-0.037542406331873994,0.1578395793979214,978.0,4.691952943642168,0.5900482448221498,7.602244054688224,-0.03956401802968615,0.11,0.9999999999992857,453.1746153797196,0.8245531884834766,166,2026-10-08 02:16:49.757244,44.6,0.1139046304218928,0.46524396329732376,0.22023275917855337
0323,cdot_cos,R,Q-R,167,33,33722,0.1197186989401459,0.17732495955895825,0.13261224993341533,0.9973072779995925,978.0,4.770081012057938,0.5912459811505143,7.6405861902678,-0.128874288782086,0.049,0.999999999999281,-74.56588619496233,0.8295203298314658,167,2026-10-08 02:16:49.806243,44.6,0.5000720877028455,0.945413752244589,1.594450375832048
0323,cdot_cos,S,R-S,168,33,33772,-0.0035934244804782375,-0.015728888591803568,-0.12331212342062414,0.004071270016815592,978.0,4.784603491362137,0.5912508684153934,7.663491399897243,-0.02418968947762045,0.05,0.999999999999255,21419.87428419311,0.834487472990077,168,2026-10-08 02:16:49.856243,44.6,0.013198478706063128,0.2909556759361198,0.2904495860839873
0323,cdot_cos,T,S-T,169,33,33982,-0.12018196619081589,0.041026386922704224,-0.11658854171033765,0.005487123063834134,978.0,4.79917657965155,0.591257455280805,7.686351200675863,-0.0243477845412557,0.21,0.9999999999992305,-24.001562770359925,0.8394547682100547,169,2026-10-08 02:16:50.066243,44.6,0.9935278340842719,0.22237413495814815,0.06939565852101247
0323,cdot_cos,P,T-P,170,34,34541,0.021261678385025788,6.91106446533915e-05,0.1414436445758417,0.9981823409844913,978.0,4.87800062804456,0.5924551483697693,7.7246744339948705,-0.13285648892145296,0.559,0.9999999999992273,-90.59808842516281,0.8444224010860225,170,2026-10-08 02:16:50.625243,44.6,0.4418714821454775,0.09357785712053278,0.14100903111450733
0323,cdot_cos,Q,P-Q,171,34,34651,-0.01326224245380631,-0.0113867348001626,-0.0345239208388321,0.1765691676616426,978.0,4.903796623912306,0.5926668952650713,7.750129974107515,-0.04394159559506059,0.11,0.9999999999991994,419.9112020016833,0.8493896011905177,171,2026-10-08 02:16:50.735244,44.6,0.13219476636263638,0.4782428828009126,0.23450905334314598
0323,cdot_cos,R,Q-R,172,34,34682,0.1504874429175741,0.19558883585444353,0.1637496853713804,0.9993270968168241,978.0,4.98321406226076,0.593864666731247,7.788466793511039,-0.13661034332632363,0.031,0.9999999999991941,-77.36763677226199,0.8543567246094681,172,2026-10-08 02:16:50.766243,44.6,0.5074568643164392,1.5152836017663338,2.561852849950152
0323,cdot_cos,S,R-S,173,34,34731,-0.004454957992147752,-0.012277056425165212,-0.15494240090972186,0.0009963341034998963,978.0,4.997744207221818,0.5938658603608741,7.811090562226309,-0.025231588148399046,0.049,0.9999999999991668,93310.98412434664,0.8593238668540543,173,2026-10-08 02:16:50.815244,44.6,0.01210352425536564,0.2990011721826451,0.2965335706338363
0323,cdot_cos,T,S-T,174,34,34961,-0.12174980806638964,0.057833931242457434,-0.1172948500742419,0.0053178703080038765,978.0,5.01251617713466,0.5938722312648139,7.833717477704262,-0.02572669708632013,0.23,0.9999999999991401,-77.71407991643913,0.864291190996422,174,2026-10-08 02:16:51.045243,44.6,0.9809390541236246,0.20602302932587999,0.064225956142788
0323,cdot_cos,P,T-P,175,35,35519,0.0250578388424703,0.00016801621555738154,0.14680764690885995,0.9985685302243953,999.0,5.092514800711723,0.5950679720954462,7.872014173748739,-0.14051196556103218,0.558,0.9999999999991358,-95.99510657674959,0.8692588508704049,175,2026-10-08 02:16:51.603244,44.6,0.4417958291586377,0.0943224218101604,0.14336670891946873
0323,cdot_cos,Q,P-Q,176,35,35630,-0.011641568828107726,-0.009786298363218825,-0.03669940767057803,0.16290183272816627,999.0,5.117779999874799,0.5952629331113388,7.8970603445460545,-0.044831917494186024,0.111,0.9999999999991056,490.7650261707714,0.8742260552497861,176,2026-10-08 02:16:51.714243,44.6,0.11833983166936131,0.47636303973940863,0.22761440687455367
0323,cdot_cos,R,Q-R,177,35,35678,0.13081359613259388,0.1835055242405766,0.1424551649607016,0.9982623809895861,999.0,5.198267395533872,0.5964569956532922,7.93534939764706,-0.1441632602712916,0.048,0.9999999999991008,-83.18772198866971,0.8791931953403014,177,2026-10-08 02:16:51.762244,44.6,0.5020679479361728,0.9928548627131661,1.6768207428973596
0323,cdot_cos,S,R-S,178,35,35730,-0.003836018863616655,-0.015448322476242553,-0.13464961499621053,0.002459406386334316,999.0,5.2130940666952625,0.5964599360456068,7.957773295772857,-0.026801781234727793,0.052,0.9999999999990709,39913.54434473858,0.8841603405657652,178,2026-10-08 02:16:51.814244,44.6,0.012539537474157716,0.40463761535416765,0.28512829156520564
0323,cdot_cos,T,S-T,179,35,35940,-0.036334282525819585,0.019580671219497577,-0.03249826366220293,0.19009045060280275,999.0,5.240349707530705,0.5966871814900532,7.983135622577073,-0.04945941769274921,0.21,0.9999999999990467,-99.70556951413178,0.8891276539331171,179,2026-10-08 02:16:52.024243,44.6,0.6324806796485535,0.24840593781945036,0.12978876588306068
0323,cdot_cos,P,T-P,180,36,36518,0.024274667637534646,0.0001229598058846578,0.06060895016335423,0.9372128025941845,960.0,5.317424560579432,0.5978069732378802,8.020427502980125,-0.14113184540049145,0.578,0.999999999999041,-81.86560392647236,0.8940953660282684,180,2026-10-08 02:16:52.602243,44.6,0.5222798712169163,0.08825213604277445,0.13334749662409415
0323,cdot_cos,Q,P-Q,181,36,36629,-0.014175586081689248,-0.012587197403551905,-0.03845025371922389,0.15253165802090185,960.0,5.3423691767961525,0.597989123515177,8.045126518769278,-0.04611064510788462,0.111,0.9999999999990081,521.6637696236492,0.8990625739766405,181,2026-10-08 02:16:52.713243,44.6,0.1273620380059261,0.4798494571386439,0.22472627222271024
0323,cdot_cos,R,Q-R,182,36,36677,0.12028472348462321,0.18284061818301822,0.13446030956631247,0.9975197926039517,960.0,5.423951140064211,0.5991796729944089,8.083381437337975,-0.15216426666507687,0.048,0.9999999999990028,-89.07955814286083,0.9040297138992154,182,2026-10-08 02:16:52.761244,44.6,0.4980932452913151,1.0076094960839443,1.6996242347512107
0323,cdot_cos,S,R-S,183,36,36729,-0.003490298126516814,-0.01795732487129679,-0.12377502161114003,0.0039884110923024615,960.0,5.439099688420211,0.5991844308625989,8.105622471148413,-0.028508375646981436,0.052,0.9999999999989706,25989.768123116683,0.9089968592201413,183,2026-10-08 02:16:52.813244,44.6,0.013068788216100347,0.3996884312160464,0.29131823761539516
0323,cdot_cos,T,S-T,184,36,36939,-0.03875089370301376,0.01583704674134657,-0.035260595576496946,0.17184284601129088,960.0,5.4655187369106795,0.5993894084144706,8.130519260631862,-0.04990035248951999,0.21,0.9999999999989438,-104.36253456632862,0.913964182146195,184,2026-10-08 02:16:53.023244,44.6,0.6513592781462789,0.24959376861045815,0.1258049928117537
0323,cdot_cos,P,T-P,185,37,37478,0.023365540215092462,6.034050425894294e-06,0.06211643391810622,0.9410547876672268,959.0,5.543929071236604,0.6005112988002944,8.16784258484355,-0.14938567103735956,0.539,0.9999999999989386,-88.67650512468737,0.9189318816084603,185,2026-10-08 02:16:53.562243,44.6,0.5137785588362086,0.09690138390882741,0.14547371860097244
0323,cdot_cos,Q,P-Q,186,37,37588,-0.013214711520460614,-0.01159359451989235,-0.03658025173555308,0.16362782265312675,959.0,5.569978428764395,0.6007062625500488,8.19254735924633,-0.050091371787991584,0.11,0.9999999999989037,509.29621211363855,0.9238990922592137,186,2026-10-08 02:16:53.672243,44.6,0.13775706747453878,0.49413796497843004,0.23681234116174368
0323,cdot_cos,R,Q-R,187,37,37638,0.11557356481128071,0.20728186159088358,0.12878827633174134,0.9968081483653709,959.0,5.652639423531858,0.6018932753149154,8.230773004994496,-0.16034602997483366,0.05,0.9999999999988978,-92.88413861263531,0.9288662345797541,187,2026-10-08 02:16:53.722244,44.6,0.5027790146890975,0.9809498982441411,1.653219895349256
0323,cdot_cos,S,R-S,188,37,37688,-0.003136645390776669,-0.015679731583512883,-0.11871021020205738,0.004994179885290187,959.0,5.6680734185888095,0.6018992194493471,8.252832579031228,-0.030200454573760298,0.05,0.9999999999988637,21894.79004843999,0.933833377856021,188,2026-10-08 02:16:53.772243,44.6,0.013441729438960178,0.4102816055908587,0.3086799011390262
0323,cdot_cos,T,S-T,189,37,37917,-0.04127452934231616,0.011112652947264412,-0.03813788395153949,0.15434127939302097,959.0,5.693667584090944,0.6020829035190348,8.277277730756605,-0.05025499415314702,0.229,0.9999999999988347,-109.17952554884916,0.9388007332587017,189,2026-10-08 02:16:54.001244,44.6,0.6709533587978987,0.23093641662517866,0.11176491485648278
0323,cdot_cos,P,T-P,190,38,38437,0.025354871893732037,-4.35917889336652e-05,0.0666294012360482,0.9512777972214221,978.0,5.773842297403141,0.6032143982817675,8.3147431019252,-0.15873713718258387,0.52,0.9999999999988289,-95.8750730471278,0.9437684401307129,190,2026-10-08 02:16:54.521244,44.6,0.5048936552282715,0.1023929435543294,0.15418214098499475
0323,cdot_cos,Q,P-Q,191,38,38566,-0.011451526072026742,-0.012558954149656111,-0.03680639796575878,0.16225217776856274,978.0,5.800156245387447,0.6034072788713191,8.339261286065968,-0.05257377768380206,0.129,0.9999999999987917,550.4097625665507,0.9487356777007987,191,2026-10-08 02:16:54.650244,44.6,0.13274550264357096,0.4269373016543511,0.20398409290159153
0323,cdot_cos,R,Q-R,192,38,38597,0.12518763415047676,0.20790167341007904,0.1366391602225035,0.9977489536573355,978.0,5.883992121229964,0.6045926646150256,8.377488551319608,-0.1689191757776224,0.031,0.9999999999987862,-98.1498206060971,0.9537027967015177,192,2026-10-08 02:16:54.681243,44.6,0.5021965463220912,1.6025648915256883,2.704383091694106
0323,cdot_cos,S,R-S,193,38,38646,-0.003605896107677969,-0.015681705467533554,-0.12879353025815474,0.0031911061776883783,978.0,5.899515268662039,0.6045964538772894,8.399329224065033,-0.031543149686689476,0.049,0.9999999999987496,36254.029551183834,0.958669938922011,193,2026-10-08 02:16:54.730243,44.6,0.012840156062158051,0.33711586876403016,0.316798927185212
0323,cdot_cos,T,S-T,194,38,38876,-0.07967483690245479,0.03194016173178975,-0.07606894079477682,0.03252518253911816,978.0,5.917029476368839,0.6046350750176538,8.421598961809345,-0.035687571355274436,0.23,0.9999999999987144,-107.30966588471829,0.9636373065774138,194,2026-10-08 02:16:54.960243,44.6,0.8903588700963314,0.2205246461220546,0.07614872915999811
0323,cdot_cos,P,T-P,195,39,39415,0.02426571266938003,7.632648913340074e-05,0.10394054957183482,0.9903943193742195,999.0,6.0009566058781845,0.6058104644499229,8.45968976452761,-0.1723024647845455,0.539,0.9999999999987098,-116.22947227416414,0.968605065700494,195,2026-10-08 02:16:55.499244,44.6,0.45254035078706223,0.10291907871793077,0.15570896012865593
0323,cdot_cos,Q,P-Q,196,39,39545,-0.011679706861960442,-0.012474898027115532,-0.03594541953134047,0.16753962800902747,999.0,6.027976243226768,0.606009178089689,8.484135896342197,-0.05597787113999305,0.13,0.9999999999986704,585.3880678824075,0.9735723092831318,196,2026-10-08 02:16:55.629244,44.6,0.12517455904583571,0.4304875706247687,0.20784336421987548
0323,cdot_cos,R,Q-R,197,39,39575,0.12340050502185683,0.19985163031591233,0.13508021188381727,0.9975872620640084,999.0,6.112883374240624,0.6071916580152729,8.522348515170052,-0.17735542413546784,0.03,0.9999999999986642,-102.64660766697159,0.9785394257493509,197,2026-10-08 02:16:55.659244,44.6,0.5044055704361392,1.6773529722420004,2.8302377004618684
0323,cdot_cos,S,R-S,198,39,39625,-0.0038555980911406506,-0.0151066387556631,-0.12725610311299748,0.003416820393376002,999.0,6.128617421561288,0.6071957059583206,8.544008406240726,-0.03313786891211554,0.05,0.999999999998625,35627.36765855148,0.9835065691688745,198,2026-10-08 02:16:55.709243,44.6,0.012880422374838774,0.4285291067574093,0.31468094641327937
0323,cdot_cos,T,S-T,199,39,39855,-0.03997926640560547,0.015795332766538175,-0.03612366831446482,0.16643378384682528,999.0,6.155736284916365,0.6073928639702598,8.568338267942714,-0.05730547590520482,0.23,0.9999999999985921,-122.5798878543259,0.9884739483638519,199,2026-10-08 02:16:55.939244,44.6,0.6559091812635354,0.23720299566326644,0.11790810154381287
0323,cdot_cos,P,T-P,200,40,40414,0.024813100649616702,-1.9876119599810982e-05,0.06479236705522218,0.947336890335041,979.0,6.237730799566391,0.6085144139845473,8.605701026963253,-0.17462589011832683,0.559,0.9999999999985854,-104.60560181763707,0.9934417660187451,200,2026-10-08 02:16:56.498244,44.6,0.5107686128018709,0.09699966488300506,0.14668070599289015
0323,cdot_cos,Q,P-Q,201,40,40524,-0.013311173167819353,-0.011321388401978149,-0.03812427381743606,0.15442052325087907,979.0,6.264181910255565,0.6086971238648475,8.629779221966423,-0.056817106803232036,0.11,0.9999999999985424,644.7860571169664,0.9984089878911437,201,2026-10-08 02:16:56.608243,44.6,0.1257481958759865,0.5111000840759005,0.240464642628855
0323,cdot_cos,R,Q-R,202,40,40572,0.1219644191339959,0.18087606856319277,0.13527559230181527,0.9976081451747971,979.0,6.350172818063089,0.6098767545597686,8.667985443680216,-0.18616834469527263,0.048,0.9999999999985363,-109.65401158935717,1.0033761274960957,202,2026-10-08 02:16:56.656243,44.6,0.49917032599626304,1.0619633338831147,1.7914772459900843
0323,cdot_cos,S,R-S,203,40,40624,-0.0037700248767003597,-0.01644310403686025,-0.12573444401069625,0.00365587878612272,979.0,6.366130390308344,0.6098810751329442,8.689475923234161,-0.034826867166094136,0.052,0.9999999999984941,35028.10191599156,1.0083432735846207,203,2026-10-08 02:16:56.708243,44.6,0.012964530396805762,0.329597254692154,0.30687638933182615
0323,cdot_cos,T,S-T,204,40,40852,-0.07653894726314292,0.0309370607225714,-0.07276892238644256,0.03748914432086663,979.0,6.384450932551073,0.6099253793790624,8.711485074493607,-0.040090107308003706,0.228,0.9999999999984536,-118.79764589298951,1.0133106612784304,204,2026-10-08 02:16:56.936243,44.6,0.8769675753618239,0.22885467336085008,0.08035325545056603
0323,cdot_cos,P,T-P,205,41,41393,0.026492518881125755,-6.260914974463056e-05,0.10303146614426867,0.9900008270111542,959.0,6.470488121360892,0.6110946927623854,8.749552813896333,-0.18960638791328718,0.541,0.999999999998448,-127.86673165442677,1.0182784856402909,205,2026-10-08 02:16:57.477243,44.6,0.45449816169925206,0.10553209315625216,0.1590336207205519
0323,cdot_cos,Q,P-Q,206,41,41521,-0.008474748275532098,-0.009485032652436711,-0.03496726715665785,0.17371264739986889,959.0,6.498636657346138,0.611299737533933,8.773810586178753,-0.0625719885937222,0.128,0.9999999999984035,619.5446894878767,1.0232457364954375,206,2026-10-08 02:16:57.605243,44.6,0.13130768681828148,0.4498419966618601,0.2199104373847363
0323,cdot_cos,R,Q-R,207,41,41552,0.12235759643855693,0.19051325158160523,0.13083234471408903,0.9970854544601973,959.0,6.585647672506328,0.6124759011512569,8.812002567199087,-0.1949199379186028,0.031,0.9999999999983966,-112.52511757335287,1.028212851629816,207,2026-10-08 02:16:57.636243,44.6,0.507130857535554,1.6639700628519731,2.8068069406512883
0323,cdot_cos,S,R-S,208,41,41602,-0.0029426870216282103,-0.014498675388538282,-0.12530028346018512,0.0037270930278834576,959.0,6.60180280124296,0.6124802951869817,8.83332530899648,-0.036475538782651105,0.05,0.9999999999983513,36058.96926249076,1.0331799949267202,208,2026-10-08 02:16:57.686244,44.6,0.012986387780767184,0.3394729926135298,0.3231025747326477
0323,cdot_cos,T,S-T,209,41,41832,-0.08328250514485225,0.017677696762420536,-0.08033981812322404,0.027036575639348213,959.0,6.619594971767681,0.6125121692605002,8.854994603343066,-0.04027389270742065,0.23,0.9999999999983077,-119.16750843148148,1.0381473969352204,209,2026-10-08 02:16:57.916243,44.6,0.909997836762251,0.22823011902231788,0.07735726315095912
0323,cdot_cos,P,T-P,210,42,42352,0.023672603208442042,-6.887577743752846e-05,0.10695510835329429,0.9915925813718361,998.0,6.706788655993226,0.6136805142790854,8.893084601332081,-0.19871498454354913,0.52,0.9999999999983022,-135.611561067801,1.043115222541106,210,2026-10-08 02:16:58.436243,44.6,0.45053101639330007,0.11073776947060013,0.16768016197220312
0323,cdot_cos,Q,P-Q,211,42,42481,-0.012420330567379042,-0.013136651259296252,-0.03609293377582108,0.1666240413103468,998.0,6.734762252017105,0.613876711233662,8.917083809552409,-0.06429086368480053,0.129,0.9999999999982546,685.1488655816586,1.0480824799598176,211,2026-10-08 02:16:58.565243,44.6,0.12357903139005104,0.44987495258428534,0.21684958158045348
0323,cdot_cos,R,Q-R,212,42,42512,0.1233624525776764,0.1939814310593204,0.13578278314505546,0.9976615181649882,998.0,6.822856393759972,0.6150506650451062,8.955282450191453,-0.20398076861971115,0.031,0.9999999999982476,-118.99097185354428,1.0530495938907192,212,2026-10-08 02:16:58.596244,44.6,0.5041814807605882,1.6840393830805431,2.841746507834423
0323,cdot_cos,S,R-S,213,42,42561,-0.004263349486139764,-0.01643558071000761,-0.12762580206381616,0.0033611316370296585,998.0,6.8391726937680986,0.6150546178528189,8.976436223940933,-0.038070994751147176,0.049,0.9999999999982,41972.63968478722,1.058016735743692,213,2026-10-08 02:16:58.645243,44.6,0.012805187951344285,0.47772298246416117,0.33298571445156244
0323,cdot_cos,T,S-T,214,42,42791,-0.03547688071487251,0.014131393484255822,-0.031213531228732747,0.19906896969668791,998.0,6.86967324604146,0.6152887027854638,9.000907362621398,-0.07139485092876018,0.23,0.9999999999981615,-142.35797153235868,1.0629841502294106,214,2026-10-08 02:16:58.875243,44.6,0.6270341117405901,0.248947101457632,0.13261109684070102
0323,cdot_cos,P,T-P,215,43,43350,0.023721422747504606,2.4366800958891412e-05,0.059198303462377116,0.9334071534307797,1019.0,6.953688360438609,0.6163855816937472,9.037996571352378,-0.19809011173773106,0.559,0.9999999999981531,-115.50523932239601,1.0679520683638322,215,2026-10-08 02:16:59.434243,44.6,0.5275118372153369,0.10050937442062645,0.1502953745923962
0323,cdot_cos,Q,P-Q,216,43,43480,-0.012292301392914097,-0.012656185242922108,-0.0360137241404187,0.16711517851819152,1019.0,6.98204272664372,0.6165818399089629,9.061875663032408,-0.06738411415996988,0.13,0.999999999998102,665.9899430663589,1.0729193327169295,216,2026-10-08 02:16:59.564243,44.6,0.1437448673386252,0.4519148165599063,0.21811050927008377
0323,cdot_cos,R,Q-R,217,43,43510,0.12352015572019312,0.18660770180271047,0.13581245711310722,0.997664603779686,1019.0,7.071186212744185,0.6177526940273601,9.100075829171844,-0.2133875657341185,0.03,0.9999999999980943,-124.69824317141281,1.0778864436791487,217,2026-10-08 02:16:59.594244,44.6,0.5044849650118964,1.7609588701554972,2.971449536682158
0323,cdot_cos,S,R-S,218,43,43560,-0.004726135320958469,-0.016579006800220838,-0.1282462910411516,0.003269691539023045,1019.0,7.08770025885305,0.617756529082114,9.121076250236749,-0.03982763802566873,0.05,0.999999999998044,45256.179858462485,1.0828535869779166,218,2026-10-08 02:16:59.644243,44.6,0.012806837578443813,0.47190517233018703,0.33028092217730176
0323,cdot_cos,T,S-T,219,43,43789,-0.03631284882616742,0.016765223339440628,-0.03158671350520895,0.19642853901359153,1019.0,7.118376729977204,0.6179868952044218,9.145381320967259,-0.07421325654618321,0.229,0.9999999999980024,-149.26508366781707,1.0878210124646583,219,2026-10-08 02:16:59.873244,44.6,0.6291816576743855,0.2530236704419225,0.13395838918844372
0323,cdot_cos,P,T-P,220,44,44369,0.023912763743789197,-7.785826483096118e-05,0.06022561256995662,0.9361991866042824,998.0,7.2035850999154505,0.619084114209608,9.182511962278712,-0.20759065678980174,0.58,0.9999999999979936,-121.55950599943796,1.092788999875587,220,2026-10-08 02:17:00.453243,44.6,0.5259748176637089,0.09784409135204068,0.1469109826521498
0323,cdot_cos,Q,P-Q,221,44,44478,-0.012995937886862327,-0.01070003778106999,-0.036908701630651526,0.16163293579884702,998.0,7.231875875945571,0.6192734242281169,9.206172476567817,-0.06945692575166096,0.109,0.999999999997939,729.669418058799,1.0977562358594715,221,2026-10-08 02:17:00.562243,44.6,0.13686389912451824,0.543301904339038,0.25954840394605794
0323,cdot_cos,R,Q-R,222,44,44528,0.11917812162549866,0.16781154617048633,0.132174059512361,0.9972542816629589,998.0,7.322024915061361,0.6204406387382878,9.244368565372643,-0.22287672826918162,0.05,0.9999999999979305,-131.44096580418653,1.1027233778453076,222,2026-10-08 02:17:00.612243,44.6,0.5023984769835707,1.0692412092205572,1.8029807823157995
0323,cdot_cos,S,R-S,223,44,44578,-0.004091509407410408,-0.01578279680512407,-0.12326963103290907,0.004078961540853538,998.0,7.3387999968676265,0.6204454100196624,9.265237073067569,-0.04177778542265105,0.05,0.9999999999978759,37956.039191597134,1.1076905209276742,223,2026-10-08 02:17:00.662244,44.6,0.013104306948653182,0.35993951902648647,0.3355016361253149
0323,cdot_cos,T,S-T,224,44,44808,-0.07689753767043576,0.03614219111522336,-0.07280602826302536,0.0374294742808062,998.0,7.358018866964009,0.6204891912900714,9.286643169649013,-0.04797931658053067,0.23,0.9999999999978239,-141.64804035923657,1.1126579600180444,224,2026-10-08 02:17:00.892244,44.6,0.8787505042406062,0.23783123796003133,0.08356030476688217
0323,cdot_cos,P,T-P,225,45,45367,0.02658555631598743,5.175276754038251e-06,0.10348309398642319,0.9901982670562698,998.0,7.448202366329241,0.6216467123357683,9.324712194268912,-0.226546173783169,0.559,0.9999999999978164,-154.2666181893325,1.117625947998096,225,2026-10-08 02:17:01.451244,44.6,0.45465610365287745,0.10658488957809027,0.16133005253172003
0323,cdot_cos,Q,P-Q,226,45,45496,-0.009505942643424222,-0.010060810911263292,-0.036091498959411654,0.1666329275718626,998.0,7.477180773512314,0.6218413669766942,9.348337642735657,-0.07336653621905928,0.129,0.9999999999977588,786.9303132741128,1.122593221308785,226,2026-10-08 02:17:01.580243,44.6,0.12395112768984162,0.46597539128144355,0.22463881537266223
0323,cdot_cos,R,Q-R,227,45,45527,0.13497346817436529,0.20381698924480274,0.1444794108177895,0.9984121443806121,998.0,7.568424017279853,0.6230068522465891,9.386556854921075,-0.23258456384796344,0.031,0.9999999999977498,-136.61093086424094,1.1275603306807853,227,2026-10-08 02:17:01.611244,44.6,0.5043122112098185,1.7427618579483157,2.9433304441141614
0323,cdot_cos,S,R-S,228,45,45577,-0.0034627205072188323,-0.01357937714265843,-0.1384361886815841,0.0020780315390097463,998.0,7.58523200870511,0.6230092765356275,9.407245956493714,-0.04315220176265339,0.05,0.9999999999976922,78139.34687009406,1.1325274735359656,228,2026-10-08 02:17:01.661243,44.6,0.012402397139183579,0.33483801451067663,0.3361598285051315
0323,cdot_cos,T,S-T,229,45,45807,-0.1634848619187661,0.07536461548495904,-0.16002214141154728,0.0007945121059955724,998.0,7.601907818730921,0.6230102034337871,9.427867339173739,-0.04290740284252944,0.23,0.9999999999976339,264.10551968345953,1.1374949247468071,229,2026-10-08 02:17:01.891244,44.6,0.9943109601975164,0.23601686342752923,0.07250352185135256
0323,cdot_cos,P,T-P,230,46,46365,0.021910893653159017,8.006887820610714e-05,0.1853957555719251,0.9997436346792871,1019.0,7.693799765881773,0.6241758149696651,9.466107338918816,-0.23783891898785212,0.558,0.9999999999976269,-167.23540403062907,1.1424629456813147,230,2026-10-08 02:17:02.449243,44.6,0.44061020006331664,0.10909114124338777,0.16468090887249526
0323,cdot_cos,Q,P-Q,231,46,46476,-0.012995210956493202,-0.010559226498943714,-0.03490610460965222,0.17410454212469137,1019.0,7.723653532358542,0.6243786587216226,9.489747033068062,-0.07786718093439667,0.111,0.9999999999975664,788.6451345418477,1.1474301927337325,231,2026-10-08 02:17:02.560243,44.6,0.12816740741708754,0.5498894378394624,0.2689528511420577
0323,cdot_cos,R,Q-R,232,46,46506,0.12875365096378738,0.16810558573666534,0.14174886192028058,0.9982068725030544,1019.0,7.815875221082134,0.6255407942123248,9.527966602407153,-0.2421448737226749,0.03,0.9999999999975571,-141.35846818430352,1.152397298877991,232,2026-10-08 02:17:02.590244,44.6,0.5074143759776147,1.8206716446433606,3.074056290786409
0323,cdot_cos,S,R-S,233,46,46556,-0.00520921176152757,-0.01248603819838897,-0.13396286272531496,0.002535707456434633,1019.0,7.832893831037143,0.6255437445052963,9.548523945378072,-0.04499948882973755,0.05,0.9999999999974959,66822.30774996852,1.157364441622525,233,2026-10-08 02:17:02.640243,44.6,0.012512109806737805,0.3680897702496466,0.34037219910018734
0323,cdot_cos,T,S-T,234,46,46785,-0.07677329882087597,0.04104242464226712,-0.0715640870593484,0.03947705388612495,1019.0,7.852684198107099,0.6255896748127021,9.569695001413578,-0.05244888363705655,0.229,0.9999999999974373,-162.1890909959409,1.1623319036754318,234,2026-10-08 02:17:02.869244,44.6,0.8675939071452385,0.24414619309812813,0.08642081689936809
0323,cdot_cos,P,T-P,235,47,47384,0.0230154991018632,1.7822453437443653e-05,0.09978879792273918,0.988462868145559,1018.0,7.944712787476086,0.626738980874329,9.607739988961447,-0.24533067267738295,0.599,0.9999999999974292,-167.82456430038735,1.1673000345190543,235,2026-10-08 02:17:03.468243,44.6,0.4555674605866327,0.10133842935203961,0.1536370440216818
0323,cdot_cos,Q,P-Q,236,47,47494,-0.013563633570550104,-0.010979829583701407,-0.036579132672413306,0.16363465316844097,1018.0,7.974087636470842,0.6269291046366745,9.631081661332113,-0.07889330366074727,0.11,0.9999999999973636,875.4159236243903,1.172267283666455,236,2026-10-08 02:17:03.578244,44.6,0.12128023659013712,0.5571558943038735,0.2670440817705097
0323,cdot_cos,R,Q-R,237,47,47542,0.12686423804325195,0.16854276941269958,0.14042787161380205,0.9980982611429804,1018.0,8.067287084222938,0.6280879234600018,9.66930476793702,-0.2519183671279861,0.048,0.9999999999973539,-149.3115748417363,1.1772344210441135,237,2026-10-08 02:17:03.626244,44.6,0.5031686451925677,1.1502297610386514,1.941655161502002
0323,cdot_cos,S,R-S,238,47,47594,-0.0042110453872347235,-0.014965224412435843,-0.13107528343048666,0.002883227268786647,1018.0,8.084509693530553,0.628091268839096,9.689734280087265,-0.04687307654594438,0.052,0.9999999999972876,61292.09419985946,1.1822015669701484,238,2026-10-08 02:17:03.678244,44.6,0.012594701952415289,0.3532665074165762,0.33120402514643144
0323,cdot_cos,T,S-T,239,47,47824,-0.07979301449724527,0.04255085166591145,-0.07558196911001054,0.033215601464500304,1018.0,8.104026800994262,0.6281298076763202,9.710665325603046,-0.05323635345773011,0.23,0.9999999999972244,-165.11336018714377,1.187169043126273,239,2026-10-08 02:17:03.908243,44.6,0.8873384609941664,0.24490934217237875,0.08485698897264997
0323,cdot_cos,P,T-P,240,48,48402,0.023917557259865805,8.363938216440077e-05,0.10371057175711107,0.9902962477736132,980.0,8.197167990929847,0.6292780615813456,9.748748193608195,-0.2555031595095879,0.578,0.999999999997216,-176.15163786217454,1.192137173485257,240,2026-10-08 02:17:04.486243,44.6,0.45310059465786695,0.1050802600162834,0.16114392722419504
0323,cdot_cos,Q,P-Q,241,48,48493,-0.015660533541629877,-0.01029229248004741,-0.039578090801495686,0.14614241205060008,980.0,8.225499581573086,0.6294473911924755,9.771666315847947,-0.0782831567842387,0.091,0.9999999999971462,1046.5978250512542,1.1971043905997658,241,2026-10-08 02:17:04.577244,44.6,0.10395126289971678,0.6727977672640573,0.31133616091471283
0323,cdot_cos,R,Q-R,242,48,48544,0.11774140913718502,0.16773385633131807,0.1334019426788149,0.9974002235157516,980.0,8.319617184571905,0.6306021891106293,9.809882966136517,-0.26165837587212215,0.051,0.9999999999971362,-158.7942065058929,1.2020715332697047,242,2026-10-08 02:17:04.628243,44.6,0.49617865738345046,1.0941586128407987,1.8454431960552855
0323,cdot_cos,S,R-S,243,48,48593,-0.005587847287440053,-0.015390012914396192,-0.12332925642462507,0.004068172868703936,980.0,8.337103760082847,0.6306068962231398,9.830203802038694,-0.04894251824699834,0.049,0.9999999999970667,45190.30661544758,1.2070386732715765,243,2026-10-08 02:17:04.677243,44.6,0.012955452837973546,0.37974444321451317,0.3568688879784062
0323,cdot_cos,T,S-T,244,48,48841,-0.08104159489187603,0.03270519192738438,-0.07545374760443598,0.033399732565465155,980.0,8.356832140006928,0.6306455407159741,9.851013437352835,-0.05533798246472273,0.248,0.9999999999969995,-165.4948415326856,1.2120061967555138,244,2026-10-08 02:17:04.925244,44.6,0.8908573473539615,0.22945662624319235,0.07954991904871124
0323,cdot_cos,P,T-P,245,49,49382,0.02208429462803657,-2.5885850236766148e-05,0.1031258895199126,0.9900424293859976,998.0,8.45091424669947,0.6317902869148407,9.889097643432443,-0.26535596285528357,0.541,0.9999999999969901,-183.46248329847577,1.216974292942893,245,2026-10-08 02:17:05.466244,44.6,0.4531837753943274,0.11561596444042975,0.17390407891412757
0323,cdot_cos,Q,P-Q,246,49,49511,-0.01238703257360729,-0.01308567661732299,-0.034471327201643864,0.17691047016092792,998.0,8.481928613531473,0.6319946855240699,9.912465409727643,-0.0881058270891786,0.129,0.9999999999969196,867.1787759934357,1.2219415874611992,246,2026-10-08 02:17:05.595244,44.6,0.13374948380518542,0.4888282415742745,0.24042144831009288
0323,cdot_cos,R,Q-R,247,49,49541,0.12320843553920087,0.2024092378956156,0.13559546811280815,0.997641946329474,998.0,8.577031933025633,0.633146450556812,9.950693752167297,-0.27182491759704974,0.03,0.9999999999969084,-159.51091176164894,1.2269086881807305,247,2026-10-08 02:17:05.625243,44.6,0.5087121809478019,1.878653184195045,3.1701106498053617
0323,cdot_cos,S,R-S,248,49,49591,-0.003726960353951153,-0.01439451585297074,-0.12693539589315203,0.0034658736221634943,998.0,8.594647804583175,0.6331504492231241,9.970879455034652,-0.05068230538770126,0.05,0.9999999999968356,55304.09265106765,1.2318758299010015,248,2026-10-08 02:17:05.675244,44.6,0.01273616053489674,0.4866385937713069,0.352317431150837
0323,cdot_cos,T,S-T,249,49,49821,-0.038452197407804214,0.015308887536246818,-0.03472523705385306,0.17526752030256226,998.0,8.625695792402764,0.633352635893735,9.994152259443789,-0.089559928340489,0.23,0.9999999999967748,-192.28578637415438,1.236843332439961,249,2026-10-08 02:17:05.905244,44.6,0.6478499409856959,0.2659460418211253,0.1349912513895167
0323,cdot_cos,P,T-P,250,50,50380,0.02405238503495105,-3.937685342478581e-05,0.06250458244275527,0.9420077639936302,1018.0,8.716982983820893,0.6344385199909853,10.031370282778125,-0.26486228000738526,0.559,0.9999999999967623,-161.43744264309677,1.2418115035464599,250,2026-10-08 02:17:06.464243,44.6,0.515889709959463,0.10866166859338683,0.1633044569197295
0323,cdot_cos,Q,P-Q,251,50,50490,-0.012735724423647581,-0.0102574495594812,-0.03678810945859863,0.16236307905750372,1018.0,8.74717953789017,0.6346255437042884,10.05437669044358,-0.08820743467549513,0.11,0.9999999999966865,944.5585386579014,1.2467787653148554,251,2026-10-08 02:17:06.574244,44.6,0.13496759224824098,0.5741507291435965,0.2745141279025244
0323,cdot_cos,R,Q-R,252,50,50538,0.12891483853153501,0.17092805725513133,0.1416505629551826,0.9981990081236173,1018.0,8.843296144232484,0.6357744608624518,10.09262397231361,-0.28241878084625854,0.048,0.9999999999966759,-169.03859846710844,1.251745901598175,252,2026-10-08 02:17:06.622243,44.6,0.5027453506075473,1.1859665846274219,2.0024292987981993
0323,cdot_cos,S,R-S,253,50,50590,-0.004275112100689228,-0.015003788404336705,-0.13318995063222425,0.002624408722931543,1018.0,8.861032330014403,0.6357774794982054,10.112677204705074,-0.052451288378754256,0.052,0.9999999999965987,76182.59082587354,1.2567130473754837,253,2026-10-08 02:17:06.674243,44.6,0.012470352966298542,0.37025391827071574,0.34108049580613337
0323,cdot_cos,T,S-T,254,50,50799,-0.07474073734802375,0.040163122953311856,-0.07046562524733452,0.04137723096294612,1018.0,8.881802551732639,0.6358250708206796,10.133401506740848,-0.06155400166273635,0.209,0.9999999999965244,-191.2683407550097,1.2616805196300178,254,2026-10-08 02:17:06.883244,44.6,0.8625331062735695,0.2788416127651838,0.09937905128342348
0323,cdot_cos,P,T-P,255,51,51398,0.023012929734633116,3.506483453988809e-05,0.09775366708265687,0.9873805163449558,1019.0,8.97758812415025,0.6369599475799294,10.171452279340475,-0.28534974035204863,0.599,0.9999999999965155,-197.19827449569513,1.2666488122828652,255,2026-10-08 02:17:07.482244,44.6,0.456445595953199,0.1053157399033811,0.15990913592255646
0323,cdot_cos,Q,P-Q,256,51,51508,-0.01400457057999949,-0.011313355080860668,-0.037017500314632606,0.16097647433525641,1019.0,9.00797080813689,0.6371448267703295,10.194335616503821,-0.09113093988239869,0.11,0.9999999999964357,1050.5173678515475,1.2716160781045258,256,2026-10-08 02:17:07.592243,44.6,0.11869406948652449,0.5790918039011298,0.27620621806035667
0323,cdot_cos,R,Q-R,257,51,51557,0.1214760728242021,0.1659976137514444,0.1354806434042016,0.9976298680280258,1019.0,9.104988321008499,0.6382896845043394,10.23258054644106,-0.29265929087631426,0.049,0.9999999999964242,-176.0291650282565,1.2765832159290835,257,2026-10-08 02:17:07.641243,44.6,0.5022733383340896,1.1734393881766818,1.979949242277741
0323,cdot_cos,S,R-S,258,51,51608,-0.004956736620666575,-0.0175118555944874,-0.12643280944486868,0.003544161214433342,1019.0,9.122967868178204,0.638293748915789,10.252534245046661,-0.05458054463613747,0.051,0.9999999999963425,58576.43823493629,1.2815503592729884,258,2026-10-08 02:17:07.692243,44.6,0.012753227800605846,0.49851712091635436,0.352540140582461
0323,cdot_cos,T,S-T,259,51,51837,-0.03743576853753116,0.01725228051347388,-0.03247903191686458,0.1902225393469734,1019.0,9.155837067341967,0.6385118653242714,10.275894530022532,-0.10003320995908195,0.229,0.9999999999962759,-208.38718938755414,1.2865178868430485,259,2026-10-08 02:17:07.921243,44.6,0.6348441424179808,0.2744261726148679,0.1435336208024569
0323,cdot_cos,P,T-P,260,52,52417,0.023627124889657427,-1.200231503961983e-05,0.06106289342718858,0.9383936769408279,998.0,9.248655055235814,0.6395870264187078,10.313049739664061,-0.2840534668334659,0.58,0.999999999996262,-171.15598567194104,1.2914861818667405,260,2026-10-08 02:17:08.501244,44.6,0.5231763476430707,0.10729735927607104,0.16003101361008082
0323,cdot_cos,Q,P-Q,261,52,52547,-0.011467048591003646,-0.01216400788012975,-0.03509417348066107,0.1729017270526034,998.0,9.280302004102209,0.639784975659354,10.336062232427196,-0.09748166596109782,0.13,0.9999999999961786,942.5234482502141,1.2964534960743785,261,2026-10-08 02:17:08.631244,44.6,0.14750151564861858,0.4985435191827378,0.24343806820304245
0323,cdot_cos,R,Q-R,262,52,52577,0.12435154333573525,0.19352398615620808,0.1358185919267389,0.99766524119462,998.0,9.378276370223325,0.640926238329325,10.374317228415405,-0.303477674393145,0.03,0.9999999999961663,-180.4983321125116,1.3014205912769974,262,2026-10-08 02:17:08.661243,44.6,0.5072330478060524,1.935276138024674,3.2658122040372106
0323,cdot_cos,S,R-S,263,52,52626,-0.004021522314691929,-0.015574505794450688,-0.1283730656504272,0.003251316325698936,998.0,9.39641857238369,0.640929955020646,10.394156932430672,-0.05654538570556167,0.049,0.9999999999960806,66438.74009576613,1.3063877299790112,263,2026-10-08 02:17:08.710243,44.6,0.012689567851380753,0.5021273028535037,0.3702490236809001
0323,cdot_cos,T,S-T,264,52,52856,-0.040574412967175406,0.016142383480448858,-0.036552890652483475,0.1637948944418273,998.0,9.427484845902969,0.6411171726853663,10.416940860321136,-0.09705841657592776,0.23,0.999999999996008,-216.3953435210973,1.3113552738804002,264,2026-10-08 02:17:08.940243,44.6,0.6587516101632922,0.27208027753334135,0.13507075443164895
0323,cdot_cos,P,T-P,265,53,53415,0.022346004112448296,4.480941899814459e-05,0.0629204170796237,0.9430126617127751,999.0,9.521575500049027,0.6421941991557035,10.454184235418573,-0.29552343610022447,0.559,0.999999999995994,-184.27125515508567,1.316323563729351,265,2026-10-08 02:17:09.499244,44.6,0.5109052282655295,0.11296238891948475,0.16831959596790297
0323,cdot_cos,Q,P-Q,266,53,53545,-0.012281957004892374,-0.013065179551311772,-0.03462796111734067,0.1758955301109838,999.0,9.553776796714953,0.6423949332369688,10.477165186291252,-0.10178784871944409,0.13,0.9999999999959069,965.135497468027,1.321290884222234,266,2026-10-08 02:17:09.629244,44.6,0.14907179227456951,0.5041870748870636,0.2477022820455861
0323,cdot_cos,R,Q-R,267,53,53575,0.12035226616346259,0.19558742684969527,0.13263422316835496,0.997309908496056,999.0,9.652664139519663,0.6435321292046116,10.515422660373558,-0.3142839473224939,0.03,0.9999999999958937,-186.8597010975424,1.3262579776695578,267,2026-10-08 02:17:09.659244,44.6,0.5085825424001704,1.954322784682283,3.2962447601570117
0323,cdot_cos,S,R-S,268,53,53625,-0.004229302568957809,-0.016420170708007747,-0.1245815687324204,0.0038480320383928734,999.0,9.67103616379589,0.6435365138517549,10.535167807702091,-0.058746240498788384,0.05,0.9999999999958041,58280.10749063806,1.3312251184839938,268,2026-10-08 02:17:09.709243,44.6,0.01290866687584995,0.5085218522416035,0.3674404855245328
0323,cdot_cos,T,S-T,269,53,53854,-0.03862212480691353,0.015338811947939098,-0.03439282223795572,0.17742088549723528,999.0,9.703516324743823,0.643738650267219,10.558119949884862,-0.10410518936304287,0.229,0.9999999999957297,-224.3977106258559,1.3361926746058488,269,2026-10-08 02:17:09.938244,44.6,0.6468097654814365,0.2778227335751088,0.14183476396477604
0323,cdot_cos,P,T-P,270,54,54414,0.02317157051590742,-5.122225922735384e-05,0.061793695322820946,0.9402512474553955,1038.0,9.79827897577329,0.6448090266277573,10.595314838200826,-0.3053154549860639,0.56,0.9999999999957145,-187.98085705277526,1.3411610083532253,270,2026-10-08 02:17:10.498244,44.6,0.5173559374695471,0.11408916304869175,0.1692190196954752
0323,cdot_cos,Q,P-Q,271,54,54543,-0.010518475731480114,-0.010444079478605966,-0.033690046247387535,0.18204162747897404,1038.0,9.831296187358358,0.6450160948145159,10.61832724270305,-0.10704705301774331,0.129,0.9999999999956243,957.5029610870283,1.346128332905506,271,2026-10-08 02:17:10.627244,44.6,0.15689770673435105,0.5152824169645174,0.25594737662843914
0323,cdot_cos,R,Q-R,272,54,54574,0.1362779381861853,0.1982498414387876,0.14679641391766543,0.9985678139180193,1038.0,9.931221839350135,0.6461509753676485,10.65661723822007,-0.32569808380496856,0.031,0.9999999999956107,-192.66435589515115,1.3510954269587248,272,2026-10-08 02:17:10.658243,44.6,0.5110282440782739,1.9084029862899716,3.2234081287669945
0323,cdot_cos,S,R-S,273,54,54623,-0.004118562500093758,-0.013073042148322788,-0.14039650068627907,0.0019043964538458795,1038.0,9.949617172508336,0.6461531381623922,10.6762243403463,-0.060316718985312184,0.049,0.9999999999955167,122702.98214891976,1.3560625652626128,273,2026-10-08 02:17:10.707244,44.6,0.01227982317682116,0.37698964339396385,0.3754149624122737
0323,cdot_cos,T,S-T,274,54,54853,-0.1268447664232059,0.06710133515680775,-0.12272620392311215,0.004178612346365821,1038.0,9.968166824402743,0.6461578837293617,10.695838543830448,-0.060935374262195835,0.23,0.9999999999954232,-130.36488176435725,1.361030137700009,274,2026-10-08 02:17:10.937243,44.6,0.9898987182478683,0.25870349007120025,0.08065066041046542
0323,cdot_cos,P,T-P,275,55,55452,0.025630578782746733,-7.402450262253071e-05,0.15247534520595266,0.9988879088378685,1017.0,10.068620777941089,0.6472914730465283,10.734137441114372,-0.33147813567151674,0.599,0.9999999999954124,-238.66029549883527,1.3659986050307582,275,2026-10-08 02:17:11.536243,44.6,0.4421214068559828,0.11000206497197305,0.16770276049807192
0323,cdot_cos,Q,P-Q,276,55,55561,-0.011892271944520551,-0.0095479075757504,-0.037522850727267285,0.15795554960817873,1017.0,10.099949298239167,0.6474705777788565,10.756612763841822,-0.10403383517707981,0.109,0.9999999999953146,1269.8955384254061,1.3709658863554801,276,2026-10-08 02:17:11.645243,44.6,0.11233686977974633,0.6060364138924381,0.28741761741356553
0323,cdot_cos,R,Q-R,277,55,55610,0.1276977082807669,0.17353985719121012,0.13958998022528746,0.9980259915895772,1017.0,10.20073671616964,0.6486012729177991,10.794900343334815,-0.3363867605671623,0.049,0.9999999999953009,-205.49564368639165,1.3759330226086413,277,2026-10-08 02:17:11.694243,44.6,0.5012093097451767,1.2184860190276812,2.0568860802137316
0323,cdot_cos,S,R-S,278,55,55661,-0.0044239577066925,-0.015525445440839116,-0.1321216659874594,0.0027521242214574772,1017.0,10.21936092810388,0.6486043885893272,10.814420114933887,-0.0625253985974357,0.051,0.9999999999952012,87898.0211806707,1.380900165090137,278,2026-10-08 02:17:11.745243,44.6,0.012525335360845326,0.39139413914165055,0.3651806261615669
0323,cdot_cos,T,S-T,279,55,55891,-0.0785486637138329,0.04171571461435424,-0.0741247060071404,0.035367226812712656,1017.0,10.240658918362088,0.6486444265934314,10.834521818237796,-0.07163786664348476,0.23,0.9999999999951051,-227.59546211021092,1.3858677511201494,279,2026-10-08 02:17:11.975244,44.6,0.8805559282259403,0.2653225859569807,0.09259995764438453
0323,cdot_cos,P,T-P,280,56,56469,0.02826561971099491,0.00011889497988433577,0.10681428342482781,0.9915400580838355,998.0,10.341409317644091,0.6497660617993569,10.872689978338906,-0.34040419878576755,0.578,0.9999999999950929,-239.62009280949687,1.3908362092481508,280,2026-10-08 02:17:12.553244,44.6,0.45404880864203057,0.11389417281565684,0.17430864927682127
0323,cdot_cos,Q,P-Q,281,56,56580,-0.010696023261341699,-0.008964421834126655,-0.03896164297233661,0.14960667724606871,998.0,10.372320582136988,0.649935154325322,10.894923603936823,-0.10508429273128297,0.111,0.9999999999949901,1391.6635564547203,1.3958034997828936,281,2026-10-08 02:17:12.664243,44.6,0.10652833808491777,0.5970800462218457,0.27847986029636584
0323,cdot_cos,R,Q-R,282,56,56630,0.12319974475283636,0.17891370812744217,0.13389576801417807,0.9974567125941056,998.0,10.47396108790534,0.6510615623465139,10.933208046930778,-0.34722430687565503,0.05,0.9999999999949751,-214.96652153466772,1.4007706379606475,282,2026-10-08 02:17:12.714243,44.6,0.49789849206424147,1.2048455693048332,2.032810115367063
0323,cdot_cos,S,R-S,283,56,56679,-0.0037334577440306903,-0.014927708594233844,-0.12693320249686704,0.0034662115141998904,998.0,10.492805139067471,0.6510654737384308,10.95264181113425,-0.06474688314728856,0.049,0.9999999999948707,72219.15617994554,1.4057377748865991,283,2026-10-08 02:17:12.763244,44.6,0.01274271293433201,0.38587818468560403,0.3845724726965341
0323,cdot_cos,T,S-T,284,56,56909,-0.12079176702719886,0.048116032000252835,-0.11705830928316817,0.005373966234333002,998.0,10.51177715000453,0.6510715378659585,10.972077896341585,-0.06530358820186126,0.23,0.999999999994767,-91.80299260385316,1.4107053746866516,284,2026-10-08 02:17:12.993243,44.6,0.9915113567661983,0.2634718074867708,0.08248700407416967
0323,cdot_cos,P,T-P,285,57,57467,0.025692089715172117,0.00016394016924973695,0.14648385674237097,0.9985477385658186,1000.0,10.614002170511386,0.6521974753749653,11.010386255406422,-0.3533666882047368,0.558,0.9999999999947546,-255.84288443945533,1.4156738226757501,285,2026-10-08 02:17:13.551244,44.6,0.44255259202413477,0.12071057830493238,0.18319896148181997
0323,cdot_cos,Q,P-Q,286,57,57578,-0.01062747524618709,-0.008913013435460908,-0.036319564961359206,0.16522519983081066,1000.0,10.646490155392835,0.6523836156691977,11.032834624187654,-0.1129909150726796,0.111,0.9999999999946494,1291.368825451582,1.4206411176979632,286,2026-10-08 02:17:13.662244,44.6,0.11914783234000378,0.608651800895123,0.2926845484815225
0323,cdot_cos,R,Q-R,287,57,57626,0.13761901331781282,0.19180231678471613,0.1482464885639999,0.9986573861167617,1000.0,10.749122870310103,0.6535076958476093,11.07114915915947,-0.3586729574974323,0.048,0.9999999999946347,-218.56273880028718,1.4256082502793097,287,2026-10-08 02:17:13.710243,44.6,0.5041027850975889,1.2656467326400318,2.1381815607764234
0323,cdot_cos,S,R-S,288,57,57678,-0.0029951064937078662,-0.011912712744818622,-0.1406141198115207,0.00188603684059646,1000.0,10.767992241726278,0.6535098171392529,11.090456097704052,-0.06631763985790845,0.052,0.9999999999945253,137819.4830075335,1.430575394701162,288,2026-10-08 02:17:13.762244,44.6,0.012174525776024568,0.3617720967188718,0.36287252723412944
0323,cdot_cos,T,S-T,289,57,57907,-0.16001834161283401,0.0756271749668504,-0.15702323511912614,0.0009081102108815611,1000.0,10.786747168368866,0.6535108385204137,11.109711043389813,-0.06603058345899722,0.229,0.9999999999944164,281.0472817980693,1.435543006004696,289,2026-10-08 02:17:13.991244,44.6,0.9956621110491252,0.26630218886242973,0.08189924298073332
0323,cdot_cos,P,T-P,290,58,58467,0.023643409525267074,-5.276961441028668e-05,0.1836617511381011,0.9997230271613397,1037.0,10.88995864422527,0.6546344000254093,11.148049249364659,-0.36487401858923085,0.56,0.9999999999944041,-265.9787059288802,1.440511499978608,290,2026-10-08 02:17:14.551244,44.6,0.44085827374908726,0.12193102853048483,0.18430620688643728
0323,cdot_cos,Q,P-Q,291,58,58596,-0.011567549428415811,-0.011502896143118084,-0.03521095895368288,0.1721581262411686,1037.0,10.923309920323009,0.654827710110392,11.170552037560759,-0.11861518455159212,0.129,0.9999999999942955,1273.9057771336168,1.4454788477127651,291,2026-10-08 02:17:14.680243,44.6,0.12541643590963347,0.5304257832560932,0.2585370240134739
0323,cdot_cos,R,Q-R,292,58,58626,0.13319357935472978,0.19110648276590814,0.1447611287831456,0.9984319392828624,1037.0,11.026808496305343,0.6559478022262354,11.20886920901163,-0.36983549455645015,0.03,0.9999999999942798,-224.28540157672126,1.4504459309870579,292,2026-10-08 02:17:14.710243,44.6,0.5069840055248362,2.0424341276722364,3.4499525327444642
0323,cdot_cos,S,R-S,293,58,58676,-0.004543564330742519,-0.014500364732378642,-0.1377371436854723,0.002143698634291767,1037.0,11.045855967983343,0.655950205278201,11.228087167276158,-0.0684429637168585,0.05,0.9999999999941661,125420.72961770177,1.4554130697720935,293,2026-10-08 02:17:14.760243,44.6,0.012233740034409326,0.5313971124826544,0.380949433560005
0323,cdot_cos,T,S-T,294,58,58906,-0.038670426018311485,0.020319535448733054,-0.03412686168756897,0.17915866373779318,1037.0,11.079948207553608,0.6561510110669206,11.25067449787516,-0.1227637790344423,0.23,0.9999999999940712,-270.5141901732311,1.4603806989112176,294,2026-10-08 02:17:14.990243,44.6,0.642439628248335,0.2899848685862084,0.1482271285663704
0323,cdot_cos,P,T-P,295,59,59504,0.024348771310681135,6.32931058152451e-05,0.06301919732899262,0.9432489560807714,998.0,11.179249007532999,0.6572073079820565,11.28793485092352,-0.3592029598084031,0.598,0.9999999999940533,-223.83780297564192,1.4653493416289995,295,2026-10-08 02:17:15.588243,44.6,0.5177655061823071,0.11005242731363006,0.166054849463864
0323,cdot_cos,Q,P-Q,296,59,59615,-0.01339809183674395,-0.011180772512832192,-0.037746863147425085,0.15663123351338878,998.0,11.21157091062071,0.6573825610804255,11.310066971271393,-0.11758141235694108,0.111,0.9999999999939373,1378.7005747696878,1.47031664590715,296,2026-10-08 02:17:15.699244,44.6,0.12810182880216336,0.6156597726704213,0.2911883161055034
0323,cdot_cos,R,Q-R,297,59,59646,0.12597594559203437,0.17213184679104354,0.13937403742877832,0.9980069260470473,998.0,11.315925477065832,0.6584982115366977,11.348382546446704,-0.38134288090879015,0.031,0.9999999999939214,-236.41945115422436,1.4752837298626011,297,2026-10-08 02:17:15.730243,44.6,0.5007417122125308,1.9941079817384768,3.36627633693944
0323,cdot_cos,S,R-S,298,59,59695,-0.0052171939796892795,-0.013372189972880885,-0.13119313957172365,0.002868155034712534,998.0,11.335205605488495,0.6585014152655991,11.367526778205209,-0.07084186179199627,0.049,0.9999999999938021,96918.6309684296,1.4802508654728173,298,2026-10-08 02:17:15.779244,44.6,0.012487638095059532,0.42547970194184886,0.3934720086257737
0323,cdot_cos,T,S-T,299,59,59943,-0.0766211042586772,0.03572031268138855,-0.07140391027898792,0.03974883307298352,998.0,11.357622487856133,0.6585458132185661,11.387351543018957,-0.08251381235007392,0.248,0.9999999999936879,-262.8938898774112,1.485218559617153,299,2026-10-08 02:17:16.027244,44.6,0.8680946678493242,0.25503917807154847,0.09039065470821887
0323,cdot_cos,P,T-P,300,60,60502,0.02465815103815987,0.00010464503502565093,0.10127925529683707,0.989196841378801,998.0,11.461705037811983,0.6596498120888171,11.425500207264122,-0.38464833952076205,0.559,0.9999999999936733,-273.6728590147807,1.4901871365646955,300,2026-10-08 02:17:16.586244,44.6,0.45589969154730237,0.12254193601600695,0.18619418596753085
0323,cdot_cos,Q,P-Q,301,60,60613,-0.012445239034071362,-0.010413400962111557,-0.037103390072231235,0.1604597622653804,998.0,11.49462437232203,0.6598287312426249,11.447631997745134,-0.12235632384234467,0.111,0.9999999999935542,1465.9806403972884,1.4951544455559467,301,2026-10-08 02:17:16.697243,44.6,0.11722342441832254,0.6221845234300697,0.29657058117158586
0323,cdot_cos,R,Q-R,302,60,60661,0.12436370289815121,0.17536284762805485,0.13680894193222257,0.9977658968634682,998.0,11.599830002013459,0.6609402563523843,11.485948546266524,-0.39276134399952645,0.048,0.999999999993538,-243.27387459173744,1.5001215763522922,302,2026-10-08 02:17:16.745243,44.6,0.5023432778387013,1.2987322505901844,2.19178395190478
0323,cdot_cos,S,R-S,303,60,60712,-0.0038153852483675072,-0.01519689666134958,-0.1281790881465187,0.0032794741330508448,998.0,11.619302668378687,0.6609439068161305,11.505012837653814,-0.07308901338729547,0.051,0.9999999999934129,87570.33430266235,1.5050887171496607,303,2026-10-08 02:17:16.796243,44.6,0.012604015160812384,0.40366382271283435,0.3818169875534954
0323,cdot_cos,T,S-T,304,60,60942,-0.0822499831812343,0.038064768229742606,-0.07843459793286679,0.029363972201919917,998.0,11.641003711930168,0.6609765917266339,11.524552248610345,-0.08159362442432261,0.23,0.9999999999932925,-260.1999181282149,1.5100563753524554,304,2026-10-08 02:17:17.026243,44.6,0.9010168516446952,0.27565791277281015,0.09435236326730798
0323,cdot_cos,P,T-P,305,61,61500,0.023240589390316348,0.00011738437518531337,0.10549057257155064,0.991030181402011,1000.0,11.74610530825418,0.6620788015982924,11.562741126316952,-0.3966930328538747,0.558,0.9999999999932784,-285.87968274629935,1.5150249916679859,305,2026-10-08 02:17:17.584243,44.6,0.45189046667152066,0.12443758406004081,0.18835411527600684
0323,cdot_cos,Q,P-Q,306,61,61611,-0.01276313464822864,-0.01069203214114614,-0.03600372403854499,0.16717726607984562,1000.0,11.779876055741173,0.6622645608276365,11.584931418187395,-0.12818600214502088,0.111,0.9999999999931549,1445.4572817557394,1.5199923053977233,306,2026-10-08 02:17:17.695244,44.6,0.12311119238451664,0.630070450933978,0.3042409683512947
0323,cdot_cos,R,Q-R,307,61,61658,0.12849974415057333,0.17758484797927981,0.14126287879880198,0.9981676544669259,1000.0,11.885980948361523,0.66337263295973,11.623260666206777,-0.40449035973202546,0.047,0.9999999999931388,-249.35593052500414,1.5249594327025802,307,2026-10-08 02:17:17.742244,44.6,0.5050526662235103,1.3370611686954583,2.2575509068159443
0323,cdot_cos,S,R-S,308,61,61711,-0.003956959672492744,-0.015697654957037746,-0.13245670382306607,0.0027114164928715135,1000.0,11.905559805598546,0.6633756404815282,11.642228439925734,-0.07503424146877853,0.053,0.9999999999930094,109544.05000983106,1.5299265791800338,308,2026-10-08 02:17:17.795244,44.6,0.012391511011079206,0.3935907252679131,0.3694124006985601
0323,cdot_cos,T,S-T,309,61,61940,-0.08010536038160146,0.03754574753161657,-0.07614840070910872,0.03241384976935437,1000.0,11.927701565239921,0.6634115931214438,11.661744837867293,-0.08500064225934485,0.229,0.9999999999928838,-277.2091510930907,1.5348942492828632,309,2026-10-08 02:17:18.024243,44.6,0.8893620348552699,0.2795142978411698,0.09668890673089564
0323,cdot_cos,P,T-P,310,62,62500,0.023137772343402894,-6.552130506101188e-05,0.10324313272500435,0.9900938476392998,1016.0,12.033577354009802,0.6645088677874252,11.69991956934966,-0.4079735624043489,0.56,0.9999999999928699,-294.34099789056233,1.5398629143741014,310,2026-10-08 02:17:18.584243,44.6,0.45309584752677634,0.1247902411013278,0.18906390851764407
0323,cdot_cos,Q,P-Q,311,62,62609,-0.013148534485466611,-0.010520201177093349,-0.036286306828869505,0.16542988857799043,1016.0,12.067466635273409,0.6646920332596777,11.722006440077257,-0.13131264857123168,0.109,0.9999999999927425,1510.442500056618,1.544830226842795,311,2026-10-08 02:17:18.693243,44.6,0.12161596677451382,0.6460588974818394,0.3109108372807932
0323,cdot_cos,R,Q-R,312,62,62659,0.12663550245101937,0.1905623782909676,0.13978403693648597,0.9980429694799664,1016.0,12.174418193660843,0.6657960223895311,11.760337385890326,-0.4161499124309149,0.05,0.9999999999927252,-258.00730836681987,1.5497973626293569,312,2026-10-08 02:17:18.743244,44.6,0.5043633664959281,1.2670241076372868,2.1390311677486906
0323,cdot_cos,S,R-S,313,62,62709,-0.004190963095813853,-0.01466834848496131,-0.13082646554683322,0.002915307637252557,1016.0,12.194169046037137,0.6657992445168196,11.779226004688576,-0.0772523050633532,0.05,0.9999999999925911,105178.21830723927,1.5547644997934031,313,2026-10-08 02:17:18.793243,44.6,0.01243931642357518,0.3996347380180332,0.39501704752588296
0323,cdot_cos,T,S-T,314,62,62939,-0.11088300313513852,0.05117677479019149,-0.10669204003932467,0.008505798555566565,1016.0,12.214381667462646,0.6658086454141732,11.798194235701168,-0.07918697847811224,0.23,0.9999999999924579,-205.79667472102574,1.5597321877369679,314,2026-10-08 02:17:19.023244,44.6,0.9758643269292107,0.2773578575340267,0.08788096271960508
0323,cdot_cos,P,T-P,315,63,63516,0.023238453046372322,0.000200936072420114,0.13412145618151083,0.9974821199987945,980.0,12.32175366050279,0.6669101816081172,11.836516895617503,-0.4221524904366972,0.577,0.9999999999924439,-311.3520135281254,1.5647009480031704,315,2026-10-08 02:17:19.600243,44.6,0.4437824058466625,0.12218617728072069,0.186086643050508
0323,cdot_cos,Q,P-Q,316,63,63627,-0.014026312420727428,-0.012124155713735756,-0.03726476546709975,0.1594925585899863,980.0,12.355384516044598,0.6670861433366687,11.858419232095489,-0.13295065452085436,0.111,0.99999999999231,1643.5496417120125,1.5696682710575964,316,2026-10-08 02:17:19.711244,44.6,0.11357896523994586,0.6370888468372313,0.30298068055683386
0323,cdot_cos,R,Q-R,317,63,63658,0.1262432105230194,0.17811498970967007,0.14026952294374684,0.9980848086715901,980.0,12.463187384500655,0.6681862309723142,11.896754305197168,-0.42790017211978226,0.031,0.9999999999922939,-268.11456473270675,1.5746353468460434,317,2026-10-08 02:17:19.742244,44.6,0.501929724570718,2.059631406394299,3.4775118856792515
0323,cdot_cos,S,R-S,318,63,63708,-0.005137382636076755,-0.014395392864517789,-0.13138059315909614,0.0028443439042121444,980.0,12.483081663241045,0.6681893633890336,11.915559938934472,-0.07937215803013586,0.05,0.9999999999921539,111264.89395153112,1.579602483578329,318,2026-10-08 02:17:19.792243,44.6,0.012387574891793672,0.4225155377704404,0.39788557480779474
0323,cdot_cos,T,S-T,319,63,63937,-0.08236048944507751,0.0329120373950316,-0.07722310680900075,0.030943781663456005,980.0,12.505438938277699,0.6682234401695321,11.934889016107824,-0.08934519415918489,0.229,0.9999999999920189,-292.66368427880155,1.5845701833896015,319,2026-10-08 02:17:20.021244,44.6,0.8943807999158502,0.28378733685596247,0.09763002199412357
0323,cdot_cos,P,T-P,320,64,64496,0.022347196539703962,1.0079298863176465e-05,0.10470768598478147,0.9907144120414535,1037.0,12.613056263521075,0.6693135297078655,11.97308155349946,-0.4315839208598171,0.559,0.9999999999920043,-313.95469332166374,1.589538931681582,320,2026-10-08 02:17:20.580243,44.6,0.4524929783904331,0.12765051927890303,0.19251757646400092
0323,cdot_cos,Q,P-Q,321,64,64626,-0.012727406608287285,-0.012732592234866644,-0.03507460314799125,0.1730265842248475,1037.0,12.648152218831513,0.6695037260588831,11.995183679155064,-0.14150594153253945,0.13,0.9999999999918682,1525.1500766198503,1.5945063203022942,321,2026-10-08 02:17:20.710243,44.6,0.1287432742926224,0.5528088175189384,0.26996888700336213
0323,cdot_cos,R,Q-R,322,64,64656,0.12579822398097001,0.18370049084017526,0.1385256305892573,0.9979302243203718,1037.0,12.756786556076,0.6705996001127782,12.033518106091904,-0.43976032771900453,0.03,0.9999999999918506,-272.1611896242712,1.5994733908259047,322,2026-10-08 02:17:20.740243,44.6,0.5075194158839369,2.1448434847391638,3.6211445748162303
0323,cdot_cos,S,R-S,323,64,64706,-0.004776459109692,-0.015384731287367677,-0.130574683090662,0.002948132521436958,1037.0,12.776842827915862,0.6706028348563867,12.052247293041322,-0.08160044447665056,0.05,0.9999999999917061,110722.8042118245,1.604440527177739,323,2026-10-08 02:17:20.790244,44.6,0.012410773568478887,0.580524144599881,0.4011254367972583
0323,cdot_cos,T,S-T,324,64,64935,-0.03531262207427602,0.018417819913843888,-0.03053616296458402,0.2039295869605419,1037.0,12.814838970535988,0.6708265507992459,12.074916474962652,-0.15488780665225244,0.229,0.9999999999915893,-327.5911463392176,1.6094082430732706,324,2026-10-08 02:17:21.019244,44.6,0.6230277734810651,0.30670872844840785,0.16592202017521915
0323,cdot_cos,P,T-P,325,65,65533,0.020599598699400774,0.00011635803011754207,0.05591222077367679,0.9236979308155004,1018.0,12.917315425545233,0.6718389004315249,12.111786992159512,-0.41936854009799185,0.598,0.9999999999915659,-261.25433843476867,1.6143771654327983,325,2026-10-08 02:17:21.617243,44.6,0.532238160071996,0.11517543081085584,0.1713653093800094
0323,cdot_cos,Q,P-Q,326,65,65644,-0.01466368293517856,-0.011980250257977783,-0.035263281634579334,0.17182579785574006,1018.0,12.952588785785771,0.6720270414248111,12.133804438526534,-0.14508092714047358,0.111,0.9999999999914229,1457.8833042535489,1.619344498486469,326,2026-10-08 02:17:21.728243,44.6,0.15098367796603937,0.651975930344675,0.3177780201850266
0323,cdot_cos,R,Q-R,327,65,65674,0.12138459132909658,0.15697631886172828,0.13604827426427515,0.9976889809989344,1018.0,13.062054082081751,0.6731183699999593,12.172135036998277,-0.4519803713265761,0.03,0.9999999999914053,-281.2163551608717,1.6243115667663763,327,2026-10-08 02:17:21.758244,44.6,0.5071185085131492,2.162044082582959,3.648843209865997
0323,cdot_cos,S,R-S,328,65,65724,-0.006397389797974438,-0.015458951088348313,-0.127781981127071,0.0033378786115625396,1018.0,13.082311430740749,0.6731220180247811,12.190798673080069,-0.08405909210713536,0.05,0.9999999999912556,100854.92758244711,1.6292787027221844,328,2026-10-08 02:17:21.808243,44.6,0.012563793254247137,0.44280729413106457,0.40514697317995285
0323,cdot_cos,T,S-T,329,65,65954,-0.07465585865152279,0.03948943243948726,-0.06825846885354835,0.04546299509489131,1018.0,13.106334811494857,0.6731717032271388,12.210269266501971,-0.09984744575603965,0.23,0.9999999999911118,-317.7677235816882,1.6342464371649505,329,2026-10-08 02:17:22.038244,44.6,0.8537432601587926,0.2890736571988592,0.10444948153960354
0323,cdot_cos,P,T-P,330,66,66551,0.022146595005249216,0.0001843638183912287,0.09680245365677201,0.986840823859264,980.0,13.215285313052224,0.6742492342474137,12.248386510126988,-0.4543505226619866,0.597,0.9999999999910958,-328.9957042865642,1.6392154033204889,330,2026-10-08 02:17:22.635243,44.6,0.4582953765315495,0.12042125412034332,0.18249665252490185
0323,cdot_cos,Q,P-Q,331,66,66662,-0.014376474442168597,-0.012446253288860887,-0.036523069447417816,0.163977144385335,980.0,13.250117788914547,0.6744281028457378,12.270186162984096,-0.14601224798266987,0.111,0.9999999999909477,1723.8256327167605,1.6441827411200058,331,2026-10-08 02:17:22.746243,44.6,0.12102854678054524,0.6534762022702257,0.3138060888497614
0323,cdot_cos,R,Q-R,332,66,66693,0.11616434076752986,0.1659780380065058,0.13054081520969846,0.9970474240956093,980.0,13.360357029956214,0.6755146010896781,12.308504218709839,-0.4638333329967025,0.031,0.9999999999909287,-292.51872866488605,1.6491498104006042,332,2026-10-08 02:17:22.777244,44.6,0.5039867212140382,2.10871729125851,3.556104549731181
0323,cdot_cos,S,R-S,333,66,66742,-0.005583571334579732,-0.015593445553020705,-0.1217479121021096,0.004364155470543529,980.0,13.380858260972575,0.6755193526363111,12.327113840870988,-0.08668265147825602,0.049,0.9999999999907729,79374.29865378718,1.6541169423253557,333,2026-10-08 02:17:22.826244,44.6,0.012894735577689036,0.5915060016182827,0.4183924697216537
0323,cdot_cos,T,S-T,334,66,66972,-0.03786738048116344,0.017978758135992697,-0.03228380914658371,0.19156735639302275,980.0,13.418324618114806,0.6757278891342423,12.349420269011341,-0.15870413959356428,0.23,0.9999999999906455,-345.3663451233231,1.6590846928473473,334,2026-10-08 02:17:23.056243,44.6,0.6352035604151651,0.31169751026734976,0.16289720496622032
0323,cdot_cos,P,T-P,335,67,67531,0.02555121187555964,1.5773253528559806e-05,0.06341859235672308,0.9441949988201268,997.0,13.524239115695556,0.6767547015205371,12.386687731189022,-0.450299056363823,0.559,0.9999999999906225,-283.98071610966326,1.6640535791410604,335,2026-10-08 02:17:23.615244,44.6,0.5233219839446398,0.12644644802268362,0.1894713731319324
0323,cdot_cos,Q,P-Q,336,67,67660,-0.010355190753896492,-0.010984960813851733,-0.03590640262945613,0.16778246786811452,997.0,13.559691747004166,0.6769369872271083,12.408504152289472,-0.1514744784420303,0.129,0.9999999999904707,1639.3198542151295,1.669020984807888,336,2026-10-08 02:17:23.744244,44.6,0.13907084636111242,0.5684557942752889,0.2748265992915511
0323,cdot_cos,R,Q-R,337,67,67690,0.1349370161888586,0.20831927766825084,0.14529220694275508,0.9984685878808978,997.0,13.67090071061858,0.6780206511057746,12.446849009676301,-0.47688203640173144,0.03,0.9999999999904515,-300.28458488455385,1.6739880486034056,337,2026-10-08 02:17:23.774244,44.6,0.5054203148436702,2.1944286172349634,3.7069654538138153
