record_id,input,event,transition,event_index,k,peak,value_cos,value_sin,value_return,x_input,rr,knowledge,decision,decision_norm,entropy,delta_t,cosine_similarity,delta_h_over_delta_d,frobenius_norm,matrix_size,timestamp,scale,P,zdot,zdot_back
0395,cdot_cos,Q,P-Q,1,0,810,-0.01760985569656206,-0.015201647226818615,-0.06452944569925907,0.018200827044104383,754.0,9.040608389316247e-05,0.5000226015209579,0.5000226015209579,,,1.0,,0.004967141530112327,1,2026-10-07 22:16:16.894243,61.8,,,
0395,cdot_cos,R,Q-R,2,0,857,0.05534515832719566,0.14707417799126987,0.07295501402375772,0.9891063290818023,754.0,0.007075928759128016,0.5012508566926586,0.7088757596858904,-9.027714935679594e-06,,1.0,,0.009934283060224654,2,2026-10-07 22:16:16.941243,61.8,,,
0395,cdot_cos,S,R-S,3,0,882,0.0007018043699149056,-0.10343676712236692,-0.05464335395728075,0.03302335596330993,754.0,0.00895031866685449,0.501291864348219,0.8682629784720408,-5.417182083327363e-06,0.025,0.9999999999999999,0.08804533697439858,0.014901424593411202,3,2026-10-07 22:16:16.966244,61.8,0.5135044973111893,0.06518053683867354,0.07497559630905898
0395,cdot_cos,T,S-T,4,0,1097,-0.21339716856717042,-0.03402622944712479,-0.21409897293708532,1.7935416436145944e-06,754.0,0.010334955601061693,0.5012918665753979,1.0025837331508531,-4.815522144014644e-06,0.215,0.9999999999999998,270.14441595120434,0.01986856615347319,4,2026-10-07 22:16:17.181243,61.8,0.8825482773666627,0.03188692514922565,0.006440171787010246
0395,cdot_cos,P,T-P,5,1,1460,0.04523112302144898,-0.003297298796970035,0.2586282915886194,0.9999998855615295,743.0,0.02266169648102152,0.5025336330046691,1.1236993643791042,-7.334855200323456e-05,0.363,0.9999999999999998,-0.05518995218725792,0.024835707786425826,5,2026-10-07 22:16:17.544243,61.8,0.39284214532168366,0.02021794095094914,0.03395796385663864
0395,cdot_cos,Q,P-Q,6,1,1572,-0.021946440526485783,-0.018892181732547593,-0.06717756354793476,0.01549573466719356,743.0,0.025013180731450767,0.5025528748836184,1.230998112235689,-2.021644961849114e-05,0.112,0.9999999999999998,2.761274121135732,0.029802849363408126,6,2026-10-07 22:16:17.656243,61.8,0.07221107241126035,0.07741116635358981,0.020995395093118284
0395,cdot_cos,R,Q-R,7,1,1611,0.04946228214277147,0.14331908785905717,0.07140872266925725,0.9880270372678874,743.0,0.04000179774422564,0.5037797425984529,1.3328759144708326,-0.00017572547217888863,0.039,1.0000000000000002,-0.1267528851563075,0.0347699909046662,7,2026-10-07 22:16:17.695244,61.8,0.41273301047082306,0.23891518006616294,0.3843235131480736
0395,cdot_cos,S,R-S,8,1,1639,0.0057752855609196265,-0.11163516923383351,-0.04368699658185184,0.06298183075972191,743.0,0.04364856477661148,0.5038579479527736,1.4251254870121872,-5.500910042534569e-05,0.028,0.9999999999999999,1.543581929934674,0.0397371324518058,8,2026-10-07 22:16:17.723244,61.8,0.1114164808841778,0.11240377446501816,0.1302416797280657
0395,cdot_cos,T,S-T,9,1,1857,-0.18472510393140482,-0.08618421557222011,-0.19050038949232445,7.710467157396948e-06,743.0,0.046296409114266655,0.503857957526949,1.5115738725855286,-4.2946526643532405e-05,0.218,1.0,1259.9073394475672,0.044704274291592294,9,2026-10-07 22:16:17.941243,61.8,0.7551232806243656,0.04784313766615555,0.012146074943372377
0395,cdot_cos,P,T-P,10,2,2203,0.049674271221670424,-0.0035436683120029407,0.23439937515307524,0.9999994884814037,747.0,0.0645081727990553,0.505099641996833,1.5972653140610984,-0.0003638723852359948,0.346,0.9999999999999999,-0.2584600728898809,0.049671416478265125,10,2026-10-07 22:16:18.287244,61.8,0.41396507946324995,0.031360814321402634,0.05263515515834868
0395,cdot_cos,Q,P-Q,11,2,2308,-0.012715706821720022,-0.010386191602998127,-0.06238997804339044,0.02072035604955893,747.0,0.06799809262467728,0.5051253695419722,1.675311322893857,-8.338554638449708e-05,0.105,1.0000000000000002,10.90219985366088,0.05463855818993729,11,2026-10-07 22:16:18.392244,61.8,0.0346057821706534,0.1118495401095638,0.033237331672590305
0395,cdot_cos,R,Q-R,12,2,2353,0.05676039057707866,0.1549397001576601,0.06947609739879868,0.9865285923252107,747.0,0.0879965762220637,0.5063502643864249,1.7540487687276995,-0.0005624984314911193,0.045,1.0,-0.3911461357490425,0.05960569976224685,12,2026-10-07 22:16:18.437243,61.8,0.42666393406827346,0.26721149726580945,0.44441074660858704
0395,cdot_cos,S,R-S,13,2,2381,-0.0021663698286849766,-0.0899607952795072,-0.05892676040576363,0.02553909977064125,747.0,0.09204712737860013,0.5063819733260266,1.825786169841955,-0.00013149397412048696,0.028,1.0000000000000002,13.592521944430292,0.06457284130585476,13,2026-10-07 22:16:18.465244,61.8,0.03771299169829517,0.13437939472672844,0.14466254130487272
0395,cdot_cos,T,S-T,14,2,2616,-0.25079956028459266,-0.16663166733367857,-0.24863319045590768,2.122435539245125e-07,747.0,0.09552182232676049,0.5063819735895446,1.8947078520575213,-0.00011751449025719973,0.235,1.0000000000000002,53049.44879611775,0.0695399837638004,14,2026-10-07 22:16:18.700243,61.8,0.887843615218726,0.05545746524548272,0.014785935949618538
0395,cdot_cos,P,T-P,15,3,2950,0.05130226892393014,-0.005188007715876864,0.3021018292085228,0.9999999922058552,744.0,0.11811213604397701,0.5076235147430539,1.9660174188266877,-0.000870113944162228,0.334,1.0000000000000002,-0.6061816410819497,0.07450712689454925,15,2026-10-07 22:16:19.034244,61.8,0.4210753167528037,0.04016678792075311,0.06763566981202551
0395,cdot_cos,Q,P-Q,16,3,3066,-0.012959399756597434,-0.01166263625191498,-0.06426166868052757,0.018498913420265228,744.0,0.12235323665782356,0.5076464810669574,2.030585924405247,-0.00018387136132673833,0.116,0.9999999999999999,29.880384240773676,0.0794742689125016,16,2026-10-07 22:16:19.150244,61.8,0.023940384590667697,0.1217053780676061,0.036561212188332366
0395,cdot_cos,R,Q-R,17,3,3097,0.05806064048722215,0.14986360676678162,0.07102004024381958,0.9877395266516195,744.0,0.14634778375566163,0.5088727062492788,2.0981359180194974,-0.0011623305264417026,0.031,1.0,-0.7979441127302674,0.0844414104113607,17,2026-10-07 22:16:19.181243,61.8,0.430930685111777,0.46369743418998655,0.7740176483173569
0395,cdot_cos,S,R-S,18,3,3124,-0.0016993086475354446,-0.09753646670018579,-0.059759949134757594,0.02428847878095276,744.0,0.15110247757760273,0.5089028577971675,2.1590919704448073,-0.00025496686881518524,0.027,0.9999999999999998,30.09343536780288,0.08940855193046111,18,2026-10-07 22:16:19.208243,61.8,0.028474360490985208,0.16472742033291077,0.17609977118300382
0395,cdot_cos,T,S-T,19,3,3354,-0.22207807935931032,-0.058090992122968595,-0.22037877071177486,1.2166501595312498e-06,744.0,0.1552430644536388,0.5089028593075069,2.218256135968351,-0.00022867585203251872,0.23,1.0,17407.356667222644,0.09437569523077304,19,2026-10-07 22:16:19.438244,61.8,0.8913922847004043,0.06605929488725847,0.01800255163493947
0395,cdot_cos,P,T-P,20,4,3694,0.03537915900533657,-0.0028368242729467424,0.2574572383646469,0.9999998769724414,727.0,0.18148975322574162,0.510144193390976,2.281434189742259,-0.0015931831970902371,0.34,1.0000000000000002,-1.099226520264655,0.09934283983419989,20,2026-10-07 22:16:19.778244,61.8,0.42466015471900076,0.04546954529788134,0.07719614344736121
0395,cdot_cos,Q,P-Q,21,4,3805,-0.04186607874556923,-0.03385239143551828,-0.0772452377509058,0.008377809510311564,727.0,0.18616235525619812,0.5101545925457218,2.3378220368309712,-0.0003096715008501096,0.111,1.0000000000000002,123.42461744428834,0.10430998218685628,21,2026-10-07 22:16:19.889244,61.8,0.015847359277888943,0.14525867241922474,0.04209551378789636
0395,cdot_cos,R,Q-R,22,4,3842,0.04562593142516683,0.13192469452879094,0.08749201017073606,0.9955349784937598,727.0,0.21373717850280952,0.511390258860432,2.398632929979978,-0.0019875714535782935,0.037,1.0000000000000002,-1.3578908259886813,0.10927712373355043,22,2026-10-07 22:16:19.926244,61.8,0.42990284348503294,0.5593561367659319,0.7452654931516594
0395,cdot_cos,S,R-S,23,4,3869,0.0375937804735758,-0.1724573527662782,-0.00803215095159103,0.3783901288637899,727.0,0.22755470937687708,0.5118598841544589,2.4547937683561964,-0.0010989970455309354,0.027,1.0,1.8920923113574446,0.1142442652302759,23,2026-10-07 22:16:19.953243,61.8,0.4455115452135246,0.34657709158708944,0.5117604027432431
0395,cdot_cos,T,S-T,24,4,4094,-0.10591972763103767,-0.026502574917365036,-0.14351350810461347,0.00014064445397294343,727.0,0.23245234144851235,0.5118600587064216,2.50759192751704,-0.000406060527686579,0.225,1.0000000000000002,3969.8007818299834,0.11921140985844138,24,2026-10-07 22:16:20.178244,61.8,0.18150251225226113,0.07672094236568443,0.021767253651712292
0395,cdot_cos,P,T-P,25,5,4421,0.044691193667455414,-0.0034721859516349115,0.15061092129849307,0.9999092902446245,714.0,0.2620791334414351,0.5131009571809162,2.5655047866230523,-0.002640370398077284,0.327,1.0,-1.8005581571052427,0.12417855651930988,25,2026-10-07 22:16:20.505243,61.8,0.4290375773323024,0.05376329201610149,0.09060181037591049
0395,cdot_cos,Q,P-Q,26,5,4525,-0.024640740536847467,-0.021095407534035233,-0.06933193420430288,0.01359032612406268,714.0,0.2676135344270427,0.5131178218480811,2.616397787517096,-0.0005282993831752196,0.104,1.0000000000000004,125.23644814644432,0.12914569933957834,26,2026-10-07 22:16:20.609244,61.8,0.018354735862447697,0.1738088853457958,0.05321539409238121
0395,cdot_cos,R,Q-R,27,5,4569,0.04780602984975674,0.15033979793775448,0.0724467703866042,0.9887626405389672,714.0,0.2982313815933606,0.5143447262041948,2.672613596452426,-0.0031217564140989715,0.044,0.9999999999999999,-2.1138216830027803,0.13411284107002477,27,2026-10-07 22:16:20.653243,61.8,0.4357142919958675,0.43378938721672156,0.6958601628708609
0395,cdot_cos,S,R-S,28,5,4597,0.008120657839164226,-0.11438045136920715,-0.03968537201059251,0.07925183536956701,714.0,0.3057870005021142,0.5144430584154889,2.7221767938693904,-0.0008223225930446999,0.028,1.0,23.384339585098818,0.13907998254323306,28,2026-10-07 22:16:20.681243,61.8,0.06103746923708416,0.23157724540523747,0.2698435324554862
0395,cdot_cos,T,S-T,29,5,4813,-0.19018792945460689,-0.16166114631338147,-0.1983085872937711,4.758988302728455e-06,714.0,0.3111997073360539,0.5144430643201999,2.7703606866119936,-0.0006017447844633258,0.216,0.9999999999999999,37356.240904098464,0.1440471284390137,29,2026-10-07 22:16:20.897243,61.8,0.6931119677946271,0.08782150872911376,0.025058827934905947
0395,cdot_cos,P,T-P,30,6,5135,0.04995346760094075,-0.004429591429650873,0.24014139705554763,0.9999996412853805,716.0,0.34372589227309136,0.5156837215449837,2.8245160700634897,-0.0038377981171552372,0.322,0.9999999999999999,-2.608337958339805,0.14901427734487385,30,2026-10-07 22:16:21.219244,61.8,0.43032879536000107,0.059973701988553986,0.1010129966988741
0395,cdot_cos,Q,P-Q,31,6,5243,-0.017749105816978094,-0.016381390683644106,-0.06770257341791884,0.015008459600282019,716.0,0.34982277141668267,0.5157023404714188,2.8713091155268895,-0.0007617992512222403,0.108,1.0,165.20817548972832,0.15398142084583424,31,2026-10-07 22:16:21.327244,61.8,0.01763609405575644,0.18180891313725497,0.05645258466288246
0395,cdot_cos,R,Q-R,32,6,5286,0.04644039486054193,0.15517747283908853,0.06418950067752002,0.9814199338579105,716.0,0.38299661751073844,0.5169197558390334,2.9241397201019894,-0.004379048223005833,0.043,1.0,-2.9712529248512527,0.1589485626155199,32,2026-10-07 22:16:21.370244,61.8,0.4377814666543505,0.47907624234177665,0.7714847928850179
0395,cdot_cos,S,R-S,33,6,5311,0.005361413771966885,-0.09593414264470143,-0.04107898108857505,0.07319059363974843,716.0,0.39102332825807545,0.5170105382130834,2.9699994283873776,-0.0011191063471015037,0.025,1.0000000000000002,35.90941424497198,0.16391570393511282,33,2026-10-07 22:16:21.395243,61.8,0.05431327134881257,0.2781425620128275,0.3210684298934807
0395,cdot_cos,T,S-T,34,6,5534,-0.2140682516071161,-0.0553957357004677,-0.21942966537908298,1.290146718773334e-06,716.0,0.3969037456113798,0.5170105398133145,3.0146635895142015,-0.0008345949791538497,0.223,1.0000000000000002,177793.929437715,0.16888285174537804,34,2026-10-07 22:16:21.618243,61.8,0.7111317732907312,0.09206488981667457,0.026369584543965725
0395,cdot_cos,P,T-P,35,7,5851,0.03467848837412781,-0.003936426249208271,0.24874673998124391,0.9999997892406218,686.0,0.4320842691163123,0.5182507803074377,3.066012967310999,-0.005252379253122475,0.317,1.0,-3.562038406988037,0.17385000323023225,35,2026-10-07 22:16:21.935244,61.8,0.43123523920884876,0.06565308059018068,0.11097956941619086
0395,cdot_cos,Q,P-Q,36,7,5961,-0.03880371239848631,-0.03309532632249167,-0.07348220077261412,0.010548156325547725,686.0,0.43852779870555436,0.5182638613892332,3.1095831726053347,-0.0010103066390665524,0.11,0.9999999999999997,324.29065732942956,0.17881714751501582,36,2026-10-07 22:16:22.045243,61.8,0.015013625439645047,0.19323790029159343,0.05857754172038225
0395,cdot_cos,R,Q-R,37,7,5996,0.042771439084349605,0.14596362358278703,0.08157515148283592,0.9935764772957718,686.0,0.47459660718046287,0.519495910342357,3.1599702626512745,-0.0059304208098497286,0.035,0.9999999999999999,-3.993440486523296,0.18378428903465133,37,2026-10-07 22:16:22.080243,61.8,0.43620630334978455,0.7202454420558604,1.0305373849973858
0395,cdot_cos,S,R-S,38,7,6024,0.025891914935908117,-0.15024346099323843,-0.016879524148441488,0.2605417719732398,686.0,0.4889449796494646,0.5198189472175029,3.2043792018727904,-0.002489285869044955,0.028,0.9999999999999997,10.652452415070545,0.18875143040713382,38,2026-10-07 22:16:22.108243,61.8,0.25098091728992566,0.37036009179252016,0.5124418738929187
0395,cdot_cos,T,S-T,39,7,6233,-0.1815999423251442,-0.08019011180712933,-0.20749185726105232,2.6980008726444024e-06,686.0,0.495336772320844,0.519818950562577,3.2462683105035968,-0.0011327753265839796,0.209,0.9999999999999996,405524.8102831124,0.1937185798746894,39,2026-10-07 22:16:22.317244,61.8,0.30194491711248417,0.10554308870108775,0.03058274005444691
0395,cdot_cos,P,T-P,40,8,6537,0.04657379116473266,-0.004747231459147238,0.22817373348987685,0.9999992484570531,672.0,0.5330619907265193,0.5210586593757035,3.2954643220432143,-0.00698404123504368,0.304,0.9999999999999999,-4.719871187898507,0.19868573424984393,40,2026-10-07 22:16:22.621243,61.8,0.43265909187277046,0.073102323392907,0.12409611317656341
0395,cdot_cos,Q,P-Q,41,8,6647,-0.04680327937013,-0.04674750341374482,-0.09337707053486266,0.0031078762161992277,672.0,0.5397829849437314,0.521062511843789,3.336428005935481,-0.0012980269143001094,0.11,0.9999999999999996,1475.9406682910435,0.20365287951932728,41,2026-10-07 22:16:22.731244,61.8,0.012519025918027192,0.20557891740861442,0.06109994742920157
0395,cdot_cos,R,Q-R,42,8,6686,0.03321935493392606,0.15179296713014725,0.08002263430405607,0.9929342045320241,672.0,0.5782893525564144,0.5222932046840881,3.3848468357354142,-0.00774859198592049,0.039,0.9999999999999997,-5.241409440598313,0.20862002129492146,42,2026-10-07 22:16:22.770243,61.8,0.43496825754480095,0.9382482141448206,0.9873427592995642
0395,cdot_cos,S,R-S,43,8,6714,0.06186785591772166,-0.17875415818857182,0.0286485009837956,0.8545170254929576,672.0,0.6129663456470275,0.523352120182535,3.4318493624203676,-0.007433316411177291,0.028,1.0,0.29773440393084316,0.21358716268516087,43,2026-10-07 22:16:22.798244,61.8,0.9584730334520515,0.7457823871801336,1.2384640389504644
0395,cdot_cos,T,S-T,44,8,6933,-0.12773090818843472,-0.07212243107242723,-0.1895987641061564,8.152289302990226e-06,672.0,0.6200531662385019,0.5233521302838466,3.471525306725971,-0.0015723802618473068,0.219,1.0,580215.3559179306,0.21855431600420744,44,2026-10-07 22:16:23.017244,61.8,0.024054595240031566,0.10824774063790836,0.032359911376595774
0395,cdot_cos,P,T-P,45,9,7209,0.03544831290990404,-0.006700842874046965,0.16317922109833877,0.9999582794850649,640.0,0.6603788560464313,0.5245910090373027,3.5190634800062153,-0.009289045902831647,0.276,1.0,-6.228749681482001,0.22352147353993976,45,2026-10-07 22:16:23.293243,61.8,0.43573218705192535,0.08642684215361049,0.1461075717678601
0395,cdot_cos,Q,P-Q,46,9,7300,-0.06137047247738467,-0.055473504578233836,-0.0968187853872887,0.0025139048766613602,640.0,0.6677607831072949,0.5245941232156127,3.557970463986621,-0.001763786437373328,0.091,0.9999999999999997,2416.4510558961138,0.22848861903857604,46,2026-10-07 22:16:23.384243,61.8,0.014030291011593135,0.2666748955149714,0.08112007759190772
0395,cdot_cos,R,Q-R,47,9,7354,0.030054970614279454,0.15503713751945014,0.09142544309166412,0.996495135450022,640.0,0.7089136870301561,0.52582840958451,3.6048979692355134,-0.010189570177142355,0.054,0.9999999999999997,-6.826441539086538,0.23345576215109884,47,2026-10-07 22:16:23.438244,61.8,0.43740192767014424,0.7502524042773664,0.7620908133863185
0395,cdot_cos,S,R-S,48,9,7381,0.07477810851442152,-0.1864074116644407,0.04472313790014206,0.9406930238460451,640.0,0.7487880427692505,0.526993288635343,3.6511166191889703,-0.010451515733435706,0.027,0.9999999999999997,-0.2248693167810382,0.2384229035225329,48,2026-10-07 22:16:23.465244,61.8,0.9752485424588765,0.8821152635281481,1.4768279903368284
0395,cdot_cos,T,S-T,49,9,7589,-0.1205552177376929,-0.09234725249061383,-0.19533332625211441,5.719636623025296e-06,640.0,0.7565479112606761,0.5269932957172033,3.6889530848990355,-0.0021004131361886417,0.208,0.9999999999999997,1179224.4155398312,0.24339006002336666,49,2026-10-07 22:16:23.673243,61.8,0.018761782365459376,0.12154603240258612,0.037307060054930896
0395,cdot_cos,P,T-P,50,10,7849,0.056674631179207666,2.060011846241116e-06,0.17722984891690058,0.9999824914665776,702.0,0.7993511922487263,0.5282312716435688,3.735159160896883,-0.011971712860564355,0.26,0.9999999999999997,-7.973741261154265,0.24835722157331194,50,2026-10-07 22:16:23.933243,61.8,0.4384313678583542,0.09811476375824532,0.16462800380019305
0395,cdot_cos,Q,P-Q,51,10,7981,-0.022598370662378083,-0.025623441239871893,-0.07927300184158576,0.007398356677316623,702.0,0.8075675884149637,0.528240429516369,3.77239124412093,-0.002373406884908704,0.132,0.9999999999999992,1048.0933929812866,0.25332437222345544,51,2026-10-07 22:16:24.065243,61.8,0.01752538783797921,0.18917846662549062,0.06224542550179827
0395,cdot_cos,R,Q-R,52,10,8012,0.02341229820077081,0.15478622974307085,0.04601066886314889,0.9449796011093812,702.0,0.8492943074378558,0.5294099907458865,3.817629760925725,-0.012424528775030329,0.031,0.9999999999999993,-8.593925342641684,0.25829151371706066,52,2026-10-07 22:16:24.096244,61.8,0.445314683647368,1.1817256257980935,1.3460231942868437
0395,cdot_cos,S,R-S,53,10,8039,0.03324845336641638,-0.12448575965525943,0.00983615516564557,0.6474557691862524,702.0,0.8808345772144455,0.5302111337159849,3.8599953445422206,-0.009804827708828815,0.027,0.9999999999999992,3.269954507470113,0.2632586550681583,53,2026-10-07 22:16:24.123244,61.8,0.7655315775536486,0.737247003255084,1.1681581398736902
0395,cdot_cos,T,S-T,54,10,8250,-0.16868525969894677,-0.17774154891172986,-0.20193371306536315,3.8038103449876596e-06,702.0,0.8891056456136304,0.5302111384222561,3.8962402622669465,-0.002630366817442647,0.211,0.9999999999999992,1524446.9903781787,0.26822581566350867,54,2026-10-07 22:16:24.334244,61.8,0.06537917642562673,0.12631050533048302,0.039199376299454504
0395,cdot_cos,P,T-P,55,11,8551,0.04713410609965358,-0.005081378707189337,0.21581936579860034,0.9999983873607234,704.0,0.9341376104639093,0.531448200055147,3.9413253698422808,-0.014747846424181912,0.301,0.999999999999999,-9.795372586587602,0.2731929866080258,55,2026-10-07 22:16:24.635243,61.8,0.4397081773582265,0.08934705557511802,0.149607856645445
0395,cdot_cos,Q,P-Q,56,11,8659,-0.030664459815925842,-0.025764309048657532,-0.07779856591557942,0.00809844838927436,704.0,0.9428925730698514,0.5314582167940842,3.9770691659956916,-0.0029518042055301464,0.108,0.9999999999999988,1177.632989400838,0.2781601366895858,56,2026-10-07 22:16:24.743244,61.8,0.01838510755436383,0.2507059672091602,0.08106446857353802
0395,cdot_cos,R,Q-R,57,11,8702,0.03948011068836467,0.14160456535740099,0.07014457050429052,0.9870667283677781,704.0,0.9882900993810879,0.5326788991048034,4.021637538944227,-0.015742763545645567,0.043,0.9999999999999986,-10.478532561498191,0.28312727955385164,57,2026-10-07 22:16:24.786243,61.8,0.44374832597587655,0.8613947560897552,1.0557564258427095
0395,cdot_cos,S,R-S,58,11,8726,0.041427167634365825,-0.16347209135311583,0.001947056946001155,0.5300457861759192,704.0,1.0169725220935704,0.5333342338443874,4.061752558983868,-0.01032611690487902,0.024,0.9999999999999983,8.265465438631983,0.2880944204018724,58,2026-10-07 22:16:24.810244,61.8,0.5918169234808467,0.7794747493327555,1.1951009463534352
0395,cdot_cos,T,S-T,59,11,8947,-0.11245829558997242,-0.03899338137900882,-0.15388546322433824,7.409253873644672e-05,704.0,1.0257048873490602,0.5333343254424756,4.096618730979198,-0.0032024445277702997,0.221,0.9999999999999979,77770.97224534884,0.29306158633052076,59,2026-10-07 22:16:25.031244,61.8,0.10812705279086894,0.1263772487393022,0.03951296495696749
0395,cdot_cos,P,T-P,60,12,9255,0.03281198703745552,-0.003225622882755611,0.14527028262742794,0.9998738236026036,699.0,1.072831266036342,0.5345702283118892,4.140763235905531,-0.01774941300247566,0.308,0.9999999999999978,-11.77031693567314,0.29802876439273507,60,2026-10-07 22:16:25.339243,61.8,0.44061904373721056,0.0913229988684098,0.15300772301065504
0395,cdot_cos,Q,P-Q,61,12,9358,-0.05040960116593028,-0.045103403190454486,-0.0832215882033858,0.005805690279047301,699.0,1.0819598546520006,0.5345774032621222,4.175183054205997,-0.003530298419889523,0.103,0.9999999999999972,1981.7718758624335,0.30299591549220195,61,2026-10-07 22:16:25.442244,61.8,0.01781459368366251,0.2760401680883346,0.08862707393843383
0395,cdot_cos,R,Q-R,62,12,9406,0.03423066296535871,0.13190581465162313,0.084640264131289,0.9946790503167318,699.0,1.1296955406625389,0.5358064615992438,4.218944364670907,-0.01894140574670002,0.048,0.999999999999997,-12.538955118194352,0.3079630592500851,62,2026-10-07 22:16:25.490243,61.8,0.4432505729809068,0.9329878241686624,0.9944934585528798
0395,cdot_cos,S,R-S,63,12,9436,0.05998716440775978,-0.19076428289730896,0.025756501442401068,0.8308624247971097,699.0,1.1715266857721922,0.5368327700429487,4.260978083909881,-0.01726552144023817,0.03,0.999999999999997,1.6329246015087386,0.3129302007798466,63,2026-10-07 22:16:25.520243,61.8,0.9074966769511714,0.8516086539045453,1.3943715036551119
0395,cdot_cos,T,S-T,64,12,9649,-0.0883516172234959,-0.03430274118204122,-0.1483387816312557,0.00010438327530934105,699.0,1.1807920598968116,0.5368328989611655,4.294663261045653,-0.003909133478495521,0.213,0.9999999999999964,103603.57361849211,0.31789737083387565,64,2026-10-07 22:16:25.733243,61.8,0.03282013101732976,0.13728134379808396,0.04349940903577166
0395,cdot_cos,P,T-P,65,13,9954,0.03538105182915695,-0.0014937896020029938,0.12373266905265284,0.9995226002945993,731.0,1.230008538230176,0.5380671277636383,4.338035949559213,-0.021273144821408994,0.305,0.999999999999996,-14.0687134412389,0.32286455635782757,65,2026-10-07 22:16:26.038244,61.8,0.4420903871474206,0.09691553198696994,0.1613655027323423
0395,cdot_cos,Q,P-Q,66,13,10076,-0.03625636850306109,-0.032174887065662086,-0.07163742033221804,0.011806916814354898,731.0,1.2399105344088632,0.5380817044026128,4.3713965260936964,-0.004384937534858586,0.122,0.9999999999999958,1158.5803363903979,0.3278317126652088,66,2026-10-07 22:16:26.160243,61.8,0.021249680387394134,0.24428900060438402,0.0811639031039939
0395,cdot_cos,R,Q-R,67,13,10107,0.042459660103924816,0.13858521093832676,0.0787160286069859,0.9923445348427018,731.0,1.2896150543776457,0.539306602652236,4.414414895395057,-0.02253342605136624,0.031,0.999999999999995,-14.81632333305357,0.33279885394580505,67,2026-10-07 22:16:26.191243,61.8,0.4469077948654245,1.0473786064996267,1.603371611896208
0395,cdot_cos,S,R-S,68,13,10135,0.012789407906717884,-0.1333008651864334,-0.029670252197206932,0.13780740423458623,731.0,1.30484800801184,0.539476667717666,4.448638668530412,-0.007082726300623066,0.028,0.9999999999999947,90.85169674131868,0.3377659949741801,68,2026-10-07 22:16:26.219244,61.8,0.11287636125403253,0.44272711555813044,0.5440340583640861
0395,cdot_cos,T,S-T,69,13,10345,-0.17810868348412012,-0.0837737020999252,-0.19089809139083802,7.523270773691844e-06,731.0,1.314407772848901,0.5394766770017172,4.481229940970666,-0.004487391561837623,0.21,0.9999999999999938,279547.6548347088,0.3427331684995459,69,2026-10-07 22:16:26.429244,61.8,0.5608164840304277,0.1443054849988296,0.04552268970028996
0395,cdot_cos,P,T-P,70,14,10685,0.054046464778495736,-0.006090972517975136,0.23215514826261585,0.9999994123819942,731.0,1.3654563117113485,0.5407104763581911,4.523908528788157,-0.02450710150401137,0.34,0.9999999999999937,-16.226066124226072,0.3477003666925812,70,2026-10-07 22:16:26.769243,61.8,0.44180165795083864,0.09040748711305661,0.1501427613601398
0395,cdot_cos,Q,P-Q,71,14,10798,-0.01164681273488414,-0.01041881379721246,-0.06569327751337987,0.01695912689715564,731.0,1.3758848640857795,0.5407313962704321,4.556283865094255,-0.00512129747704251,0.113,0.9999999999999928,926.6675597718239,0.3526675231528965,71,2026-10-07 22:16:26.882244,61.8,0.022701356576528338,0.27261761109401517,0.09228807411000854
0395,cdot_cos,R,Q-R,72,14,10831,0.056384469026764986,0.14890577306908834,0.06803128176164913,0.9852889090749551,731.0,1.427067891818596,0.5419465494889327,4.598569101232243,-0.025689692544126248,0.033,0.9999999999999921,-16.926585679839565,0.35763466453503123,72,2026-10-07 22:16:26.915244,61.8,0.4490379962009885,0.9409056176964414,1.5510008403883777
0395,cdot_cos,S,R-S,73,14,10857,-0.003216355432007891,-0.09243704917966923,-0.05960082445877288,0.024522621512396568,731.0,1.4379846348537446,0.5419767868457507,4.630651836798774,-0.0056006494980742096,0.026,0.9999999999999915,664.3782777377131,0.3626018047976996,73,2026-10-07 22:16:26.941243,61.8,0.027683655371504065,0.398701546627928,0.41987473212110266
0395,cdot_cos,T,S-T,74,14,11067,-0.2327273047138848,-0.03305482572607202,-0.22951094928187693,6.919325497404158e-07,731.0,1.4478003722432482,0.5419767876989263,4.662260755818964,-0.0050722379799316855,0.21,0.9999999999999902,619346.7002532035,0.3675689822208519,74,2026-10-07 22:16:27.151244,61.8,0.9010656201919945,0.14900499743739373,0.04674160661668375
0395,cdot_cos,P,T-P,75,15,11416,0.049813756066768404,-0.0057509804183932854,0.2825410607806532,0.9999999738923531,714.0,1.50056673377745,0.543209561120415,4.704332948621735,-0.027846310256371364,0.349,0.99999999999999,-18.473850814319736,0.3725361893285441,75,2026-10-07 22:16:27.500243,61.8,0.44138011744202554,0.0905281799709025,0.15119301299198218
0395,cdot_cos,Q,P-Q,76,15,11516,-0.02385534430772495,-0.02161026324886239,-0.07366910037449335,0.010428285096056198,714.0,1.5109890418629381,0.5432224140719142,4.735703389038366,-0.0056180011931113525,0.1,0.9999999999999888,1729.4322681143155,0.3775033446463387,76,2026-10-07 22:16:27.600243,61.8,0.01912761175026582,0.3169304273886464,0.10422308085488163
0395,cdot_cos,R,Q-R,77,15,11564,0.04727015174211958,0.14594057267422028,0.07112549604984453,0.9878182002138983,714.0,1.5639528192551793,0.5444396452263802,4.77743867896735,-0.029137753563300596,0.048,0.9999999999999882,-19.322338476052785,0.3824704890775619,77,2026-10-07 22:16:27.648243,61.8,0.4461091240559172,0.6978598857339072,1.1034120290050233
0395,cdot_cos,S,R-S,78,15,11593,0.009650877164554574,-0.11657030381007952,-0.037619274577565004,0.08908398157208819,714.0,1.5779835908933932,0.5445493923816445,4.809330196568623,-0.007886822255013526,0.029,0.9999999999999872,193.63537266292687,0.3874376295914943,78,2026-10-07 22:16:27.677243,61.8,0.06757711469962875,0.41576559189393897,0.483819711662551
0395,cdot_cos,T,S-T,79,15,11826,-0.17254215976502887,-0.13569944849262922,-0.18219303692958344,1.288376500312469e-05,714.0,1.5880672235850277,0.544549408253507,4.840061194476056,-0.005711602867002218,0.233,0.9999999999999858,137048.77982965825,0.39240481652651393,79,2026-10-07 22:16:27.910244,61.8,0.6832857051983392,0.13847763203765967,0.04327739352632824
0395,cdot_cos,P,T-P,80,16,12130,0.05692433984306314,-0.004913329550794165,0.229466499608092,0.9999993061641068,720.0,1.6425141674229427,0.5457810596690373,4.881614400856185,-0.031454474561444054,0.304,0.9999999999999856,-20.901101861971345,0.3973720210301767,80,2026-10-07 22:16:28.214243,61.8,0.44112948024296417,0.10818921912356738,0.17910178894050965
0395,cdot_cos,Q,P-Q,81,16,12236,-0.002647408537653181,-0.0036194714842714137,-0.05957174838071632,0.024565642412794582,720.0,1.6538462688121567,0.5458113090111567,4.9123020020353145,-0.006679878045521306,0.106,0.999999999999984,819.0127381335013,0.40233917936065594,81,2026-10-07 22:16:28.320243,61.8,0.024505942384372315,0.3075458070939915,0.10690661687937768
0395,cdot_cos,R,Q-R,82,16,12277,0.05435808156875592,0.15784745031581734,0.0570054901064091,0.9713334613659277,720.0,1.7077138785268688,0.5470071044920957,4.953360232041597,-0.032366630428468615,0.041,0.9999999999999835,-21.48089099883345,0.40730632226691266,82,2026-10-07 22:16:28.361243,61.8,0.45220558571314695,0.8013531852299404,1.3138441393832234
0395,cdot_cos,S,R-S,83,16,12305,-0.0006517597815847141,-0.09111242984408269,-0.055009841350340635,0.03230771180155478,720.0,1.7195572300010118,0.5470468688354833,4.983834392556936,-0.007255133754943037,0.028,0.9999999999999821,631.5078921021534,0.41227346224404027,83,2026-10-07 22:16:28.389244,61.8,0.03139194897956672,0.39591276045110907,0.4229768383622482
0395,cdot_cos,T,S-T,84,16,12523,-0.2825497380383796,-0.24049842096995358,-0.2818979782567949,2.7166123934564637e-08,720.0,1.729884993112131,0.5470468688689192,5.01376760078654,-0.006367625144864804,0.218,0.9999999999999811,26543567.263261463,0.4172406504605879,84,2026-10-07 22:16:28.607244,61.8,0.8698989049938288,0.15226852086838996,0.047375060142748435
0395,cdot_cos,P,T-P,85,17,12850,0.049754342629540114,-0.004253460746410224,0.3323040806679197,0.999999998794525,731.0,1.7859463050996298,0.5482773698559721,5.054867832649229,-0.0352134027255102,0.327,0.9999999999999806,-23.442303487892392,0.42220786802083593,85,2026-10-07 22:16:28.934243,61.8,0.440797183394264,0.10269957667945818,0.17144132106268764
0395,cdot_cos,Q,P-Q,86,17,12954,-0.01949261458699404,-0.016458903626644986,-0.06924695721653415,0.013660906959908755,731.0,1.7970505162604966,0.5482941755640027,5.084671278904337,-0.007108009519169787,0.104,0.9999999999999786,1672.3718605068202,0.427175027550779,86,2026-10-07 22:16:29.038244,61.8,0.019176963815916995,0.3237128370238077,0.10677126116218072
0395,cdot_cos,R,Q-R,87,17,12998,0.05296939443101316,0.1499592824028712,0.0724620090180072,0.9887730995560773,731.0,1.8532785752005818,0.5495102737171795,5.12549089497868,-0.03665138220902365,0.044,0.9999999999999781,-24.293575820897306,0.43214217128332677,87,2026-10-07 22:16:29.082243,61.8,0.4466123202984834,0.7821706093186145,1.277910430456482
0395,cdot_cos,S,R-S,88,17,13024,0.002585076860460972,-0.10970221077983994,-0.05038431757055219,0.04254359700543574,731.0,1.8658815298805347,0.5495625851846059,5.1553543017017205,-0.008369767742795034,0.026,0.999999999999976,540.6389049599558,0.4371093103623191,88,2026-10-07 22:16:29.108243,61.8,0.03408082998899007,0.44566590725910227,0.48472902615203356
0395,cdot_cos,T,S-T,89,17,13241,-0.23130997916075363,-0.1071085354722532,-0.2338950560212146,5.277120880101064e-07,731.0,1.8764532023780551,0.5495625858334722,5.184563346926024,-0.007064517236544071,0.217,0.9999999999999751,2011586.2362757358,0.4420765032820442,89,2026-10-07 22:16:29.325243,61.8,0.8313025605942698,0.15715807008787974,0.04871738478120021
0395,cdot_cos,P,T-P,90,18,13581,0.041767122873685024,-0.004752446031115028,0.27307710203443863,0.9999999531429777,713.0,1.9340881322986745,0.55079186446737,5.225270724008649,-0.03919693556744126,0.34,0.9999999999999747,-26.139247396670008,0.4470437327165221,90,2026-10-07 22:16:29.665244,61.8,0.44053356716269376,0.1010454161951691,0.16951449976652752
0395,cdot_cos,Q,P-Q,91,18,13692,-0.03704585582944861,-0.029229022117595198,-0.07881297870313364,0.007610082465147004,713.0,1.9451640853907701,0.5508012170207073,5.254309058442832,-0.007668441875382019,0.111,0.9999999999999722,3371.11081383108,0.45201089609380596,91,2026-10-07 22:16:29.776243,61.8,0.016383833109668282,0.3112686750586908,0.09978336119005078
0395,cdot_cos,R,Q-R,92,18,13727,0.04621145305785548,0.13476166239250806,0.0832573088873041,0.9942070377062323,713.0,2.003189778161704,0.5520227550931668,5.294816596563143,-0.040868987224335886,0.035,0.9999999999999717,-27.17929641120907,0.4569780371612728,92,2026-10-07 22:16:29.811244,61.8,0.443807105528444,1.1076235564737515,1.657876936312392
0395,cdot_cos,S,R-S,93,18,13753,0.021739618660533925,-0.15035536787952045,-0.024471834397321552,0.18058939845421088,713.0,2.0226977343439327,0.552244570355806,5.3256541082005855,-0.014008455779308895,0.026,0.9999999999999701,121.09415342044107,0.46194517585139117,93,2026-10-07 22:16:29.837244,61.8,0.14698109901724332,0.583764800267766,0.7503060070088036
0395,cdot_cos,T,S-T,94,18,13982,-0.14015142133461841,-0.04078066325155336,-0.16189103999515234,4.517749694853993e-05,713.0,2.0335455477756277,0.5522446258440538,5.354210635934222,-0.007848434728813943,0.229,0.9999999999999685,111014.87788090855,0.4669123781514263,94,2026-10-07 22:16:30.066243,61.8,0.456177833797303,0.15294657789942845,0.047370364330545596
0395,cdot_cos,P,T-P,95,19,14294,0.062066820304648,-0.004365751377704963,0.2022182416392664,0.9999962624904752,708.0,2.092747267021871,0.5534725276468011,5.3945832610283135,-0.04354949798092561,0.312,0.9999999999999682,-29.074852054319848,0.47187960818015834,95,2026-10-07 22:16:30.378243,61.8,0.4405279957072765,0.1137521790412011,0.18974910014821567
0395,cdot_cos,Q,P-Q,96,19,14411,-0.004265926710159866,-0.0061572446753167245,-0.06633274701480787,0.01631270563132782,708.0,2.104526907497337,0.5534925527565393,5.423097710537341,-0.008814230554567995,0.117,0.9999999999999658,1734.5856217756755,0.47684677591026237,96,2026-10-07 22:16:30.495244,61.8,0.019432336860083686,0.29809717130906427,0.10068068782449745
0395,cdot_cos,R,Q-R,97,19,14442,0.04784878443714681,0.15485209160081115,0.052114711147306675,0.9616054662427297,708.0,2.162502005108192,0.5546726890635194,5.462892838758969,-0.044078593070942695,0.031,0.9999999999999648,-29.881601225043198,0.4818139155644758,97,2026-10-07 22:16:30.526243,61.8,0.44931379537078037,1.1621905997833182,1.8701644390598335
0395,cdot_cos,S,R-S,98,19,14471,0.0033957673352279106,-0.08960383153322181,-0.0444530171019189,0.06024517917259717,708.0,2.176582724683903,0.5547466049584376,5.4917116056899244,-0.01088602718302825,0.029,0.9999999999999635,449.0585675061325,0.48678105491853674,98,2026-10-07 22:16:30.555244,61.8,0.04740165193649888,0.4337508142367192,0.48554205433485814
0395,cdot_cos,T,S-T,99,19,14680,-0.2654999402710407,-0.1748187862677947,-0.2688957076062686,6.067374371241228e-08,708.0,2.1876595523339217,0.5547466050328782,5.519659427756254,-0.008613322063273164,0.209,0.9999999999999614,30530465.817208394,0.49174825620151036,99,2026-10-07 22:16:30.764243,61.8,0.768081602075103,0.1716969922646575,0.05299917535894176
0395,cdot_cos,P,T-P,100,20,15002,0.042721882095702934,-0.003223984749139824,0.3082218223667436,0.9999999946603655,731.0,2.2483520674505297,0.555973166872252,5.559732089035072,-0.04794412469466035,0.322,0.999999999999961,-32.06589457525304,0.49671549829361494,100,2026-10-07 22:16:31.086244,61.8,0.4402790002730335,0.1124363285404927,0.1884860717907081
0395,cdot_cos,Q,P-Q,101,20,15111,-0.031522889015481635,-0.024989139943036906,-0.07424477111118458,0.01006747499069923,731.0,2.260068547913999,0.555985511810614,5.587585694115773,-0.009406471816393524,0.109,0.9999999999999585,3121.737164512963,0.5016826656141293,101,2026-10-07 22:16:31.195244,61.8,0.016623638232805278,0.3336421637096044,0.10749064645384672
0395,cdot_cos,R,Q-R,102,20,15150,0.05073068333737544,0.14376117311302056,0.08225357235285707,0.9938385998568937,731.0,2.3210860591392235,0.5572038338985326,5.627483335129947,-0.049749866783150826,0.039,0.9999999999999575,-33.11389932663884,0.5066498080076745,102,2026-10-07 22:16:31.234244,61.8,0.44444690351254335,0.9614072941550645,1.5645515698775507
0395,cdot_cos,S,R-S,103,20,15177,0.0037597640954481755,-0.11782391514062125,-0.04697091924192726,0.05201518400691734,731.0,2.335058316858094,0.5572675792031284,5.65564869920164,-0.01157824328533389,0.027,0.999999999999956,598.8146694070473,0.5116169463458083,103,2026-10-07 22:16:31.261244,61.8,0.03699987729311235,0.4681517358676518,0.5174910266248356
0395,cdot_cos,T,S-T,104,20,15400,-0.21106643700181815,-0.14928764649604984,-0.21482620109726633,1.7147196801181832e-06,731.0,2.3463662528760767,0.5572675813045093,5.683037008767657,-0.009421304029766193,0.223,0.9999999999999538,1026439.0001155434,0.5165841584621745,104,2026-10-07 22:16:31.484244,61.8,0.7953740671638303,0.16470783384603294,0.05070823326449612
0395,cdot_cos,P,T-P,105,21,15733,0.051119606415260074,-0.005612966077028293,0.26218604341707824,0.9999999081489483,712.0,2.4085180107534248,0.5584927254382415,5.722847950444102,-0.05256459063866063,0.333,0.9999999999999535,-35.2148660888294,0.5215514140546532,105,2026-10-07 22:16:31.817244,61.8,0.44009392903789696,0.11146922929868049,0.18664191554759174
0395,cdot_cos,Q,P-Q,106,21,15849,-0.019445461045744752,-0.016764373304202104,-0.07056506746100483,0.012605689935090354,712.0,2.420604759588998,0.5585081647148743,5.7501940213311515,-0.010381843778838646,0.116,0.9999999999999503,2732.171193183663,0.5265185863897002,106,2026-10-07 22:16:31.933243,61.8,0.017195170492350125,0.3196802855440409,0.10419611065149263
0395,cdot_cos,R,Q-R,107,21,15880,0.05002003682542442,0.15069683103309595,0.06946549787116918,0.9865198839715368,712.0,2.4826838369996422,0.5597160876212711,5.789748767880623,-0.05411003946846122,0.031,0.9999999999999495,-36.201147819989494,0.5314857255205584,107,2026-10-07 22:16:31.964243,61.8,0.44568867408980445,1.270831857109286,2.0025508842143336
0395,cdot_cos,S,R-S,108,21,15905,0.014383005888740908,-0.12468546826479576,-0.03563703093668351,0.09953799751336496,712.0,2.4993963347297736,0.5598379257470646,5.818006927645575,-0.014800335110027256,0.025,0.9999999999999476,322.63878077924403,0.5364528626340433,108,2026-10-07 22:16:31.989243,61.8,0.07022850708042337,0.5651735714094652,0.6684999092052557
0395,cdot_cos,T,S-T,109,21,16118,-0.1539767359692766,-0.04247483478845001,-0.16835974185801753,3.0290926728067637e-05,712.0,2.5109425155701155,0.5598379628231631,5.844880467159649,-0.010283120493887568,0.213,0.9999999999999452,121836.29874474228,0.5414200770310319,109,2026-10-07 22:16:32.202244,61.8,0.644497445959635,0.17636956980610674,0.05420742178564258
0395,cdot_cos,P,T-P,110,22,16445,0.03495576427015463,-0.0015102886540976053,0.18893250023943123,0.9999915050357381,713.0,2.574529771467175,0.5610615863488054,5.884464125774216,-0.057446031796007026,0.327,0.9999999999999452,-38.54364542179125,0.5463873404234029,110,2026-10-07 22:16:32.529243,61.8,0.4399935937248421,0.11568349367106864,0.19445644005217003
0395,cdot_cos,Q,P-Q,111,22,16564,-0.04404599600368612,-0.039062084305557465,-0.07900176027384075,0.007522477810100952,713.0,2.5865995204309944,0.5610707883139541,5.9112481605144716,-0.011066229231915694,0.119,0.9999999999999419,5040.206283647617,0.5513545168056342,111,2026-10-07 22:16:32.648243,61.8,0.015129456438667836,0.3190360259990292,0.1014264618808344
0395,cdot_cos,R,Q-R,112,22,16595,0.037818213817947074,0.128959213080585,0.0818642098216332,0.9936894893152666,713.0,2.650460345654944,0.5622859598874931,5.950675878897823,-0.059376461731732055,0.031,0.9999999999999415,-39.755894189591594,0.5563216557095798,112,2026-10-07 22:16:32.679244,61.8,0.4432479359417654,1.683479941728833,2.060026620127408
0395,cdot_cos,S,R-S,113,22,16624,0.0406547637585586,-0.17425766983856572,0.002836549940611527,0.5437128138631925,713.0,2.690975276818182,0.5629505448445313,5.984246994863946,-0.0384077145162102,0.029,0.9999999999999402,31.55164286138815,0.5612887942942908,113,2026-10-07 22:16:32.708243,61.8,0.5792903584994905,0.903392092649657,1.3970665918357934
0395,cdot_cos,T,S-T,114,22,16858,-0.1342576754940285,-0.05094015688227037,-0.1749124392525871,2.0204424347454502e-05,713.0,2.702857087028624,0.5629505695363933,6.010667902359914,-0.011374319430996992,0.234,0.9999999999999377,1094830.1543953381,0.5662560262034455,114,2026-10-07 22:16:32.942244,61.8,0.09285608996103802,0.16447885844835436,0.050776966711291026
0395,cdot_cos,P,T-P,115,23,17158,0.038401162829733305,-0.002796856836742285,0.1726588383237618,0.9999767763507049,723.0,2.767951382572012,0.5641722583710523,6.050074102994188,-0.06316341053833292,0.3,0.9999999999999376,-42.391392667340774,0.5712232900952224,115,2026-10-07 22:16:33.242244,61.8,0.44046586159489975,0.12937992412858018,0.21698098514462583
0395,cdot_cos,Q,P-Q,116,23,17268,-0.03626198217303744,-0.02931326490205408,-0.07466314500277074,0.009813033190227718,723.0,2.7804850415057722,0.5641842432883574,6.0764509574336065,-0.01233436823998347,0.11,0.9999999999999335,4241.084106355591,0.5761904661394889,116,2026-10-07 22:16:33.352243,61.8,0.0162294480305507,0.35425086329069994,0.11394235394327591
0395,cdot_cos,R,Q-R,117,23,17305,0.048400376594069414,0.1411264888797715,0.08466235876710684,0.9946862722609454,723.0,2.845886572495966,0.5653986885805486,6.1157225959300145,-0.06522388872875068,0.037,0.9999999999999333,-43.55035243566732,0.5811576079481429,117,2026-10-07 22:16:33.389244,61.8,0.4444614916987204,1.117134821146876,1.7676089456809092
0395,cdot_cos,S,R-S,118,23,17332,0.0119426459888829,-0.13530118018155654,-0.03645773060518651,0.09508345439125775,723.0,2.863153018270641,0.565514738246101,6.143063176479202,-0.017471472931361795,0.027,0.9999999999999307,411.4825800669877,0.5861247453598478,118,2026-10-07 22:16:33.416243,61.8,0.0650132062963597,0.5439491716920107,0.6394979916546362
0395,cdot_cos,T,S-T,119,23,17556,-0.17898623634931293,-0.04571208908398816,-0.19092888233819583,7.50896860755895e-06,723.0,2.8752598277673345,0.5655147474105382,6.169038287829766,-0.01231359930165873,0.224,0.9999999999999281,562814.0072340549,0.5910919797921168,119,2026-10-07 22:16:33.640243,61.8,0.6577856269774374,0.17539027299710652,0.05404825668166698
0395,cdot_cos,P,T-P,120,24,17881,0.04589557700912992,-0.004377270696760324,0.22488181335844284,0.9999990788997768,722.0,2.941727860573345,0.5667348122499111,6.208269560574727,-0.06848401066059792,0.325,0.9999999999999274,-46.03887395674115,0.5960592662526698,120,2026-10-07 22:16:33.965244,61.8,0.4403446969714644,0.12200454670028248,0.2045170240184933
0395,cdot_cos,Q,P-Q,121,24,17990,-0.026847849060371517,-0.022512555957927154,-0.07274342606950143,0.011035471143968105,722.0,2.954562783122518,0.5667482717680244,6.234231784133104,-0.01340439403809354,0.109,0.9999999999999236,4092.2428394932176,0.6010264445074235,121,2026-10-07 22:16:34.074244,61.8,0.016423012414581512,0.36408388140154985,0.11775158301993843
0395,cdot_cos,R,Q-R,122,24,18030,0.048624290439429764,0.1469692283376834,0.07547213949980128,0.9906610462968817,722.0,3.0210981467188827,0.5679561374214273,6.273281388856239,-0.07037617311913216,0.04,0.9999999999999237,-47.16731444472933,0.6059935878055552,122,2026-10-07 22:16:34.114244,61.8,0.44506621427115406,1.0441641457205997,1.6633840899091146
0395,cdot_cos,S,R-S,123,24,18055,0.01001774952179468,-0.12273115876899178,-0.03860654091763509,0.08425544737342791,722.0,3.038095914780166,0.5680588289936561,6.300077993233864,-0.01822926737892107,0.025,0.999999999999921,507.80122076613975,0.6109607237019813,123,2026-10-07 22:16:34.139244,61.8,0.057233582086096746,0.5864667107240429,0.6799107224513357
0395,cdot_cos,T,S-T,124,24,18276,-0.1751422383524182,-0.03891424826151835,-0.1851599878742129,1.0725376637400014e-05,722.0,3.050421482255085,0.5680588420655045,6.3256363672431135,-0.013282533824127231,0.221,0.9999999999999175,378426.4788284996,0.6159279637560903,124,2026-10-07 22:16:34.360243,61.8,0.68906206093083,0.1813016795837854,0.05577179852904413
0395,cdot_cos,P,T-P,125,25,18603,0.04373082380431422,-0.0026231381957835,0.21887306215673244,0.9999986647026764,713.0,3.118231257156199,0.5692772036101245,6.364713474943817,-0.07398587326039868,0.327,0.9999999999999167,-49.823748709342595,0.6208952625405998,125,2026-10-07 22:16:34.687244,61.8,0.44022380773583597,0.12386757782340319,0.20736934220524278
0395,cdot_cos,Q,P-Q,126,25,18707,-0.025740385849621635,-0.023596927171400457,-0.06947120965393586,0.013475422655703222,713.0,3.1314308781515905,0.5692936158768834,6.390305891662302,-0.014590835653069054,0.104,0.999999999999913,3618.9417634751585,0.6258624408161859,126,2026-10-07 22:16:34.791244,61.8,0.017065294758482764,0.3883061645918387,0.1269194326479932
0395,cdot_cos,R,Q-R,127,25,18754,0.04255011549029241,0.1446080107882764,0.06829050133991404,0.9855193142819723,713.0,3.1989989393913016,0.5704935050639752,6.429136208181378,-0.07560310333939291,0.047,0.9999999999999126,-50.848251940832085,0.630829588100331,127,2026-10-07 22:16:34.838243,61.8,0.44619131986341704,0.9588344108279692,1.4376183242491734
0395,cdot_cos,S,R-S,128,25,18782,0.017772959724658,-0.12667570580711335,-0.02477715576563441,0.1778140526858836,713.0,3.2215613127694196,0.5707099094146164,6.456846474282816,-0.02560168319290208,0.028,0.9999999999999096,231.05552175056198,0.6357967251867469,128,2026-10-07 22:16:34.866244,61.8,0.14184050429534956,0.6272172743448934,0.8057990492184982
0395,cdot_cos,T,S-T,129,25,19015,-0.14755696040074018,-0.11656369995638996,-0.16532992012539818,3.65282146225541e-05,713.0,3.2341231067546157,0.5707099538676346,6.482019963504322,-0.014331932959164101,0.233,0.9999999999999063,253520.4740058263,0.6407639798408384,129,2026-10-07 22:16:35.099244,61.8,0.4555096076839401,0.17533681585093516,0.05391327890642094
0395,cdot_cos,P,T-P,130,26,19316,0.050235568633041204,-0.004987233517354699,0.1977925290337814,0.9999950867907151,721.0,3.3032682689559554,0.5719264683011345,6.520966004776908,-0.07983059801812106,0.301,0.9999999999999059,-53.84125601413351,0.6457312757149757,130,2026-10-07 22:16:35.400243,61.8,0.44022440081325526,0.13681788994427355,0.2297181468483047
0395,cdot_cos,Q,P-Q,131,26,19426,-0.025006535408052928,-0.02133423529041848,-0.07524210404109413,0.00947139980061406,721.0,3.3164874765010683,0.571937986320534,6.546130475801407,-0.01545423674246499,0.11,0.9999999999999016,5589.186737955735,0.6506984604285586,131,2026-10-07 22:16:35.510243,61.8,0.015520206340919655,0.374553966388476,0.1201746140464815
0395,cdot_cos,R,Q-R,132,26,19463,0.05087425928320223,0.147630498429283,0.07588079469125517,0.990891825928327,721.0,3.38567014156142,0.573142561172383,6.58490773043449,-0.0818280050962384,0.037,0.9999999999999009,-55.10140631932606,0.6556656021267234,132,2026-10-07 22:16:35.547244,61.8,0.44435230142004584,1.1524464957487461,1.8698017583878854
0395,cdot_cos,S,R-S,133,26,19490,0.005641499122761579,-0.12052982385777189,-0.04523276016044065,0.05757409478169489,721.0,3.4017685171864755,0.5732125244392582,6.610610355801461,-0.019282345042981056,0.027,0.9999999999998977,893.9785525578747,0.6606327382473465,133,2026-10-07 22:16:35.574244,61.8,0.0390202329472409,0.5345041731497573,0.5962361342613129
0395,cdot_cos,T,S-T,134,26,19696,-0.19737656297696252,-0.09389252457995201,-0.2030180620997241,3.557260630824445e-06,721.0,3.414533366911507,0.573212528761903,6.635415782814232,-0.01535452557765517,0.206,0.9999999999998936,908661.1667587088,0.6655999843933688,134,2026-10-07 22:16:35.780244,61.8,0.7742901651606021,0.20192972523569874,0.061965289927337124
0395,cdot_cos,P,T-P,135,27,20037,0.03921390038519646,-0.0029384103424324494,0.23659046336215897,0.9999995532609005,749.0,3.4849635639835834,0.5744272451161728,6.674242538216798,-0.08568991254815107,0.341,0.999999999999894,-57.90272496394777,0.6705673162747862,135,2026-10-07 22:16:36.121243,61.8,0.4400737661558676,0.12320979747721897,0.20654016736679304
0395,cdot_cos,Q,P-Q,136,27,20145,-0.03169187066168867,-0.025448044770437394,-0.07090577104688514,0.012346288494982526,749.0,3.4985624487909703,0.5744422367794867,6.699091239882838,-0.016746631893435178,0.108,0.9999999999998889,4598.774613017085,0.6755345026769685,136,2026-10-07 22:16:36.229243,61.8,0.01629585375014767,0.3899497778164147,0.12591560006839733
0395,cdot_cos,R,Q-R,137,27,20187,0.05105638884836418,0.13763577064312751,0.08274825951005285,0.9940230051234062,749.0,3.569192715991929,0.5756487924709177,6.737797529093459,-0.08796297467774389,0.042,0.9999999999998886,-59.02449699594337,0.6805016475245576,137,2026-10-07 22:16:36.271244,61.8,0.44502836255117423,1.058287603102115,1.6816730285942538
0395,cdot_cos,S,R-S,138,27,20212,0.013658710309934026,-0.13887227532905627,-0.03739767853843015,0.09020154563674951,749.0,3.587458607451548,0.5757582356821386,6.763628987768256,-0.023032911873931403,0.025,0.9999999999998848,593.2762944316473,0.6854687818399792,138,2026-10-07 22:16:36.296243,61.8,0.05966484218273448,0.6249027579778854,0.7306356583847595
0395,cdot_cos,T,S-T,139,27,20434,-0.13899359043389142,-0.020918995271793958,-0.15265230074382544,7.995935231178519e-05,749.0,3.6004378538908233,0.5757583326950121,6.788091796030788,-0.016438015568381564,0.222,0.9999999999998807,67979.5996839093,0.6904360457671267,139,2026-10-07 22:16:36.518244,61.8,0.669517591974203,0.1907162817008095,0.05846507405078956
0395,cdot_cos,P,T-P,140,28,20786,0.033293142030533504,-0.0038053670988000433,0.17228673246442494,0.9999762361212672,729.0,3.6721366365267074,0.5769711223477477,6.826815592722615,-0.09180547302697248,0.352,0.9999999999998804,-62.14388232006096,0.6954033981288013,140,2026-10-07 22:16:36.870244,61.8,0.4400146203609659,0.12088527326554138,0.20368972339739813
0395,cdot_cos,Q,P-Q,141,28,20902,-0.05140446329634485,-0.04220634122148823,-0.08469760532687835,0.005302227079670814,729.0,3.6855410862697644,0.5769775505283479,6.851230091807459,-0.017364273825390783,0.116,0.9999999999998747,11580.446137412431,0.700370592869887,141,2026-10-07 22:16:36.986243,61.8,0.013745660628519594,0.36855208991420535,0.1155556012332499
0395,cdot_cos,R,Q-R,142,28,20933,0.04675912045254985,0.13095321366189552,0.0981635837488947,0.997686111982543,729.0,3.757640721386803,0.5781866339432109,6.889890216979018,-0.09441143470861321,0.031,0.9999999999998752,-63.723610741902775,0.7053377301378121,142,2026-10-07 22:16:37.017244,61.8,0.44216210984111515,1.8400699877381061,2.3257946811947954
0395,cdot_cos,S,R-S,143,28,20962,0.045753691537676194,-0.19506430576693073,-0.0010054289148736587,0.48447111912981067,729.0,3.799625425509527,0.5787734215019188,6.921124787867566,-0.055798777243926304,0.029,0.9999999999998728,65.80346991287985,0.7103048666962687,143,2026-10-07 22:16:37.046243,61.8,0.5005747841154458,0.9526867709976828,1.447748418024963
0395,cdot_cos,T,S-T,144,28,21192,-0.09683032441112391,-0.02260119196385168,-0.1425840159488001,0.00014895874709632163,729.0,3.8128965541046687,0.5787736018854421,6.9452845274918165,-0.017766638070084214,0.23,0.9999999999998681,210840.42749322177,0.7152721462698232,144,2026-10-07 22:16:37.276243,61.8,0.11757848891688227,0.18758716148358465,0.05770055910931165
0395,cdot_cos,P,T-P,145,29,21515,0.044126948522620474,-0.0019371189784439873,0.14095727293374438,0.9998352899974806,724.0,3.885915519791976,0.5799838893341149,6.9839322132102675,-0.09878381435374603,0.323,0.9999999999998678,-66.94044160542632,0.7202394946654984,145,2026-10-07 22:16:37.599244,61.8,0.4403672399313194,0.13621762513262253,0.22606490924862926
0395,cdot_cos,Q,P-Q,146,29,21625,-0.014080301087597648,-0.012587500634460609,-0.05820724961021812,0.026669372269101353,724.0,3.900893139940343,0.5800161591587352,7.008363346802517,-0.020493660107335977,0.11,0.9999999999998626,2426.1103110339986,0.7252066894920721,146,2026-10-07 22:16:37.709243,61.8,0.021923122761057724,0.3972575264606744,0.13616018316697182
0395,cdot_cos,R,Q-R,147,29,21664,0.04978957730388468,0.15090126357724185,0.06386987839148234,0.9810563010906442,724.0,3.9733121756133243,0.5812027554127538,7.04671036497024,-0.1001233719241458,0.039,0.999999999999862,-67.10767166770445,0.7301738326210183,147,2026-10-07 22:16:37.748243,61.8,0.45143859318364093,1.14027450728612,1.8568983505892684
0395,cdot_cos,S,R-S,148,29,21693,0.0021968392621491825,-0.09558733322472969,-0.0475927380417355,0.05015258911978493,724.0,3.98983455150866,0.5812633903015968,7.071375798254068,-0.02310019555710375,0.029,0.9999999999998573,1270.278182029357,0.735140968817434,148,2026-10-07 22:16:37.777244,61.8,0.03563922534759428,0.5168771459754308,0.5697370998391688
0395,cdot_cos,T,S-T,149,29,21912,-0.23299486484900436,-0.1653256496982752,-0.23519170411115353,4.870749612629723e-07,724.0,4.003291050079899,0.5812633908904624,7.095225367634775,-0.018884572296981015,0.219,0.9999999999998525,7158888.371077517,0.7401082487125089,149,2026-10-07 22:16:37.996243,61.8,0.7999299889717827,0.2002349293819474,0.06144519895542966
0395,cdot_cos,P,T-P,150,30,22239,0.044210076149971064,-0.003557668282214193,0.2772049409989754,0.9999999636933672,743.0,4.077537450577953,0.5824718842352297,7.133796039613873,-0.10525348864837242,0.327,0.9999999999998525,-71.4682598173727,0.745075613164687,150,2026-10-07 22:16:38.323244,61.8,0.4401762420951153,0.13587790978921832,0.2270532125322748
0395,cdot_cos,Q,P-Q,151,30,22343,-0.02127631329288311,-0.017710258638415372,-0.06548638944285418,0.017173605296306873,743.0,4.092155203082048,0.5824926298184567,7.157790860233256,-0.02095006837295951,0.104,0.9999999999998462,4063.6804158594864,0.7500428065507824,151,2026-10-07 22:16:38.427244,61.8,0.01788100192854799,0.4271776286751598,0.1405553125393742
0395,cdot_cos,R,Q-R,152,30,22388,0.05538515400037176,0.14986676670785298,0.07666146729325488,0.9913170981925329,743.0,4.166390397342386,0.5836896361930438,7.196210744854133,-0.10746254867326496,0.045,0.9999999999998458,-72.27403473949632,0.7550099544269261,152,2026-10-07 22:16:38.472243,61.8,0.44706658992954296,0.9975017018570103,1.6496709835630736
0395,cdot_cos,S,R-S,153,30,22414,-0.0007362948670906593,-0.10232609887999881,-0.05612144886746242,0.030227613205158453,743.0,4.181930356249179,0.5837261203350741,7.220294969805045,-0.022739547565448843,0.026,0.9999999999998407,2322.1870213502884,0.7599770877487323,153,2026-10-07 22:16:38.498244,61.8,0.024093823182520718,0.5612336784345336,0.597690727184331
0395,cdot_cos,T,S-T,154,30,22633,-0.23850768059369645,-0.11497971017650485,-0.2377713857266058,4.152969405412037e-07,743.0,4.195574548620982,0.5837261208363231,7.243852278133019,-0.02003527721763704,0.219,0.9999999999998359,5395063.371192537,0.7649443759657795,154,2026-10-07 22:16:38.717243,61.8,0.8737373708574466,0.2033898663156793,0.062302248273073714
0395,cdot_cos,P,T-P,155,31,22982,0.05133849632477559,-0.004614100436788317,0.28984617691847203,0.9999999833772524,728.0,4.2710151176954465,0.5849325819992109,7.282353590717151,-0.11186196250504955,0.349,0.9999999999998354,-76.11242542413432,0.7699117717079754,155,2026-10-07 22:16:39.066243,61.8,0.4400385902880436,0.12910769005857636,0.21616208903857995
0395,cdot_cos,Q,P-Q,156,31,23100,-0.016544798407950794,-0.014880629642451975,-0.06788329473272639,0.014844243435902823,728.0,4.285691716281868,0.5849504833721051,7.30603095926631,-0.02199356474253272,0.118,0.9999999999998289,5020.195841621781,0.774878979543269,156,2026-10-07 22:16:39.184243,61.8,0.016804267455038695,0.3803749263535247,0.12437795412221947
0395,cdot_cos,R,Q-R,157,31,23130,0.052504022740583856,0.14944635986574825,0.06904882114853465,0.9861731166373301,728.0,4.360783600314878,0.5861392515162885,7.344305560479511,-0.1136139497733934,0.03,0.9999999999998285,-77.07170273627545,0.7798461149535084,157,2026-10-07 22:16:39.214243,61.8,0.4464542052058284,1.5974797922730193,2.503062801100331
0395,cdot_cos,S,R-S,158,31,23155,0.018734464281240967,-0.13743831160948172,-0.03376955845934289,0.11037084200591218,728.0,4.3815405038182496,0.5862722342985996,7.369329506888318,-0.03175031164465627,0.025,0.9999999999998233,615.5957689110463,0.7848132467324956,158,2026-10-07 22:16:39.239244,61.8,0.0758986034059344,0.6920687399091285,0.8302761401348491
0395,cdot_cos,T,S-T,159,31,23373,-0.14340858356215683,-0.03235063190082618,-0.16214304784339778,4.4479380439294195e-05,728.0,4.395387037310335,0.5862722878880435,7.392614058084427,-0.021263859530863904,0.218,0.999999999999818,195681.3012800513,0.7897805429291316,159,2026-10-07 22:16:39.457243,61.8,0.6106944937966488,0.2075145240307524,0.0635162086792899
0395,cdot_cos,P,T-P,160,32,23710,0.0424300701047344,-0.003983621902579421,0.18583865366689123,0.9999897151547537,726.0,4.472016836295658,0.5874765723647932,7.43105801255743,-0.11878944441809415,0.337,0.9999999999998178,-80.98218217546656,0.7947479436465114,160,2026-10-07 22:16:39.794244,61.8,0.43999347639911307,0.13518219468091505,0.2273881275528868
0395,cdot_cos,Q,P-Q,161,32,23821,-0.03477386556035665,-0.02855268023556269,-0.07720393566509105,0.00839904108758822,726.0,4.4864998365252715,0.5874866828925402,7.45437227230111,-0.02268167823897475,0.111,0.9999999999998107,9505.712123429254,0.7997151493055464,161,2026-10-07 22:16:39.905244,61.8,0.014447378678500319,0.41107144871091283,0.13047747954607122
0395,cdot_cos,R,Q-R,162,32,23858,0.04884120298877388,0.14340119621294486,0.08361506854913053,0.9943329940997658,726.0,4.56327469790948,0.5886831090133142,7.492714698027696,-0.12135548845255355,0.037,0.9999999999998105,-82.47380134909305,0.8046822905349403,162,2026-10-07 22:16:39.942244,61.8,0.4434823747213209,1.2739349968102596,2.0749962536272637
0395,cdot_cos,S,R-S,163,32,23887,0.002556771134256789,-0.10048392659299665,-0.0462844318545171,0.05414734350059305,726.0,4.580771026289231,0.588748231570745,7.516636210622232,-0.02794262728754258,0.029,0.9999999999998048,1434.4163504996998,0.8096494252335783,163,2026-10-07 22:16:39.971244,61.8,0.03532997400600505,0.5435571909312699,0.6033216682672572
0395,cdot_cos,T,S-T,164,32,24092,-0.2274844232105534,-0.11253769676203779,-0.23004119434481018,6.696260061858351e-07,726.0,4.594801014983494,0.5887482323760793,7.539658128310644,-0.022483939479031195,0.205,0.9999999999997992,6778163.350732587,0.8146167185169361,164,2026-10-07 22:16:40.176243,61.8,0.7844427822255238,0.2239549560686973,0.06843896924030828
0395,cdot_cos,P,T-P,165,33,24436,0.03939606676628169,-0.0018987601786857754,0.2668804899768351,0.9999999312792297,740.0,4.672592558277397,0.5899503628329049,7.578051650736211,-0.12580166834577253,0.344,0.9999999999997984,-85.9455213700905,0.8195841404146513,165,2026-10-07 22:16:40.520243,61.8,0.4398705889209041,0.13515201323700984,0.22613820724971717
0395,cdot_cos,Q,P-Q,166,33,24545,-0.02676881033448782,-0.022421672363412873,-0.06616487710076951,0.016480016919153944,740.0,4.687785600090557,0.5899701650079103,7.601235981376098,-0.024815794004072057,0.109,0.9999999999997912,5099.736484204355,0.8245513478050307,166,2026-10-07 22:16:40.629244,61.8,0.017087305970675613,0.426723240522974,0.13938570470789044
0395,cdot_cos,R,Q-R,167,33,24584,0.05317630657122663,0.1450011077195228,0.07994511690571444,0.9929005149877085,740.0,4.765618224711405,0.5911626810656175,7.639507616128415,-0.12827792495818163,0.039,0.999999999999791,-86.7595285492687,0.829518490820303,167,2026-10-07 22:16:40.668243,61.8,0.4463969714082871,1.224827965351277,1.9957083236114943
0395,cdot_cos,S,R-S,168,33,24611,0.0067482548659763475,-0.12684944330883213,-0.04642805170525028,0.05369456528304939,740.0,4.783322181387956,0.591227140107394,7.663181738799036,-0.029471786962276487,0.027,0.9999999999997851,1532.851486353166,0.8344856231324613,168,2026-10-07 22:16:40.695244,61.8,0.034994410914495275,0.5910981230733949,0.655702099131531
0395,cdot_cos,T,S-T,169,33,24831,-0.18716852214943694,-0.0371321944767468,-0.1939167770154133,6.242916715164293e-06,740.0,4.797537523357368,0.5912271476016839,7.685955082079334,-0.023743391236325278,0.22,0.999999999999779,764368.0390868895,0.8394529390945761,169,2026-10-07 22:16:40.915244,61.8,0.7856351781928279,0.21170934619743872,0.0646151907700545
0395,cdot_cos,P,T-P,170,34,25176,0.0464482302896892,-0.0030246027854734956,0.23361675243912614,0.9999994631332105,738.0,4.876474293714829,0.592427047651275,7.724305893555982,-0.1330058360470276,0.345,0.999999999999779,-91.05962188095835,0.8444203774223805,170,2026-10-07 22:16:41.260243,61.8,0.43977761751189154,0.13666676580956805,0.22880223292017698
0395,cdot_cos,Q,P-Q,171,34,25297,-0.020169830401818883,-0.017565613410634145,-0.06661806069150808,0.0160321656469225,738.0,4.89183759176597,0.5924462757243033,7.747242666417279,-0.026138601794747255,0.121,0.9999999999997711,5557.875409290951,0.8493876000142889,171,2026-10-07 22:16:41.381243,61.8,0.01676464293019036,0.38852797357420826,0.1269694053813297
0395,cdot_cos,R,Q-R,172,34,25327,0.05153774528637634,0.15187448613496138,0.07170757568819522,0.988243561946022,738.0,4.970498063319788,0.5936309704651533,7.78539955099395,-0.13499508936681875,0.03,0.9999999999997706,-91.88568482541379,0.8543547339931681,172,2026-10-07 22:16:41.411244,61.8,0.44647419054032,1.6161265142704107,2.6220157184605837
0395,cdot_cos,S,R-S,173,34,25353,0.006833588660787527,-0.11305250628893888,-0.04470415662558881,0.059372453650826676,738.0,4.988805182622195,0.5937021109284278,7.808934429169562,-0.0317253671926134,0.026,0.9999999999997645,1451.631285780828,0.8593218646121413,173,2026-10-07 22:16:41.437243,61.8,0.0385763798135434,0.628960588330029,0.7041199731695054
0395,cdot_cos,T,S-T,174,34,25570,-0.1708512739116429,-0.03495930426043255,-0.17768486257243044,1.7023062252348055e-05,738.0,5.003204013912949,0.5937021313250089,7.831471347512108,-0.025034433235560573,0.217,0.9999999999997575,328041.93640484166,0.8642891868887411,174,2026-10-07 22:16:41.654243,61.8,0.7654669490192734,0.21766013308804413,0.06635406124771598
0395,cdot_cos,P,T-P,175,35,25914,0.04390841072452009,-0.0033462587985502875,0.214759684636163,0.9999982782170966,727.0,5.083269680382406,0.5948997428299864,7.869786303032766,-0.14039009729376475,0.344,0.9999999999997574,-96.32143944740876,0.869256640109613,175,2026-10-07 22:16:41.998244,61.8,0.4396925731527241,0.13842836684704424,0.23274903043446743
0395,cdot_cos,Q,P-Q,176,35,26023,-0.030182521763223155,-0.025582743554258748,-0.07409093248774325,0.010162667845808101,727.0,5.098442730303716,0.5949119080084821,7.892400868643483,-0.02685594209736139,0.109,0.9999999999997496,9332.715934728576,0.8742238545963399,176,2026-10-07 22:16:42.107244,61.8,0.014588458525853921,0.43656300187071095,0.13920229285605168
0395,cdot_cos,R,Q-R,177,35,26062,0.047181251902437694,0.13818967766985363,0.07736377366566086,0.9916828294798778,727.0,5.178440414790221,0.5960984349275432,7.9305764380051365,-0.1427831112298342,0.039,0.9999999999997494,-97.70294063299379,0.8791909974825394,177,2026-10-07 22:16:42.146244,61.8,0.44400878374293545,1.3328684584005523,2.051222679141163
0395,cdot_cos,S,R-S,178,35,26092,0.01797031132843432,-0.13684948246981696,-0.029210940574003374,0.14121486907764175,727.0,5.202406470058959,0.5962673044163741,7.955200641712464,-0.04320248980247331,0.03,0.9999999999997428,589.6898374998274,0.884158131642009,178,2026-10-07 22:16:42.176243,61.8,0.09976138125996797,0.6426726967865134,0.7988685089579247
0395,cdot_cos,T,S-T,179,35,26314,-0.1576176230677214,-0.03726241109821738,-0.17558793439615572,1.9378357174210218e-05,727.0,5.217000776597412,0.5962673275881012,7.977515720148976,-0.026406201289190606,0.222,0.9999999999997359,724861.3125004704,0.8891254690518663,179,2026-10-07 22:16:42.398243,61.8,0.5293668348885878,0.2157380009728778,0.06574011954258135
0395,cdot_cos,P,T-P,180,36,26641,0.035645944375548196,-0.004277495279396228,0.19326356744326958,0.9999934999128152,728.0,5.2981941424909165,0.5974624987661682,8.01580321455728,-0.14811510699066732,0.327,0.9999999999997362,-101.83386943644469,0.8940929209850615,180,2026-10-07 22:16:42.725244,61.8,0.4396754756501933,0.1474863130220518,0.24829775502600818
0395,cdot_cos,Q,P-Q,181,36,26755,-0.04143751317934412,-0.03191105083045252,-0.07708345755489232,0.00846127882407381,728.0,5.313456825313834,0.5974726065922209,8.03817458459302,-0.028097767589584308,0.114,0.9999999999997277,11873.70447168836,0.8990601448655964,181,2026-10-07 22:16:42.839243,61.8,0.013961956545583815,0.4242435979032791,0.13388318265716848
0395,cdot_cos,R,Q-R,182,36,26786,0.052315265783662204,0.13669638888213803,0.09375277896300632,0.9969632369689196,728.0,5.394921682812864,0.5986629948978558,8.076408141319073,-0.1511924547113675,0.031,0.9999999999997277,-103.40717103746303,0.9040272790388642,182,2026-10-07 22:16:42.870244,61.8,0.4430117747137579,1.7738412057760575,2.6278986290009816
0395,cdot_cos,S,R-S,183,36,26813,0.0302919419250276,-0.17489935785461067,-0.022023323858634605,0.20407109727929773,728.0,5.423434980071949,0.5989065157669853,8.101859966037054,-0.05345125291901755,0.027,0.9999999999997213,401.366840311242,0.9089944095097211,183,2026-10-07 22:16:42.897243,61.8,0.16063758065508793,0.8027543530005693,1.0560480466327828
0395,cdot_cos,T,S-T,184,36,27026,-0.0909488650636883,-0.017383919122359853,-0.1212408069887159,0.0005568365191656561,728.0,5.438270417874895,0.5989071801809788,8.123975044637238,-0.027922052336344195,0.213,0.9999999999997142,38423.63471092175,0.913961747742948,184,2026-10-07 22:16:43.110244,61.8,0.40079610790979503,0.22799704081686384,0.06964994273683384
0395,cdot_cos,P,T-P,185,37,27369,0.035490451002107404,-0.002641275497167107,0.1264393160657957,0.999596104230761,739.0,5.520561719459933,0.6000993040421939,8.162235851304324,-0.1561126046694162,0.343,0.9999999999997141,-107.53123605998965,0.9189292348477515,185,2026-10-07 22:16:43.453243,61.8,0.439929149253043,0.14236609449938323,0.2399163311517154
0395,cdot_cos,Q,P-Q,186,37,27475,-0.044793975029864264,-0.036583774630006366,-0.08028442603197167,0.006953188115396845,739.0,5.535933558701472,0.6001075923199255,8.184379370321208,-0.029421183563657298,0.106,0.9999999999997055,15285.614841669048,0.9238964541339749,186,2026-10-07 22:16:43.559244,61.8,0.01348564735839406,0.46200875451659607,0.14501735133526897
0395,cdot_cos,R,Q-R,187,37,27519,0.048489650330622566,0.13719098423228201,0.09328362536048683,0.9968741804133228,739.0,5.618507575417452,0.6012952821877336,8.22259233488332,-0.15928499803978194,0.044,0.9999999999997053,-109.34151919287213,0.9288636030545676,187,2026-10-07 22:16:43.603244,61.8,0.442510012608289,1.330468440492056,1.8766821980904513
0395,cdot_cos,S,R-S,188,37,27544,0.0337160165497842,-0.17485626751311428,-0.014773633780838367,0.2863841772443155,739.0,5.653014781464773,0.6016362646773259,8.249223878278553,-0.06724355622122802,0.025,0.9999999999997,269.9301126243145,0.9338307306287046,188,2026-10-07 22:16:43.628243,61.8,0.2544178896961507,0.9912755729569689,1.380288241892842
0395,cdot_cos,T,S-T,189,37,27765,-0.08594452700865869,-0.014910567042331109,-0.11966054355844288,0.0006139262772086161,739.0,5.6680713540653,0.6016369955410804,8.271144247904688,-0.02946946783344948,0.221,0.9999999999996919,51684.17253467117,0.9387980892466824,189,2026-10-07 22:16:43.849244,61.8,0.27753611077254775,0.2227946881626988,0.06812928778519184
0395,cdot_cos,P,T-P,190,38,28108,0.042742460746926295,-0.0039583969764845454,0.128686987755585,0.9996484671652798,728.0,5.7514900336326855,0.6028264487463711,8.3093922671249,-0.16452421502759224,0.343,0.9999999999996921,-113.54355647907273,0.9437655953907029,190,2026-10-07 22:16:44.192243,61.8,0.4400439520947664,0.1446000408792673,0.24320314742677976
0395,cdot_cos,Q,P-Q,191,38,28217,-0.0322353176584658,-0.026296974022634614,-0.0749777784053921,0.009625887252053942,728.0,5.767266982108477,0.6028378964344764,8.331388726997032,-0.031386400480731554,0.109,0.9999999999996827,11630.10498914198,0.9487328226134902,191,2026-10-07 22:16:44.301243,61.8,0.014380315639291959,0.45517780852885936,0.14474264656689834
0395,cdot_cos,R,Q-R,192,38,28256,0.04894764179591476,0.14330243226436307,0.08118295945438056,0.9934199222406848,728.0,5.850718795891977,0.6040187241568088,8.369532226664413,-0.16727696610202186,0.039,0.9999999999996829,-115.0807717766607,0.9536999658895448,192,2026-10-07 22:16:44.340243,61.8,0.44380559350442766,1.4375284294466917,2.1397900970128054
0395,cdot_cos,S,R-S,193,38,28285,0.026009428249951755,-0.15564060605365884,-0.022938213545963003,0.19504099284562706,728.0,5.879394199605319,0.6042504175708632,8.39451836381941,-0.0580221292755424,0.029,0.9999999999996759,471.5491688548256,0.9586670976713062,193,2026-10-07 22:16:44.369244,61.8,0.15213520448577952,0.7567903666045412,0.9888070245980186
0395,cdot_cos,T,S-T,194,38,28505,-0.1239243184219621,-0.03138947916901938,-0.14993374667191384,9.458608981077188e-05,728.0,5.89461263715504,0.6042505299203802,8.416239283626643,-0.030908382301279347,0.22,0.9999999999996678,241333.89882498924,0.9636344661411173,194,2026-10-07 22:16:44.589243,61.8,0.4159336311724344,0.22670975429485657,0.0691747161350948
0395,cdot_cos,P,T-P,195,39,28836,0.04879227588113468,-0.004009783727172725,0.17271659430309677,0.9999768590936556,737.0,5.979146491495056,0.6054376868940929,8.454480561296977,-0.17296109461782624,0.331,0.9999999999996678,-119.65790157664469,0.9686019758404814,195,2026-10-07 22:16:44.920243,61.8,0.4398600622098886,0.1524553072310821,0.25538928803630223
0395,cdot_cos,Q,P-Q,196,39,28953,-0.01835611083608824,-0.015605767744805581,-0.06714838671722292,0.015523266544271191,737.0,5.995538050542017,0.6054561061113479,8.476388991087045,-0.03382259074769661,0.117,0.999999999999658,7553.985706557871,0.9735692175915074,196,2026-10-07 22:16:45.037244,61.8,0.016345963724934798,0.4303543486877945,0.14009879527316516
0395,cdot_cos,R,Q-R,197,39,28983,0.05637690082215465,0.15172524799055603,0.07473301165824289,0.9902288326693347,737.0,6.079849409088,0.606630446528453,8.514467605024192,-0.17524941276070488,0.03,0.9999999999996578,-120.43085629433357,0.9785363494207127,197,2026-10-07 22:16:45.067244,61.8,0.4461932543585149,1.6942173890395504,2.8103786181994534
0395,cdot_cos,S,R-S,198,39,29013,-0.00125057163329092,-0.10347622032274456,-0.05762747245544557,0.027615400519233613,737.0,6.09719109388439,0.6066631788248076,8.5365111535091,-0.03634877768102356,0.03,0.9999999999996494,4243.534690477497,0.9835034819558108,198,2026-10-07 22:16:45.097243,61.8,0.021898680123448346,0.5453205336170885,0.5780561598796474
0395,cdot_cos,T,S-T,199,39,29223,-0.2564704109359104,-0.16976641525878108,-0.2552198393026195,1.4127094281793585e-07,737.0,6.1125686411050255,0.6066631789922524,8.55804084814399,-0.032318483246979286,0.21,0.9999999999996407,24069386.28711961,0.9884708477973861,199,2026-10-07 22:16:45.307244,61.8,0.8827567864430761,0.2403876813241406,0.07322641533636139
0395,cdot_cos,P,T-P,200,40,29573,0.05403868457647934,-0.005518020533560588,0.3105090955123897,0.9999999953642233,748.0,6.198153920040529,0.6078478229592398,8.596269986588634,-0.18116594788979673,0.35,0.999999999999641,-125.64742554790311,0.9934383991906317,200,2026-10-07 22:16:45.657243,61.8,0.43972383346310623,0.1457662594078281,0.24452936838715192
0395,cdot_cos,Q,P-Q,201,40,29692,-0.01499764397411415,-0.013076051646557642,-0.0690363285505935,0.013837414656174832,748.0,6.214605022690505,0.60786420650002,8.617966282259236,-0.03511162484905212,0.119,0.9999999999996305,8914.698293832646,0.9984056479684158,201,2026-10-07 22:16:45.776243,61.8,0.015612019832881598,0.4272933913474017,0.13824456008383623
0395,cdot_cos,R,Q-R,202,40,29722,0.057480279319254805,0.14904439367573127,0.07247792329336895,0.9887840120270918,748.0,6.29984974718121,0.6090342988511174,8.6560075803504,-0.18323326083205949,0.03,0.9999999999996307,-126.58969682529484,1.003372779149779,202,2026-10-07 22:16:45.806243,61.8,0.44558045697487264,1.7087954114403412,2.841490816356836
0395,cdot_cos,S,R-S,203,40,29747,-0.0023796395815579257,-0.10407842392215351,-0.05985991890081273,0.024142495540771598,748.0,6.317132747376926,0.6090628526190764,8.67781371349136,-0.03745313878929292,0.025,0.9999999999996217,5105.460065786174,1.0083399042883796,203,2026-10-07 22:16:45.831244,61.8,0.02039768413731108,0.6564669929796274,0.6913200078286152
0395,cdot_cos,T,S-T,204,40,29962,-0.2303668101326552,-0.08082295506228597,-0.22798717055109727,7.602580663506171e-07,748.0,6.332673096830192,0.6090628535182357,8.699161386677485,-0.033764337683629186,0.215,0.999999999999612,4102500.0743707917,1.0133072867522617,204,2026-10-07 22:16:46.046243,61.8,0.8965050093025384,0.23758515563228624,0.07228069513146972
0395,cdot_cos,P,T-P,205,41,30321,0.03966047031274515,-0.00284578554255421,0.27002728044540036,0.999999943424284,734.0,6.419294364298809,0.6102449133572568,8.737381394376442,-0.189514368482249,0.359,0.9999999999996128,-131.76154510722807,1.018274868508275,205,2026-10-07 22:16:46.405244,61.8,0.43962306732864437,0.14394900500899624,0.24128486760060472
0395,cdot_cos,Q,P-Q,206,41,30431,-0.027651524742123994,-0.022499639435719657,-0.06731199505486915,0.01536950186718821,734.0,6.436028482426651,0.6102630709650566,8.758926915486597,-0.03690787176716283,0.11,0.9999999999996019,8404.548572581734,1.0232421093494013,206,2026-10-07 22:16:46.515244,61.8,0.016005940343659934,0.4693151855996442,0.1521283466167473
0395,cdot_cos,R,Q-R,207,41,30469,0.0509144699839781,0.14224272564696414,0.0785659947261021,0.9922737735300602,734.0,6.5225437051307305,0.6114346992827138,8.79701753309014,-0.1921357706507848,0.038,0.9999999999996017,-132.48902962163186,1.0282092510585852,207,2026-10-07 22:16:46.553244,61.8,0.4457899788146436,1.416111744564703,2.276716386949461
0395,cdot_cos,S,R-S,208,41,30496,0.010264024678933776,-0.12898346627887966,-0.04065044530504432,0.07500750006820629,734.0,6.543652975013568,0.6115232123288036,8.819517317955295,-0.04726557414546543,0.027,0.9999999999995928,1636.7100998684978,1.0331763780563357,208,2026-10-07 22:16:46.580243,61.8,0.04665264581334111,0.6818660965969486,0.7818248104754778
0395,cdot_cos,T,S-T,209,41,30722,-0.18348422539667558,-0.04210417728985497,-0.19374825007560936,6.308275828976664e-06,734.0,6.559364474346966,0.6115232197726127,8.84069276112495,-0.035278613756349185,0.226,0.999999999999583,1610326.1365768271,1.0381437866665892,209,2026-10-07 22:16:46.806243,61.8,0.7119270705796938,0.22868604091184427,0.06951990855485543
0395,cdot_cos,P,T-P,210,42,31055,0.047885948444972425,-0.004265156688125195,0.231370173841648,0.9999993831730732,732.0,6.647019065505722,0.6127025702319303,8.878908003147766,-0.1981514870034442,0.333,0.9999999999995831,-138.10387909742798,1.0431113506501675,210,2026-10-07 22:16:47.139244,61.8,0.43956863943221935,0.15677239649228417,0.2632270004767456
0395,cdot_cos,Q,P-Q,211,42,31172,-0.022003719482737064,-0.019427871222230827,-0.06988966792770948,0.013135924916066874,732.0,6.663774890410827,0.6127180533460672,8.90024820135384,-0.03817703884403527,0.117,0.9999999999995722,10332.188133787635,1.0480786059152245,211,2026-10-07 22:16:47.256243,61.8,0.015141264824970793,0.4448226234295373,0.1432121786761108
0395,cdot_cos,R,Q-R,212,42,31203,0.05148790432439134,0.1461197595617218,0.0734916238071284,0.9894579197993901,732.0,6.751107559388234,0.6138836556404619,8.938285365117904,-0.2003144597395014,0.031,0.999999999999572,-139.10183745792094,1.0530457372782571,212,2026-10-07 22:16:47.287244,61.8,0.44511862327976065,1.7252104075438521,2.817182870238928
0395,cdot_cos,S,R-S,213,42,31232,0.004316559046657855,-0.11396427565225563,-0.047171345277733485,0.051407797107305885,732.0,6.770737935678546,0.6139441795751137,8.96022473790928,-0.04538246736565016,0.029,0.9999999999995622,2559.8466666964146,1.0580128664615145,213,2026-10-07 22:16:47.316243,61.8,0.03291201987286182,0.6121648833936238,0.6769095272521398
0395,cdot_cos,T,S-T,214,42,31460,-0.2193098427965977,-0.12111104122517484,-0.22362640184325555,9.954085019465566e-07,732.0,6.786613122625064,0.6139441807470037,8.981233511130934,-0.036797407647128286,0.228,0.9999999999995525,7325823.671757068,1.0629802893939584,214,2026-10-07 22:16:47.544243,61.8,0.7919111313413201,0.2292681254796372,0.06962801292332511
0395,cdot_cos,P,T-P,215,43,31787,0.04168585390933745,-0.0009028246028791691,0.26099569670593514,0.9999999011373333,759.0,6.87528420089726,0.6151208078792341,9.019446074985266,-0.20688180338483947,0.327,0.9999999999995526,-144.55250187483978,1.0679478624150798,215,2026-10-07 22:16:47.871244,61.8,0.43949313410204466,0.16337877227403164,0.271165376979194
0395,cdot_cos,Q,P-Q,216,43,31909,-0.014429010448872964,-0.01171892272207453,-0.05611486435821041,0.030239543978074743,759.0,6.893462839692281,0.6151563676630795,9.040919962672758,-0.04274350555564572,0.122,0.999999999999541,4615.840707660711,1.0729151299952608,216,2026-10-07 22:16:47.993243,61.8,0.021491973932694905,0.43609963564623,0.14900523602475607
0395,cdot_cos,R,Q-R,217,43,31938,0.056911402332965474,0.15160709399479644,0.07134041278183843,0.987976994937235,759.0,6.9816925119949405,0.6163174872870963,9.078928247911826,-0.2088206519608325,0.029,0.999999999999541,-143.03190039166208,1.0778822577638758,217,2026-10-07 22:16:48.022244,61.8,0.4514412800682302,1.8275205003032644,3.042402493195168
0395,cdot_cos,S,R-S,218,43,31965,-0.0036404337050226117,-0.08688648652851184,-0.06055183603798808,0.02315531176780543,759.0,6.99945902870987,0.6163446847161762,9.10022495074249,-0.04236962658644719,0.027,0.9999999999995306,6120.101458326244,1.0828493832122068,218,2026-10-07 22:16:48.049243,61.8,0.01967225600443878,0.6259622563565126,0.65801913758998
0395,cdot_cos,T,S-T,219,43,32179,-0.23711791641643634,-0.08100353537209258,-0.23347748271141372,5.415074713611773e-07,759.0,7.015494473838192,0.6163446853522038,9.121073147141123,-0.038333819955179455,0.214,0.9999999999995199,6345332.906969176,1.0878167962704723,219,2026-10-07 22:16:48.263244,61.8,0.9000719488940027,0.24698437570719167,0.07493198658094496
0395,cdot_cos,P,T-P,220,44,32546,0.048552350560119195,-0.003708149216294639,0.2856702669765555,0.999999978483,759.0,7.105168341512548,0.6175185542625193,9.15928517247292,-0.2157375761229774,0.367,0.9999999999995205,-151.12739983897097,1.0927844493089571,220,2026-10-07 22:16:48.630244,61.8,0.43941422996975965,0.14584490129063418,0.2443429636903428
0395,cdot_cos,Q,P-Q,221,44,32668,-0.017227022047449008,-0.014708421991167855,-0.0657793726075682,0.016870650755839846,759.0,7.122544631385518,0.6175383464809834,9.180372532485357,-0.04212001429003447,0.122,0.9999999999995082,8772.011189567109,1.0977517217818653,221,2026-10-07 22:16:48.752243,61.8,0.016212495546557845,0.437063556906629,0.14242860551614497
0395,cdot_cos,R,Q-R,222,44,32698,0.055098031407485794,0.14651219508280855,0.0723250534549348,0.9886787537879534,759.0,7.211811849397765,0.6186975563813154,9.218391038837868,-0.2177522301411715,0.03,0.9999999999995084,-151.51027937290024,1.1027188502577254,222,2026-10-07 22:16:48.782243,61.8,0.44638696008337575,1.7931176707244756,2.975573933741593
0395,cdot_cos,S,R-S,223,44,32723,-0.002152427810148848,-0.09420460403605058,-0.05725045921763464,0.028247988734414572,759.0,7.230131691628986,0.618730656901702,9.239624141885951,-0.04502206592143328,0.025,0.9999999999994975,5218.351923237539,1.107685971518462,223,2026-10-07 22:16:48.807244,61.8,0.021567519591860804,0.6902547072509435,0.7327936892488296
0395,cdot_cos,T,S-T,224,44,32941,-0.2635088262215446,-0.08869359459667282,-0.26135639841139574,9.668326422362047e-08,759.0,7.246324584760313,0.618730657014992,9.260317607554589,-0.039890068035418544,0.218,0.9999999999994864,45299681.53881397,1.1126534017005771,224,2026-10-07 22:16:49.025243,61.8,0.879278560356785,0.24508542283330825,0.07427932629048824
0395,cdot_cos,P,T-P,225,45,33305,0.052025411743485676,-0.004893685236837798,0.3155342379650303,0.9999999966017863,741.0,7.336988935984309,0.6199017277047695,9.29853109179889,-0.22472735016650147,0.364,0.9999999999994865,-157.8361440898158,1.1176210702606104,225,2026-10-07 22:16:49.389244,61.8,0.4393338339430904,0.148679220090687,0.2490778879780109
0395,cdot_cos,Q,P-Q,226,45,33411,-0.013401596241289624,-0.012146703337344215,-0.0654270079847753,0.01723565608784416,741.0,7.354563056986333,0.619921899689859,9.319475013171404,-0.043882932912934366,0.106,0.9999999999994742,8965.12745032182,1.1225883216355035,226,2026-10-07 22:16:49.495244,61.8,0.01622722386127816,0.5062557191695379,0.16579359435871846
0395,cdot_cos,R,Q-R,227,45,33456,0.051412375309411944,0.15020425818587735,0.06481397155070157,0.9821107382914653,741.0,7.444315148448251,0.621070640275879,9.357378113931466,-0.22548468038859448,0.045,0.9999999999994745,-158.08769158653166,1.1275554741120657,227,2026-10-07 22:16:49.540244,61.8,0.44691629034887226,1.2150347231124947,1.9944909213759527
0395,cdot_cos,S,R-S,228,45,33486,0.0011915648957125373,-0.09324991050805456,-0.050220810413699406,0.04295710786062535,741.0,7.463916182066457,0.6211208548291752,9.378724653597969,-0.04960511099924628,0.03,0.9999999999994631,3502.561664778072,1.13252260257437,228,2026-10-07 22:16:49.570244,61.8,0.0288514880960202,0.5991907346605412,0.6533677872735548
0395,cdot_cos,T,S-T,229,45,33698,-0.21613951617551655,-0.11437472503029478,-0.2173310810712291,1.4688037279269716e-06,741.0,7.480266592527883,0.6211208565460836,9.399269548797152,-0.04147841810640348,0.212,0.9999999999994519,4733329.352262658,1.1374900339681533,229,2026-10-07 22:16:49.782243,61.8,0.8220732175128028,0.2547073411347271,0.07712457764823502
0395,cdot_cos,P,T-P,230,46,34046,0.046856862984470504,-0.004207561426252522,0.2629963791599871,0.9999999126354567,752.0,7.5719120947075815,0.6222890673334125,9.437486499198192,-0.23388730789050802,0.348,0.9999999999994521,-164.7039146283265,1.1424576963034283,230,2026-10-07 22:16:50.130244,61.8,0.4392632461764238,0.1570835924905513,0.26334914419453587
0395,cdot_cos,Q,P-Q,231,46,34166,-0.01934807951325385,-0.016501172631720244,-0.06620494249772435,0.01643993219384409,752.0,7.589596772901307,0.6223082608232076,9.45827241102793,-0.04545976320428211,0.12,0.9999999999994388,9817.263389728185,1.1474249756026027,231,2026-10-07 22:16:50.250243,61.8,0.015844542107136487,0.4541619421868889,0.14737231828104344
0395,cdot_cos,R,Q-R,232,46,34196,0.055079545418788636,0.14838399603549876,0.07442762493204248,0.9900445245567546,752.0,7.680910960832435,0.6234634212430509,9.496317670147098,-0.2361316982965854,0.03,0.9999999999994391,-165.06100089385492,1.152392102603349,232,2026-10-07 22:16:50.280244,61.8,0.44597993420256876,1.835809243244772,3.043806264370937
0395,cdot_cos,S,R-S,233,46,34225,-0.0009935603756767925,-0.10071750563694531,-0.05607310579446543,0.030315314505498948,752.0,7.699745327495993,0.623498770369722,9.51730143860287,-0.04905377225958369,0.029,0.9999999999994273,5292.292728401663,1.1573592286818832,233,2026-10-07 22:16:50.309243,61.8,0.022065682724387855,0.6093056296168152,0.6494609194330413
0395,cdot_cos,T,S-T,234,46,34438,-0.2425569123753396,-0.09172363268276053,-0.2415633519996628,3.28537292419991e-07,752.0,7.71625068735021,0.6234987707528054,9.5377029637265,-0.04308668980672319,0.213,0.9999999999994155,15576460.226257445,1.162326672919176,234,2026-10-07 22:16:50.522244,61.8,0.8706718209078242,0.2561520178825779,0.07748995236721636
0395,cdot_cos,P,T-P,235,47,34798,0.046975360242511276,-0.004512177630641524,0.28953227261785086,0.999999983051635,767.0,7.808866087113971,0.6246640803007134,9.575924893904848,-0.24318072053363274,0.36,0.999999999999416,-171.7089086638954,1.1672943761747003,235,2026-10-07 22:16:50.882244,61.8,0.43919125995271047,0.15329686672754683,0.25726499934378083
0395,cdot_cos,Q,P-Q,236,47,34908,-0.02050867432174084,-0.015920484835359076,-0.06748403456425212,0.015209430493999825,767.0,7.826624431394044,0.6246817928902615,9.596549864953749,-0.04695880044293857,0.11,0.9999999999994025,11078.104619206468,1.1722616429610475,236,2026-10-07 22:16:50.992243,61.8,0.015319980748295563,0.500904500889877,0.16143949345520558
0395,cdot_cos,R,Q-R,237,47,34948,0.05802458910870997,0.1445206004891153,0.0785332634304508,0.9922582502625096,767.0,7.919065077309744,0.6258366335233511,9.634638623620416,-0.2458619326304609,0.04,0.999999999999403,-172.23426894444503,1.1772287870328877,237,2026-10-07 22:16:51.032243,61.8,0.44530164587919546,1.3886190554537992,2.3110161478925084
0395,cdot_cos,S,R-S,238,47,34974,-0.0008806259873317482,-0.11100116669579652,-0.05890521509604172,0.025572257562813658,767.0,7.937713955830348,0.6258663769436371,9.655402326326671,-0.04994828469601656,0.026,0.9999999999993907,6586.789483195351,1.1821959069085455,238,2026-10-07 22:16:51.058244,61.8,0.01979492181241038,0.678999724629669,0.7172645584847537
0395,cdot_cos,T,S-T,239,47,35197,-0.18733374965809788,-0.013936880084887844,-0.18645312367076614,9.901612408750536e-06,767.0,7.954373062990487,0.6258663884601452,9.6756656904381,-0.044718327740946924,0.223,0.9999999999993787,454126.9730813613,1.1871633803257726,239,2026-10-07 22:16:51.281244,61.8,0.8896267187575574,0.24716086140357937,0.07470451641318021
0395,cdot_cos,P,T-P,240,48,35565,0.0508644287969912,-0.004089883465010577,0.23819817845508906,0.9999995955136447,763.0,8.047947700016344,0.6270287530933196,9.713893915971083,-0.2526087083882432,0.368,0.999999999999379,-178.85126122561533,1.1921311189607062,240,2026-10-07 22:16:51.649244,61.8,0.4391237887851174,0.15134085143375786,0.2542789049615685
0395,cdot_cos,Q,P-Q,241,48,35684,-0.018245134358525362,-0.015203341045743472,-0.06910956315551656,0.013775790211725968,763.0,8.065759929645733,0.6270447553815566,9.734358776676498,-0.04841874793331318,0.119,0.9999999999993647,12760.047652651047,1.1970984065521186,241,2026-10-07 22:16:51.768243,61.8,0.014740340394342456,0.4666589981299114,0.1496826019276349
0395,cdot_cos,R,Q-R,242,48,35715,0.056931676168847624,0.14329463910828943,0.07517681052737299,0.9904906687369468,763.0,8.159012541571263,0.6281946020621598,9.772421089446484,-0.2549141189985531,0.031,0.999999999999365,-179.5851347389246,1.2020655337373793,242,2026-10-07 22:16:51.799244,61.8,0.44483200404687423,1.8235890279860651,3.008148771791302
0395,cdot_cos,S,R-S,243,48,35741,0.004799776019494766,-0.12037567182840611,-0.05213190014935286,0.038355333175437614,763.0,8.178822449380869,0.6282390991487824,9.793284859455332,-0.054526817043677185,0.026,0.9999999999993527,4503.380269691939,1.2070326524722987,243,2026-10-07 22:16:51.825243,61.8,0.025348824723366848,0.7043459766661405,0.7619195311386798
0395,cdot_cos,T,S-T,244,48,35957,-0.152857288555858,-0.012500554448830197,-0.15765706457535278,5.868858689844773e-05,763.0,8.195638532357902,0.6282391672333753,9.813416015562003,-0.046390071156923236,0.216,0.9999999999993399,119509.35660857437,1.21200012489965,244,2026-10-07 22:16:52.041243,61.8,0.8391226182205844,0.2577345239350221,0.07785223600478533
0395,cdot_cos,P,T-P,245,49,36328,0.041848003688966705,-0.004288937135612318,0.19470529224482472,0.9999940540069767,746.0,8.290163763720798,0.6293985187993251,9.851651734507644,-0.2622014439491408,0.371,0.9999999999993404,-186.1483428587174,1.2169678910208157,245,2026-10-07 22:16:52.412243,61.8,0.43907954243018327,0.15172853317642138,0.254784990196485
0395,cdot_cos,Q,P-Q,246,49,36443,-0.026056208873277566,-0.02183020700633017,-0.06790421256224427,0.014825350662778203,746.0,8.308221103974807,0.6294156955193918,9.872006282613418,-0.05042997255306817,0.115,0.9999999999993259,12328.981934460393,1.221935176164404,246,2026-10-07 22:16:52.527244,61.8,0.015005813268661886,0.48882009467858906,0.15702035003485856
0395,cdot_cos,R,Q-R,247,49,36475,0.0536278362694648,0.13878075796765263,0.07968404514274237,0.9927858742352327,746.0,8.402592385496874,0.6305651949513535,9.910116823608204,-0.2650022837259457,0.032,0.9999999999993264,-186.66586968789292,1.226902304503649,247,2026-10-07 22:16:52.559244,61.8,0.44499160740585264,1.7989047758925625,2.949102547564586
0395,cdot_cos,S,R-S,248,49,36504,0.005342202070053449,-0.12781910378005146,-0.048285634199411356,0.048151564145132705,746.0,8.423351009631931,0.6306209098280823,9.931034915919795,-0.05868987270568893,0.029,0.9999999999993139,3703.0039934355764,1.2318694279340772,248,2026-10-07 22:16:52.588243,61.8,0.029738929863970837,0.6504568529644867,0.7158146253468015
0395,cdot_cos,T,S-T,249,49,36734,-0.16260703422806624,-0.023901803808262144,-0.1679492362981197,3.1069190999366676e-05,746.0,8.440318882968814,0.6306209457762819,9.951037578705362,-0.04808002730214413,0.23,0.9999999999993002,295142.6082534119,1.236836939199802,249,2026-10-07 22:16:52.818244,61.8,0.8019808604595703,0.24442814389405745,0.07377336233427385
0395,cdot_cos,P,T-P,250,50,37074,0.03948904816419914,-0.0032902182293100915,0.2020960823922654,0.999996234167696,762.0,8.535787955823197,0.6317772256862677,9.98928206149441,-0.2719692353093315,0.34,0.9999999999993009,-193.62890081687797,1.2418046674126633,250,2026-10-07 22:16:53.158243,61.8,0.4390178533932233,0.16711971778007317,0.2807913907481866
0395,cdot_cos,Q,P-Q,251,50,37185,-0.02912987442828748,-0.022801639627548612,-0.06861892259248661,0.014193871610172803,762.0,8.553960291059264,0.6317936269753855,10.009500722765281,-0.05211436811785555,0.111,0.9999999999992865,13404.730909373186,1.2467719498172287,251,2026-10-07 22:16:53.269243,61.8,0.01471777013538233,0.5118640395938953,0.1637147318564533
0395,cdot_cos,R,Q-R,252,50,37224,0.055788251137271046,0.14186902211575583,0.08491812556555853,0.9947691669036786,762.0,8.649421772613042,0.6329423406286016,10.047655444768338,-0.2752230480620783,0.039,0.9999999999992872,-194.22480034044594,1.2517390914633055,252,2026-10-07 22:16:53.308243,61.8,0.4445704303143745,1.4786896848369098,2.447730296250729
0395,cdot_cos,S,R-S,253,50,37250,0.0019144356040264128,-0.11991668959535551,-0.053873815533244634,0.03457619305196695,762.0,8.669298086476543,0.6329822405676107,10.068206174259744,-0.05768657441417654,0.026,0.9999999999992734,5452.050280033609,1.2567062081001852,253,2026-10-07 22:16:53.334244,61.8,0.023028862451321318,0.7114227381715539,0.7644736101346357
0395,cdot_cos,T,S-T,254,50,37472,-0.1728450539664506,-0.017199711207665985,-0.17475948957047702,2.0396303959853627e-05,762.0,8.686415754997963,0.6329822641038247,10.088084555512783,-0.04978634331010798,0.222,0.9999999999992595,335662.7822241964,1.261673716417275,254,2026-10-07 22:16:53.556243,61.8,0.8532670623796943,0.255674310235521,0.07710661496135257
0395,cdot_cos,P,T-P,255,51,37836,0.04393158962837773,-0.0027453864201694936,0.21677664359482834,0.9999984799967641,776.0,8.782817480221114,0.634135443305189,10.126338386023209,-0.2818417762626954,0.364,0.9999999999992611,-201.23102521971904,1.2666415136980513,255,2026-10-07 22:16:53.920243,61.8,0.43895710954436995,0.15944559068342384,0.2648399044592062
0395,cdot_cos,Q,P-Q,256,51,37943,-0.01173018545285173,-0.009546134066589997,-0.055661775081229464,0.03107156386758412,776.0,8.802492145015496,0.6341712499000229,10.14674764078106,-0.05790102567295071,0.107,0.9999999999992455,6254.176126726561,1.2716087927396484,256,2026-10-07 22:16:54.027244,61.8,0.02090749888615732,0.5399603653783773,0.1838753719101076
0395,cdot_cos,R,Q-R,257,51,37988,0.06011583274719179,0.14855488681840653,0.07184601820004352,0.9883425504284357,776.0,8.898368998412087,0.635309431531639,10.184792663073235,-0.28363664885005213,0.045,0.999999999999246,-198.33005287265928,1.2765759464895399,257,2026-10-07 22:16:54.072243,61.8,0.4511921514732669,1.2722170272234163,2.130596742146472
0395,cdot_cos,S,R-S,258,51,38014,-0.005891632586159855,-0.08567102134069202,-0.06600746533335164,0.016638437165174803,776.0,8.916991677465603,0.6353285795591752,10.204895760296651,-0.05544743039794125,0.026,0.999999999999232,11917.113552321462,1.2815430619769728,258,2026-10-07 22:16:54.098243,61.8,0.01631915722557369,0.6901329571194108,0.7162568866737009
0395,cdot_cos,T,S-T,259,51,38232,-0.26667097629390385,-0.04758453456772602,-0.26077934370774397,1.0019339773528332e-07,776.0,8.934255912182296,0.6353285796744798,10.224653553197241,-0.05150632564547847,0.218,0.9999999999992178,34179960.53157554,1.2865105744707435,259,2026-10-07 22:16:54.316243,61.8,0.926337252156398,0.26281761799994513,0.07919373723253734
0395,cdot_cos,P,T-P,260,52,38612,0.03936118961065728,-0.00392041061968803,0.3060321659045611,0.9999999938866311,752.0,9.03158015891358,0.6364786222730355,10.26291723883962,-0.2918277582823914,0.38,0.9999999999992185,-208.96741819712435,1.291478427502131,260,2026-10-07 22:16:54.696243,61.8,0.4388909226572959,0.1522009971727467,0.256116438766534
0395,cdot_cos,Q,P-Q,261,52,38723,-0.0314618502081151,-0.024612613123025567,-0.07082303981877239,0.012408788821312407,752.0,9.049928670033584,0.6364928831440503,10.282865298224532,-0.0553715265205786,0.111,0.9999999999992029,16580.7706638165,1.296445719279541,261,2026-10-07 22:16:54.807244,61.8,0.013976780965673756,0.5208650286762345,0.16530190198202319
0395,cdot_cos,R,Q-R,262,52,38760,0.0528199719367133,0.1372221804134215,0.0842818221448284,0.9945605152688893,752.0,9.147212195279703,0.6376351053342806,10.321033957313055,-0.2950564568269288,0.037,0.9999999999992039,-209.84089816887857,1.3014128560814948,262,2026-10-07 22:16:54.844243,61.8,0.44382016823377235,1.6135651033225593,2.6292844661113377
0395,cdot_cos,S,R-S,263,52,38788,0.00774437248152809,-0.12878555678217304,-0.04507559945518521,0.05810336025849332,752.0,9.169332487679453,0.6377017873725987,10.34179322323688,-0.06752470992587278,0.028,0.9999999999991903,3412.189438712289,1.306379974620872,263,2026-10-07 22:16:54.872243,61.8,0.034403149185417384,0.7060438297237237,0.7900104428482102
0395,cdot_cos,T,S-T,264,52,39010,-0.1598784221339743,-0.02325844481331625,-0.1676227946155024,3.170232898981459e-05,752.0,9.186750649744232,0.6377018237541758,10.361436353106,-0.05328570219065552,0.222,0.9999999999991753,391379.61782757094,1.3113475081238948,264,2026-10-07 22:16:55.094244,61.8,0.7655046074989831,0.2604965121900081,0.07846018948098488
0395,cdot_cos,P,T-P,265,53,39364,0.052256611456938114,-0.005510175621013836,0.2121350335909124,0.999997975012643,764.0,9.284992939091817,0.6388486341502176,10.399710572361109,-0.3020215433706477,0.354,0.9999999999991769,-216.89360511423558,1.3163153291719578,265,2026-10-07 22:16:55.448243,61.8,0.438862176794448,0.1656012084302848,0.2775205913773586
0395,cdot_cos,Q,P-Q,266,53,39481,-0.01198928562497236,-0.010078515504763722,-0.06424589708191047,0.018516618791142588,764.0,9.303996305312873,0.6388698543713914,10.419660500667295,-0.05879047577598852,0.117,0.99999999999916,11462.230558420599,1.321282639015533,266,2026-10-07 22:16:55.565243,61.8,0.015966652980919566,0.499271213477523,0.16242193351330508
0395,cdot_cos,R,Q-R,267,53,39512,0.06239446816454328,0.14918874356137732,0.07438375378951564,0.9900177660863589,764.0,9.401822403045557,0.6400036331100265,10.457754092428313,-0.3041279426894498,0.031,0.999999999999161,-216.38919354654422,1.3262497623551222,267,2026-10-07 22:16:55.596244,61.8,0.44633225693610695,1.8800033246549563,3.1556805720220544
0395,cdot_cos,S,R-S,268,53,39540,-0.006367087923698208,-0.09191451580285935,-0.06876155608824149,0.014071058763915663,764.0,9.42055651144148,0.6400197362148045,10.477583208119956,-0.05860357693395514,0.028,0.9999999999991454,15247.02031943779,1.3312168799633604,268,2026-10-07 22:16:55.624243,61.8,0.015152649741961389,0.6480983629280386,0.6690752998544143
0395,cdot_cos,T,S-T,269,53,39769,-0.2200199084375136,-0.03998170669550199,-0.2136528205138154,1.8436815343916703e-06,764.0,9.438115911369527,0.6400197383247171,10.49711276002566,-0.055034799253838265,0.229,0.9999999999991309,1691433.8203231734,1.3361844416724247,269,2026-10-07 22:16:55.853244,61.8,0.9372119346505234,0.25481469482325775,0.07667860230588017
0395,cdot_cos,P,T-P,270,54,40128,0.04265801782782305,-0.004704486849771889,0.26267792626533665,0.9999999108990583,779.0,9.537261641670533,0.6411633424518529,10.535397477424533,-0.31222971993425686,0.359,0.9999999999991321,-224.89855936824972,1.3411522959550262,270,2026-10-07 22:16:56.212243,61.8,0.4387891872642074,0.16420833047989333,0.27617195069917966
0395,cdot_cos,Q,P-Q,271,54,40239,-0.026698802684584723,-0.0201876990526905,-0.06935682051240777,0.013569724033277513,779.0,9.55601749265409,0.641178849848835,10.555144952739433,-0.05943182185179692,0.111,0.9999999999991156,16301.76220899754,1.3461195975774225,271,2026-10-07 22:16:56.323244,61.8,0.014213285727243848,0.5313030525800669,0.16897163048250377
0395,cdot_cos,R,Q-R,272,54,40275,0.06189621984197586,0.13784227588789863,0.08859502252656058,0.995827972485573,779.0,9.655210919343308,0.6423160686164023,10.593356985608628,-0.31581339593983015,0.036,0.9999999999991165,-225.44613349678303,1.3510867314207773,272,2026-10-07 22:16:56.359244,61.8,0.44405205312751694,1.644788224771062,2.7553729635893593
0395,cdot_cos,S,R-S,273,54,40302,-0.0025744718118077916,-0.12142119411829692,-0.06447069165378365,0.018265825042453877,779.0,9.674442244837607,0.6423369129702609,10.613156601430251,-0.06160483534976352,0.027,0.9999999999991009,12195.559637661112,1.3560538457032707,273,2026-10-07 22:16:56.386244,61.8,0.016140261107828287,0.6839988675790749,0.7122713146036856
0395,cdot_cos,T,S-T,274,54,40511,-0.1736375230368265,-0.0024175754960713393,-0.17106305122501872,2.5630636168010608e-05,779.0,9.692146858192578,0.6423369422187147,10.632577320523204,-0.05682260155338309,0.209,0.9999999999990852,163503.81513580593,1.3610213751982279,274,2026-10-07 22:16:56.595244,61.8,0.9192834526922818,0.2816891200452913,0.08471106868406954
0395,cdot_cos,P,T-P,275,55,40907,0.04546422062869026,-0.004908157830169871,0.21910174366551677,0.9999986834410419,759.0,9.792188297016539,0.6434772842053156,10.670872704850266,-0.3225746564739659,0.396,0.9999999999990871,-233.04592661078968,1.3659893374487833,275,2026-10-07 22:16:56.991244,61.8,0.4387407158375988,0.150066102070094,0.25262989602010405
0395,cdot_cos,Q,P-Q,276,55,41019,-0.02539122006113017,-0.020300862452488112,-0.07085544068982043,0.01238427405184102,759.0,9.810999211032092,0.643491396371489,10.690491395298597,-0.061023045543072335,0.112,0.9999999999990694,18533.76779417046,1.3709566461558584,276,2026-10-07 22:16:57.103244,61.8,0.013758313056157172,0.5298872192471509,0.16795458942458247
0395,cdot_cos,R,Q-R,277,55,41055,0.05580337667850476,0.13993710772257273,0.08119459673963493,0.9934246217221495,759.0,9.9108830341279,0.6446226134095256,10.728667957001543,-0.3255240877368854,0.036,0.9999999999990706,-233.81988893385486,1.375923779367092,277,2026-10-07 22:16:57.139244,61.8,0.443729969557153,1.6759988102019483,2.7745506415502383
0395,cdot_cos,S,R-S,278,55,41082,0.0022255353425064644,-0.12142166345367043,-0.0535778413359983,0.03519199114496957,759.0,9.931671125366632,0.6446626571575552,10.74868399206833,-0.0681600738822021,0.027,0.999999999999055,6427.071054003732,1.3808908923863332,278,2026-10-07 22:16:57.166244,61.8,0.02291699756319506,0.7154674269342004,0.7699293051382115
0395,cdot_cos,T,S-T,279,55,41307,-0.1914501326242669,-0.025196051573379133,-0.19367566796677338,6.336635446810224e-06,759.0,9.949518275182347,0.6446626643676109,10.767998910594406,-0.05863124761781986,0.225,0.9999999999990389,1321602.3161183079,1.3858584715349997,279,2026-10-07 22:16:57.391244,61.8,0.849997989701425,0.2639524812431028,0.07932066584762272
0395,cdot_cos,P,T-P,280,56,41666,0.04482566813639376,-0.003220893394705891,0.23627580076066068,0.9999995444885313,762.0,10.050449741926029,0.6457996810861143,10.806305191281355,-0.33307876106735224,0.359,0.9999999999990402,-241.37509060620582,1.3908263716589433,280,2026-10-07 22:16:57.750243,61.8,0.43868580799514384,0.1679886250790126,0.2811461469183319
0395,cdot_cos,Q,P-Q,281,56,41777,-0.01730942800613558,-0.014459908024614766,-0.06213509614252934,0.02104239877802168,762.0,10.070134107989078,0.6458235890139833,10.825985974975277,-0.06534916794207848,0.111,0.9999999999990228,11198.360418030845,1.395793683125858,281,2026-10-07 22:16:57.861243,61.8,0.016623981087931457,0.5412910501093434,0.17733663119864781
0395,cdot_cos,R,Q-R,282,56,41815,0.05706852348930783,0.14417314020899136,0.0743779514954434,0.990014221747353,762.0,10.170616355050303,0.6469475967799649,10.86410752367945,-0.3350954235227484,0.038,0.9999999999990243,-239.9861137481445,1.400760820735591,282,2026-10-07 22:16:57.899244,61.8,0.4470953453066818,1.58398620689065,2.6442696595059036
0395,cdot_cos,S,R-S,283,56,41844,-0.003927260593933045,-0.09410250704731145,-0.06099578408324088,0.022542785124241745,762.0,10.190517059712768,0.6469731717560148,10.883783310649344,-0.06675885801714293,0.029,0.9999999999990081,10492.153149345548,1.405727937506191,283,2026-10-07 22:16:57.928244,61.8,0.01796212240044395,0.6532630725228533,0.6862311952574163
0395,cdot_cos,T,S-T,284,56,42065,-0.24030310389052534,-0.08910024130470563,-0.23637584329659228,4.527038996067797e-07,762.0,10.208505613256628,0.6469731722696028,10.902995648924302,-0.06045665712102141,0.221,0.9999999999989914,12270925.621277554,1.4106955203826523,284,2026-10-07 22:16:58.149244,61.8,0.9010060641621984,0.2710431736010136,0.08139616988172135
0395,cdot_cos,P,T-P,285,57,42428,0.039933239930202376,-0.002817942242391713,0.2802363438207277,0.9999999698959487,777.0,10.310318142444416,0.648106831886898,10.941312696219471,-0.34368089240959304,0.363,0.9999999999989931,-249.83181103718294,1.4156634536777428,285,2026-10-07 22:16:58.512243,61.8,0.43863365045049924,0.16705328177756804,0.2804752870186986
0395,cdot_cos,Q,P-Q,286,57,42538,-0.02611001687025667,-0.020494298028463795,-0.06604325680045904,0.01660228540234669,777.0,10.329786295827143,0.6481256391907085,10.960809481893211,-0.06610403862916851,0.11,0.9999999999989748,14758.992388097511,1.4206307677277856,286,2026-10-07 22:16:58.622243,61.8,0.015009218513298355,0.5508058121435027,0.1769832125702435
0395,cdot_cos,R,Q-R,287,57,42579,0.05729319226498539,0.1385308346043056,0.08340320913524206,0.9942587374221348,777.0,10.431495421115986,0.6492511101877019,10.99902173853045,-0.3468704806889832,0.041,0.9999999999989765,-249.4657284015969,1.4255979124630096,287,2026-10-07 22:16:58.663244,61.8,0.44511290244203033,1.4948929925127572,2.480710372898629
0395,cdot_cos,S,R-S,288,57,42605,0.0022292218125666667,-0.12263899178655532,-0.05506397045241872,0.03220329186022732,777.0,10.452367521213189,0.6492875356807998,11.018785291503768,-0.07159946014474343,0.026,0.99999999999896,7557.097986412467,1.4305650207386214,288,2026-10-07 22:16:58.689243,61.8,0.021395036698656,0.7501246857948456,0.8027730806616272
0395,cdot_cos,T,S-T,289,57,42825,-0.1601377716966188,-0.006750804741289231,-0.16236699350918546,4.386805988760497e-05,777.0,10.470501904777318,0.6492875852992522,11.037899378285415,-0.062324215973589364,0.22,0.9999999999989434,186931.34734558658,1.4355326144752865,289,2026-10-07 22:16:58.909244,61.8,0.8617220771846213,0.2745943193655943,0.08242901620058939
0395,cdot_cos,P,T-P,290,58,43205,0.04380613236411965,-0.0038784926347349502,0.20394390406073845,0.999996640561229,757.0,10.57318902173405,0.6504178248455267,11.076227009573751,-0.35442458503698127,0.38,0.9999999999989452,-258.44111544869213,1.4405006146572779,290,2026-10-07 22:16:59.289243,61.8,0.438605983251358,0.1604922995895325,0.2702292551492943
0395,cdot_cos,Q,P-Q,291,58,43315,-0.026701006879303175,-0.022207484291872286,-0.07050713924342282,0.012650326817996226,757.0,10.592476052465363,0.6504321120049305,11.095551507233962,-0.06695381376196133,0.11,0.9999999999989265,20120.918592059006,1.4454679336395542,291,2026-10-07 22:16:59.399244,61.8,0.013656109375214656,0.5536504236233177,0.1753366430119353
0395,cdot_cos,R,Q-R,292,58,43355,0.0548139251345496,0.14171318411863323,0.08151493201385278,0.9935526816257525,757.0,10.69499211493118,0.6515533756936385,11.133759876274945,-0.35739331740099456,0.04,0.9999999999989282,-259.02872496807026,1.4504350755894349,292,2026-10-07 22:16:59.439244,61.8,0.4436760054382839,1.599835990081555,2.5629015616454254
0395,cdot_cos,S,R-S,293,58,43381,0.016230636008647888,-0.14582490425798103,-0.03858328912590171,0.08436638444211848,757.0,10.720462931671888,0.6516485094500574,11.154436660379613,-0.08931937929711904,0.026,0.999999999998912,2817.8634818484516,1.4554021825563441,293,2026-10-07 22:16:59.465244,61.8,0.04972256257479078,0.8415134543775857,0.9796467977195151
0395,cdot_cos,T,S-T,294,58,43603,-0.13150122035728626,-0.015367454956293058,-0.14773185636593414,0.00010837240132597569,757.0,10.738750814558815,0.6516486316458563,11.173457400964885,-0.06426178563577922,0.222,0.9999999999988946,205061.00767785922,1.4603697951276327,294,2026-10-07 22:16:59.687244,61.8,0.6771043166219229,0.27443117697200403,0.08237785084201381
0395,cdot_cos,P,T-P,295,59,43962,0.03931104416248626,-0.0037594484841019515,0.17081226451977252,0.9999739690405077,760.0,10.842310374247457,0.6527753058228847,11.21179514251255,-0.3654109390237282,0.359,0.9999999999988969,-267.29036621948035,1.4653377668524645,295,2026-10-07 22:17:00.046243,61.8,0.43861277834481605,0.1709575451562967,0.28846674007978473
0395,cdot_cos,Q,P-Q,296,59,44075,-0.03560814502910329,-0.02825607793101571,-0.07491918919158955,0.009660466657259217,760.0,10.861498331981036,0.652786181987637,11.230969487878225,-0.06808903606906715,0.113,0.999999999998878,27337.01720450987,1.4703050990312618,296,2026-10-07 22:17:00.159244,61.8,0.012693522972485195,0.5432402145679965,0.16980493569538307
0395,cdot_cos,R,Q-R,297,59,44111,0.05332687741554494,0.1362850626821593,0.08893502244464824,0.9959143661193437,760.0,10.965082662739825,0.6539065674885033,11.269233136880644,-0.3690906591713161,0.036,0.9999999999988796,-268.6589775300788,1.4752722303557897,297,2026-10-07 22:17:00.195244,61.8,0.4424082453594709,1.761027506494786,2.87734252107747
0395,cdot_cos,S,R-S,298,59,44140,0.007488431577102575,-0.13056759419736932,-0.04583844583844236,0.05557641001352399,760.0,10.98829231244866,0.6539690398075457,11.28926739733645,-0.08317378982466424,0.029,0.9999999999988629,4576.696907192135,1.4802393441377768,298,2026-10-07 22:17:00.224244,61.8,0.03214225490629629,0.7178489350802812,0.8003327485805398
0395,cdot_cos,T,S-T,299,59,44364,-0.1525229544404339,-0.01602125264771951,-0.16001138601753648,5.074211105679766e-05,760.0,11.00671790097448,0.6539690968433008,11.308194229578222,-0.06615492664217794,0.224,0.9999999999988454,298389.3725440451,1.4852069758914879,299,2026-10-07 22:17:00.448243,61.8,0.7731689551831274,0.27421806119571585,0.08225709163312793
0395,cdot_cos,P,T-P,300,60,44722,0.04249027645851268,-0.003706334644972355,0.19501323089894657,0.9999941660922754,779.0,11.111142003864341,0.6550922609284352,11.346542375336439,-0.37643801830917034,0.358,0.9999999999988471,-276.258024783508,1.4901749694009174,300,2026-10-07 22:17:00.806243,61.8,0.4385590677105796,0.1736177532094131,0.2916874382398325
0395,cdot_cos,Q,P-Q,301,60,44833,-0.024124539963230846,-0.018821009542272865,-0.06661481642174352,0.016035328803345735,779.0,11.13102821227242,0.655110257279109,11.365750036266594,-0.07208889011348915,0.111,0.9999999999988279,16911.713586409078,1.495142301703845,301,2026-10-07 22:17:00.917243,61.8,0.01467134537808994,0.5594082909429889,0.1791550307034212
0395,cdot_cos,R,Q-R,302,60,44872,0.05938755967475283,0.14062958049620652,0.08351209963798367,0.9942970235608826,779.0,11.235330644453684,0.6562252804721456,11.403991439187129,-0.37963025913178583,0.039,0.9999999999988295,-275.8161183901109,1.5001094407504494,302,2026-10-07 22:17:00.956243,61.8,0.44481018929205657,1.6051981818573169,2.674421337981123
0395,cdot_cos,S,R-S,303,60,44899,0.0012593163613102557,-0.1179667491117123,-0.058128243313442574,0.02679640842677518,779.0,11.256233670457291,0.6562553067145004,11.423379272955778,-0.07650364915425133,0.027,0.999999999998812,10095.389439527476,1.5050765480763715,303,2026-10-07 22:17:00.983244,61.8,0.01902026400883235,0.7308734274822699,0.7741861482817385
0395,cdot_cos,T,S-T,304,60,45122,-0.15709951492961594,-0.0037306994870008837,-0.15835883129092618,5.6197854766196785e-05,779.0,11.274797809537727,0.656255369684702,11.44221528822845,-0.06806270789852882,0.223,0.9999999999987943,134046.59728082878,1.5100441910555833,304,2026-10-07 22:17:01.206244,61.8,0.88336471439881,0.2776700260794034,0.08324726045038403
0395,cdot_cos,P,T-P,305,61,45501,0.05000560848378713,-0.004864227706280727,0.20710512341340306,0.9999972367399292,767.0,11.380074502088705,0.6573750042364714,11.480572982535652,-0.3874987247851867,0.379,0.9999999999987961,-285.30382202105926,1.5150122666589882,305,2026-10-07 22:17:01.585243,61.8,0.4385183046887858,0.16551046734139255,0.2777749143825284
0395,cdot_cos,Q,P-Q,306,61,45612,-0.014979094799212776,-0.01202568282136654,-0.0649847032829999,0.017704824731068394,767.0,11.400254743782503,0.6573948114956972,11.499724967173233,-0.07468804269788694,0.111,0.999999999998776,15792.72924746704,1.5199796040800997,306,2026-10-07 22:17:01.696243,61.8,0.015173121393281851,0.5628495280374695,0.18180397922339897
0395,cdot_cos,R,Q-R,307,61,45651,0.05934540717026697,0.1489507905652983,0.07432450196947975,0.9899815133843103,767.0,11.505027097313024,0.658501478475829,11.537890450246993,-0.38928897728335304,0.039,0.9999999999987781,-284.277872416522,1.5249467427070025,307,2026-10-07 22:17:01.735244,61.8,0.4456851954862327,1.6041857670301076,2.6864706033466907
0395,cdot_cos,S,R-S,308,61,45678,-0.004723499525309851,-0.09041873702201111,-0.06406890669557683,0.01871645384760269,767.0,11.525381233610851,0.6585223843958552,11.557033416006897,-0.07603816140676127,0.027,0.9999999999987597,14983.83307137191,1.5299138486889927,308,2026-10-07 22:17:01.762244,61.8,0.016250157369388073,0.723136287132037,0.7538568999195353
0395,cdot_cos,T,S-T,309,61,45900,-0.20269684145556668,-0.013805333620884049,-0.19797334193025684,4.858613786194863e-06,767.0,11.544076456818154,0.6585223898227537,11.575779709033453,-0.06995928501033076,0.222,0.9999999999987416,1120138.217426599,1.5348815025964215,309,2026-10-07 22:17:01.984244,61.8,0.9167764401565109,0.28111734656861603,0.08421271715001147
0395,cdot_cos,P,T-P,310,62,46268,0.04775158509114833,-0.003577801617691184,0.250448426546715,0.9999998102793197,765.0,11.650197335487317,0.6596384728630805,11.614146420587465,-0.3986320706933914,0.368,0.9999999999987437,-294.4877520823266,1.5398495729138253,310,2026-10-07 22:17:02.352243,61.8,0.43845345708061934,0.1721170370357205,0.2883719529053342
0395,cdot_cos,Q,P-Q,311,62,46389,-0.014955948706801071,-0.0128982724272008,-0.0627075337979494,0.020325868970515464,765.0,11.670754596076444,0.6596611399180289,11.633263855808242,-0.07764052434628316,0.121,0.9999999999987232,14161.149169067394,1.5448169440280446,311,2026-10-07 22:17:02.473243,61.8,0.016013391059459044,0.5206935907427761,0.1698947156126225
0395,cdot_cos,R,Q-R,312,62,46419,0.05669367351972808,0.14773431407972087,0.07164962222652915,0.9882018781518899,765.0,11.776205184447068,0.6607622824928081,11.671401944169716,-0.3997873873854768,0.03,0.9999999999987251,-292.55690445334324,1.549784056431514,312,2026-10-07 22:17:02.503244,61.8,0.4467324259351528,2.1063115130999974,3.5150196123541497
0395,cdot_cos,S,R-S,313,62,46449,-0.003565151567271098,-0.08854394699266087,-0.06025882508699918,0.023568457064356653,765.0,11.797133286862444,0.6607885234026935,11.69055538452813,-0.07976795728971182,0.03,0.9999999999987065,12195.439544361834,1.5547511698138707,313,2026-10-07 22:17:02.533243,61.8,0.018099346098595988,0.6626378889186787,0.697603413845845
0395,cdot_cos,T,S-T,314,62,46679,-0.2882613154458066,-0.19891052592992958,-0.28469616387853547,2.2852097019254207e-08,765.0,11.815963457782189,0.6607885234281361,11.709215486917854,-0.07189269776076969,0.23,0.9999999999986875,309529870.18191755,1.559718860702982,314,2026-10-07 22:17:02.763244,61.8,0.8962446505681231,0.2734547980875907,0.081870308346719
0395,cdot_cos,P,T-P,315,63,47033,0.06158294592577774,-0.0058993253024426625,0.3498442613715843,0.9999999995922535,786.0,11.922922493982735,0.6619010027728992,11.74759060923936,-0.4098820453945455,0.354,0.9999999999986906,-303.8162903651464,1.564686915594968,315,2026-10-07 22:17:03.117243,61.8,0.43840966585884,0.18014784538592504,0.3021441700580406
0395,cdot_cos,Q,P-Q,316,63,47151,-0.0022729086953699744,-0.0026450171963020063,-0.06385585462114772,0.018959812527027373,786.0,11.943508132315424,0.6619220779325433,11.766597722349989,-0.0793085468710883,0.118,0.9999999999986695,15685.456438086865,1.5696542840301626,316,2026-10-07 22:17:03.235244,61.8,0.015480174688984232,0.5371152152413271,0.1744545621414285
0395,cdot_cos,R,Q-R,317,63,47182,0.06782265445150484,0.1525616723287263,0.07009556314687482,0.9870280074658067,786.0,12.049681684779689,0.6630183394979564,11.804719476752371,-0.4105634577408117,0.031,0.9999999999986715,-302.1677684603493,1.5746213983959785,317,2026-10-07 22:17:03.266243,61.8,0.44627050788818357,2.0314141611514116,3.424953305298859
0395,cdot_cos,S,R-S,318,63,47209,-0.008539260786033898,-0.0743368605747351,-0.07636191523753874,0.008843704720845384,786.0,12.069455810306811,0.6630281540270245,11.823499250846746,-0.0768650955572717,0.027,0.9999999999986521,34000.44565230239,1.5795885018953777,318,2026-10-07 22:17:03.293243,61.8,0.013018927284775092,0.7173385769997088,0.7323750195230695
0395,cdot_cos,T,S-T,319,63,47420,-0.3299516501506883,-0.07931402739373038,-0.3214123893646544,2.3631138370600957e-09,786.0,12.088417967937673,0.6630281540296471,11.842075048785281,-0.07382723285814895,0.211,0.9999999999986332,1158353849.7817235,1.5845561510791164,319,2026-10-07 22:17:03.504243,61.8,0.9596868293868297,0.3003561854858153,0.08986804564389289
0395,cdot_cos,P,T-P,320,64,47819,0.05177263216050388,-0.00451482135453539,0.38172428231119215,0.9999999999431475,778.0,12.196206120581826,0.664137021612367,11.880457928560146,-0.4211786789833871,0.399,0.9999999999986355,-313.24880584319834,1.5895243647756356,320,2026-10-07 22:17:03.903244,61.8,0.43836087321160705,0.16103029997127982,0.2701457459753199
0395,cdot_cos,Q,P-Q,321,64,47930,-0.012244808586783127,-0.010199165040672762,-0.064017440747287,0.018774958645817068,778.0,12.216920147314754,0.66415782330624,11.899379683997944,-0.08136524963636327,0.111,0.9999999999986139,16335.853773356394,1.5944917178272646,321,2026-10-07 22:17:04.014244,61.8,0.015353756783345975,0.5764757593779997,0.18661285344980774
0395,cdot_cos,R,Q-R,322,64,47970,0.06225358678248579,0.14965644676498485,0.07449839536926892,0.99008754021594,778.0,12.324183739163741,0.6652538857927531,11.937568305885648,-0.42285699536079296,0.04,0.9999999999986164,-311.5622967909374,1.599458858321686,322,2026-10-07 22:17:04.054244,61.8,0.44593498425695727,1.5970932845885244,2.6815897962246815
0395,cdot_cos,S,R-S,323,64,47995,-0.004941912197490647,-0.08956200324678994,-0.06719549897997644,0.015478834271204785,778.0,12.344687610081836,0.6652710073093498,11.956398237854927,-0.0812496644426217,0.025,0.9999999999985968,19951.931768920516,1.6044259542647104,323,2026-10-07 22:17:04.079243,61.8,0.01492951305804932,0.7919771183625457,0.8201548367237876
0395,cdot_cos,T,S-T,324,64,48219,-0.20348870495153432,-0.007553099935409731,-0.19854679275404366,4.689444239092169e-06,778.0,12.363782595081869,0.6652710124963928,11.974892364342905,-0.0757882094506034,0.224,0.9999999999985768,1052903.3768695851,1.6093936560461022,324,2026-10-07 22:17:04.303244,61.8,0.9304731427748257,0.2850610505384456,0.0852454687501455
0395,cdot_cos,P,T-P,325,65,48597,0.043752097046525516,-0.004711465279702559,0.24724080199805984,0.9999997686841617,762.0,12.47239496072306,0.666376213039786,12.013282330524811,-0.4325981326941069,0.378,0.9999999999985792,-322.8463154279729,1.61436183323831,325,2026-10-07 22:17:04.681243,61.8,0.4383196253628311,0.1706764101495517,0.2873343006380715
0395,cdot_cos,Q,P-Q,326,65,48707,-0.025244219491609623,-0.020314673359086263,-0.06899631653813514,0.013871198147476201,762.0,12.49281396115493,0.6663915306856784,12.032026989250943,-0.0817486765830231,0.11,0.999999999998558,22904.920153964922,1.619329188442983,326,2026-10-07 22:17:04.791244,61.8,0.01368019729881136,0.5855813115449057,0.18562727665336418
0395,cdot_cos,R,Q-R,327,65,48745,0.05684644955355031,0.13992563785151985,0.08209066904515994,0.9937766451187682,762.0,12.601222849262939,0.6674880200313902,12.070294895926002,-0.43554225716845185,0.038,0.99999999999856,-322.6602994083364,1.624296322374457,327,2026-10-07 22:17:04.829243,61.8,0.44383341373171226,1.7309365267083452,2.8528654765265578
0395,cdot_cos,S,R-S,328,65,48774,0.006733560953503376,-0.1276731348849051,-0.05011288860004694,0.043232143139363216,762.0,12.624365137184764,0.6675356794182634,12.089600054285958,-0.09345694325484812,0.029,0.9999999999985407,7177.711178356075,1.6292634293020452,328,2026-10-07 22:17:04.858243,61.8,0.025723455166584225,0.7305696378980973,0.7980099283387946
0395,cdot_cos,T,S-T,329,65,48998,-0.17765906570664125,-0.019117477950232862,-0.18439262666014464,1.124625274748347e-05,762.0,12.643595888261029,0.6675356918157572,12.10801550544911,-0.07779120660829836,0.224,0.9999999999985202,1263621.2518023313,1.6342311455725334,329,2026-10-07 22:17:05.082243,61.8,0.8176001760851725,0.2871978171259472,0.08585156730475266
0395,cdot_cos,P,T-P,330,66,49359,0.04071504342482356,-0.003804429590055467,0.21837410913146482,0.9999986228870583,775.0,12.753029759257188,0.6686371380606914,12.146411695369611,-0.4441873670246275,0.361,0.9999999999985235,-332.650060864513,1.6391992962685022,330,2026-10-07 22:17:05.443244,61.8,0.4382926308064353,0.17964400306381226,0.3031409168868691
0395,cdot_cos,Q,P-Q,331,66,49466,-0.03265873948954156,-0.025369541468457293,-0.07337378291436511,0.010618315661538416,775.0,12.773298858473101,0.6686488237041427,12.165014334241082,-0.08269017729348568,0.107,0.9999999999985009,30935.154853621578,1.6441666474510481,331,2026-10-07 22:17:05.550244,61.8,0.012629668999542218,0.6060285927362831,0.18943083379357653
0395,cdot_cos,R,Q-R,332,66,49510,0.056472561487768726,0.1374923918751149,0.08913130097731028,0.9959634267106642,775.0,12.882719878102753,0.6697439733120845,12.203331238945765,-0.44791300280592944,0.044,0.9999999999985042,-333.4912626219586,1.6491338001794185,332,2026-10-07 22:17:05.594244,61.8,0.4424676778818695,1.511179743099697,2.4868413552193616
0395,cdot_cos,S,R-S,333,66,49537,0.0074358680716045825,-0.13725386069073,-0.049036693416164144,0.046068271196783,775.0,12.906282675865874,0.6697945850376937,12.222619504598029,-0.09694639587427578,0.027,0.9999999999984842,6934.492011616961,1.654100899616281,333,2026-10-07 22:17:05.621243,61.8,0.026776971206670837,0.7951778867055986,0.8726962134489417
0395,cdot_cos,T,S-T,334,66,49754,-0.1362670031803609,-0.006391424784111629,-0.14370287125196549,0.00013900836296925568,775.0,12.925659483984855,0.6697947377497186,12.240960800525176,-0.07985636955820137,0.217,0.9999999999984636,111910.1545909115,1.659068608224429,334,2026-10-07 22:17:05.838243,61.8,0.8073406687933227,0.2986751837058763,0.0892940466312484
0395,cdot_cos,P,T-P,335,67,50134,0.04205775998295767,-0.004325728647258651,0.17832476316331855,0.9999836369812991,771.0,13.035907705594225,0.6708923732280203,12.279362067147751,-0.45586618067232515,0.38,0.9999999999984662,-342.5634635060379,1.6640368462319044,335,2026-10-07 22:17:06.218244,61.8,0.4383117012210129,0.1722315255376168,0.2901268989720248
0395,cdot_cos,Q,P-Q,336,67,50245,-0.027720577268521954,-0.02192444694328614,-0.06977833725147962,0.013225415391545588,771.0,13.056555443393444,0.6709068776952801,12.297942017157204,-0.08580510257729336,0.111,0.9999999999984439,25513.593258289082,1.6690042155381637,336,2026-10-07 22:17:06.329243,61.8,0.01339585842052929,0.5889778713103853,0.18601565584882304
0395,cdot_cos,R,Q-R,337,67,50284,0.05661045299567896,0.13830083228580412,0.08433103026420091,0.9945769423802189,771.0,13.16666079302513,0.6719967072023699,12.336235576961762,-0.4590751505514297,0.039,0.9999999999984467,-342.5031581048752,1.6739713519247248,337,2026-10-07 22:17:06.368243,61.8,0.4434849640987242,1.697867965551503,2.823214093120158
0395,cdot_cos,S,R-S,338,67,50310,0.0007730148411963121,-0.1176080482786476,-0.05583743815448265,0.030746391017394004,771.0,13.188989144706461,0.6720303687919604,12.355143891166827,-0.09356154709669018,0.026,0.9999999999984259,10858.477211005902,1.678938446721952,338,2026-10-07 22:17:06.394243,61.8,0.020107451558370425,0.8043919349658766,0.858782756974272
