record_id,input,event,transition,event_index,k,peak,value_cos,value_sin,value_return,x_input,rr,knowledge,decision,decision_norm,entropy,delta_t,cosine_similarity,delta_h_over_delta_d,frobenius_norm,matrix_size,timestamp,scale,P,zdot,zdot_back
1112,cdot_cos,Q,P-Q,1,0,1142,-0.0024192027068599456,-0.0026608376233139383,-0.02663011305635177,0.33944850536408205,937.0,0.001686088768328489,0.5004215220922202,0.5004215220922202,,,1.0,,0.004967141530112327,1,2026-10-07 19:31:17.226244,25.0,,,
1112,cdot_cos,R,Q-R,2,0,1164,0.09867345154754473,0.16146270837740812,0.10109265425440467,0.926034748885988,937.0,0.008889512298693263,0.5015714534327302,0.7093291519437523,-1.3738024046256312e-05,,1.0,,0.009934283060224654,2,2026-10-07 19:31:17.248243,25.0,,,
1112,cdot_cos,S,R-S,3,0,1223,-0.00019592190217630217,-0.0010592316583626024,-0.09886937344972103,0.0778636170660136,937.0,0.011557271884927488,0.5016681423191737,0.8689147110355031,-9.836745155048429e-06,0.059,1.0000000000000002,0.04034878293370779,0.014901424599289056,3,2026-10-07 19:31:17.307244,25.0,0.672601251472667,0.03897035868174749,0.04521626417346144
1112,cdot_cos,T,S-T,4,0,1434,-0.16930130354212042,0.08824897836273299,-0.16910538163994412,0.014377137170681403,937.0,0.013488014623139467,0.5016859954370988,1.0033719908754897,-8.720271932264007e-06,0.211,1.0000000000000002,0.06253659598658189,0.019868566165943867,4,2026-10-07 19:31:17.518244,25.0,0.8798252881779901,0.034432469490117794,0.009150439517592316
1112,cdot_cos,P,T-P,5,1,1954,0.01908703855378949,0.0016766405619603123,0.1883883420959099,0.9910730066355786,921.0,0.026087774009757196,0.5029166687165976,1.1245558582758106,-8.99210983748242e-05,0.52,0.9999999999999999,-0.06598081537581735,0.02483570789027548,5,2026-10-07 19:31:18.038244,25.0,0.40534242655138636,0.018872268055908283,0.024230306512726403
1112,cdot_cos,Q,P-Q,6,1,2081,-0.0016993287901965251,-0.0019603325477812114,-0.020786367343986017,0.37293193141284176,921.0,0.03311517340128408,0.5033797517449808,1.233023538651901,-7.502442463122121e-05,0.127,1.0,0.03216847267240758,0.029802849486523716,6,2026-10-07 19:31:18.165244,25.0,0.8199124981848396,0.08586458019018015,0.05533385347658964
1112,cdot_cos,R,Q-R,7,1,2103,0.09761085955556259,0.16666496885697396,0.09931018834575911,0.9229239833393975,921.0,0.047897377378062954,0.504525753128666,1.3348496728512556,-0.0002159436641631172,0.022,0.9999999999999998,-0.12296602913231057,0.034769991003332494,7,2026-10-07 19:31:18.187244,25.0,0.5207037134345693,0.4366161666131624,0.6719183625808579
1112,cdot_cos,S,R-S,8,1,2162,-0.00016437964080308535,-0.0011225586933288642,-0.09777523919636567,0.07985042950502262,921.0,0.05232628473226322,0.5046249019216202,1.4272947604661579,-8.004132250861239e-05,0.059,0.9999999999999998,1.3706908334951926,0.03973713261097177,8,2026-10-07 19:31:18.246243,25.0,0.18306715048137673,0.06568272509203885,0.07506622634237745
1112,cdot_cos,T,S-T,9,1,2372,-0.18437287253811493,0.07531708076204607,-0.18420849289731184,0.00990057704563714,921.0,0.05564793893892354,0.5046371952587814,1.513911585848944,-6.467280597641054e-05,0.21,0.9999999999999999,1.2501500878700826,0.04470427452278255,9,2026-10-07 19:31:18.456243,25.0,0.7884905072760287,0.0522879135609095,0.015817400984096733
1112,cdot_cos,P,T-P,10,2,2875,0.027454998671351732,0.002521729296006202,0.21182787120946667,0.995011885899887,897.0,0.07428720842784521,0.5058726493657147,1.5997097781537062,-0.00043669695813368137,0.503,1.0,-0.301123408849806,0.04967141730718243,10,2026-10-07 19:31:18.959244,25.0,0.42660164759335695,0.027436757940198966,0.03705620176723991
1112,cdot_cos,Q,P-Q,11,2,3002,-0.0019783718338563664,-0.0023862725404472603,-0.029433370505208098,0.32391574665165024,897.0,0.0832493174267637,0.5062748238293084,1.6791236318851708,-0.0002545702407597645,0.127,0.9999999999999998,0.4528550016490194,0.0546385591159869,11,2026-10-07 19:31:19.086244,25.0,0.48898270713832176,0.1117081727821356,0.07056778739305894
1112,cdot_cos,R,Q-R,12,2,3024,0.092063700719284,0.17207044085838596,0.09404207255314037,0.9130177950188171,897.0,0.10266108431450766,0.507408383218835,1.757714200382286,-0.0006506657617902924,0.022,0.9999999999999999,-0.3494263509175037,0.0596057005584183,12,2026-10-07 19:31:19.108243,25.0,0.5440281926043851,0.5734276576028473,0.8823530403519981
1112,cdot_cos,S,R-S,13,2,3082,-6.745481205473782e-05,-0.0005639941909374278,-0.09213115553133874,0.09085176872720702,897.0,0.10848013436128898,0.5075211764704478,1.8298936256939289,-0.00022151920711479026,0.058,0.9999999999999997,3.8047183545034313,0.06457284224665924,13,2026-10-07 19:31:19.166244,25.0,0.14409416938367114,0.08567609813062795,0.10032844908243657
1112,cdot_cos,T,S-T,14,2,3292,-0.26550929267475654,0.04255733461602401,-0.2654418378627018,0.001310485903410336,897.0,0.1125995116976605,0.5075228034443845,1.89897644708441,-0.0001641975094271245,0.21,0.9999999999999998,35.23209339445809,0.06953998481845658,14,2026-10-07 19:31:19.376243,25.0,0.7053211032911105,0.06498320814909123,0.0196160825541501
1112,cdot_cos,P,T-P,15,3,3772,0.0177815352070016,0.0010998815572930037,0.28329082788175813,0.9991608408744045,1139.0,0.1357730817839073,0.508763217046464,1.9704314677466244,-0.001037642483766671,0.48,0.9999999999999998,-0.7041562369803576,0.07450712938814798,15,2026-10-07 19:31:19.856243,25.0,0.4309517810154543,0.036508798846083296,0.04827827101301415
1112,cdot_cos,Q,P-Q,16,3,3901,-0.002897285292834611,-0.0024383739240477335,-0.02067882049983621,0.3735609016196726,1139.0,0.14764795858990046,0.5092269493465387,2.03690779918504,-0.0006067332980451141,0.129,0.9999999999999998,0.9292196934571109,0.07947427160007241,16,2026-10-07 19:31:19.985244,25.0,0.4915400474635956,0.13754511387070076,0.09205330857359044
1112,cdot_cos,R,Q-R,17,3,3923,0.10121200800120463,0.1156258751073476,0.10410929329403924,0.9310372210352242,1139.0,0.1712597211625481,0.5103826526614278,2.104361588488345,-0.0013573461956228597,0.022,0.9999999999999999,-0.649485804797366,0.08444141293254553,17,2026-10-07 19:31:20.007244,25.0,0.5752213633338319,0.6844288775525018,1.073261935120347
1112,cdot_cos,S,R-S,18,3,3981,-0.0004577715263914595,-0.0010269424284540436,-0.10166977952759608,0.07298305944427956,1139.0,0.17776282920221054,0.5104732425366927,2.1657545505679328,-0.00040913668128311054,0.058,0.9999999999999999,10.467058394408053,0.08940855474226131,18,2026-10-07 19:31:20.065243,25.0,0.09851108782510236,0.1123412072762845,0.11212255240797322
1112,cdot_cos,T,S-T,19,3,4190,-0.10006596409121882,0.13228772930541638,-0.09960819256482736,0.07654771816173854,1139.0,0.1842913012065971,0.5105682562884196,2.2255154352089357,-0.00042606468552928024,0.209,0.9999999999999996,-0.1781637282866155,0.09437569833763766,19,2026-10-07 19:31:20.274244,25.0,0.9610478626101034,0.07797015346925641,0.03123670815495959
1112,cdot_cos,P,T-P,20,4,4911,0.02478503066880871,0.000705638825616583,0.12485099476002753,0.9577618319509287,1119.0,0.21035435335235972,0.5117569975853856,2.288646872190772,-0.00185386010586459,0.721,0.9999999999999994,-1.2010985266343839,0.09934284893646705,20,2026-10-07 19:31:20.995244,25.0,0.4629323694186754,0.026802897006408,0.036148477317285196
1112,cdot_cos,Q,P-Q,21,4,5041,-0.004496552812043424,-0.003925025173618643,-0.029281583480852132,0.3247473137567425,1119.0,0.22294107868983742,0.5121600333524923,2.3470121269151987,-0.0009829342576157232,0.13,0.9999999999999988,2.160914537439554,0.10430999157833708,21,2026-10-07 19:31:21.125243,25.0,0.41228233041584833,0.150879390127026,0.09682096413444388
1112,cdot_cos,R,Q-R,22,4,5063,0.09230533530410741,0.10997037503139735,0.09680188811615083,0.9183432843019688,1119.0,0.24958299478538648,0.5132996789298414,2.4075889102926182,-0.002268645113337955,0.022,0.9999999999999987,-1.128167284001444,0.10927713260654766,22,2026-10-07 19:31:21.147244,25.0,0.5673773309223514,0.779280428670962,1.2109961861613208
1112,cdot_cos,S,R-S,23,4,5121,-0.0024811240283120666,-0.007033328465078065,-0.09478645933241947,0.08551560863616142,1119.0,0.25722941755135975,0.5134057952279406,2.4622077037280454,-0.0006983574829578453,0.058,0.999999999999999,14.797798816088996,0.11424427442579226,23,2026-10-07 19:31:21.205244,25.0,0.10555278215687518,0.1304417572591283,0.13183487527540122
1112,cdot_cos,T,S-T,24,4,5349,-0.10004880206971699,0.10363273643258278,-0.09756767804140493,0.0802325221374208,1119.0,0.26471423862744536,0.5135053546466237,2.5156522051546566,-0.0007039999542203023,0.228,0.9999999999999988,-0.05667440948421281,0.11921141960603719,24,2026-10-07 19:31:21.433243,25.0,0.9920171589943307,0.08108756446938598,0.03282816261441058
1112,cdot_cos,P,T-P,25,5,6030,0.0358932960848474,0.0010507031590070053,0.13594209815456437,0.9676592652717666,1078.0,0.29420534694939976,0.5147060228466473,2.573530122857718,-0.0029699498607519614,0.681,0.9999999999999986,-1.887240710203763,0.12417857487073398,25,2026-10-07 19:31:22.114244,25.0,0.4662846582801892,0.03121326466881655,0.04330559224956592
1112,cdot_cos,Q,P-Q,26,5,6154,-0.0010801958295719193,-0.0009308370965544695,-0.036973491914419315,0.28407496485782535,1078.0,0.3072267051063735,0.5150584704518439,2.6262932054552026,-0.0014110204518549252,0.124,0.9999999999999978,4.423152224363889,0.12914571797336108,26,2026-10-07 19:31:22.238244,25.0,0.33126914545999,0.1740425293482887,0.10501095287882056
1112,cdot_cos,R,Q-R,27,5,6174,0.10973765039184533,0.133346487197603,0.11081784622141724,0.9410577387924948,1078.0,0.33736789422777536,0.5162259179471244,2.6823885691275824,-0.0035000479197228674,0.02,0.9999999999999974,-1.7893973616056855,0.13411285862139138,27,2026-10-07 19:31:22.258244,25.0,0.5505393642355965,1.2368440498905384,1.5070594560700923
1112,cdot_cos,S,R-S,28,5,6219,0.10973765039184533,0.133346487197603,0.0,0.5,1078.0,0.35670046710199504,0.5168461314505576,2.7348926746781603,-0.0024170363292147297,0.045,0.9999999999999969,1.7461915687308929,0.139080000162181,28,2026-10-07 19:31:22.303244,25.0,0.6388572867482277,0.28510230455495783,0.4296127305382153
1112,cdot_cos,T,S-T,29,5,6449,-0.1958436227863748,0.13816095339822293,-0.30558127317822015,0.00048082231316801235,1078.0,0.36302710163772156,0.5168467278508694,2.783304824717075,-0.0008202233445434183,0.23,0.9999999999999967,2677.418091623245,0.14404714754162729,29,2026-10-07 19:31:22.533243,25.0,0.14272969891972417,0.08619616425365377,0.027507106677071808
1112,cdot_cos,P,T-P,30,6,7108,0.033106039988521865,0.0020951057659080426,0.22894966277489665,0.9967431789760037,940.0,0.3963507026586758,0.5180829581801981,2.837657246744431,-0.00455749246665875,0.659,0.9999999999999967,-3.023117159845643,0.14901430964669551,30,2026-10-07 19:31:23.192243,25.0,0.44041954585455556,0.03640302787149568,0.05056692112436148
1112,cdot_cos,Q,P-Q,31,6,7235,-0.0021234785462286455,-0.0023488158144025603,-0.03522951853475051,0.29302487810926775,940.0,0.41100629237235287,0.5184463466245686,2.8865871201621442,-0.002130894528923243,0.127,0.9999999999999951,6.6776970355770535,0.15398145377273434,31,2026-10-07 19:31:23.319244,25.0,0.32021276520839276,0.1849811071280976,0.11539834420218179
1112,cdot_cos,R,Q-R,32,6,7256,0.09372204313129337,0.15137296530966923,0.09584552167752201,0.9165323354337136,940.0,0.44333590386921257,0.5195828365941625,2.9392044062259783,-0.00497336343240419,0.021,0.9999999999999947,-2.5010945802685645,0.1589485940648251,32,2026-10-07 19:31:23.340243,25.0,0.5646560209486617,0.992446211620183,1.5395053093742714
1112,cdot_cos,S,R-S,33,6,7315,-0.0003669779570504078,-0.0021393371883552514,-0.09408902108834377,0.0868890381807591,940.0,0.45268903326040055,0.5196905677100646,2.9853950520407886,-0.0015089940666201595,0.059,0.9999999999999938,32.15755575140964,0.16391573612907465,33,2026-10-07 19:31:23.399244,25.0,0.10067942943703213,0.1457575520426396,0.15852761679979638
1112,cdot_cos,T,S-T,34,6,7527,-0.13203531289429965,0.05792398172315651,-0.13166833493724925,0.0358567387949526,940.0,0.46053529501024404,0.5197350248733483,3.0305499578733373,-0.0012901722845392756,0.212,0.9999999999999927,4.922081525634072,0.16888288481529853,34,2026-10-07 19:31:23.611244,25.0,0.843996748564024,0.10252021304767785,0.0370106686313372
1112,cdot_cos,P,T-P,35,7,8048,0.031279115924203384,0.002291196995357859,0.16331442881850303,0.9834203518245043,919.0,0.49615760359261596,0.5209541994524246,3.082006640992157,-0.006135016502995206,0.521,0.9999999999999929,-3.9738724064659303,0.17385004808163032,35,2026-10-07 19:31:24.132244,25.0,0.4539793644180684,0.04957567416131255,0.06837295313315148
1112,cdot_cos,Q,P-Q,36,7,8176,-0.0022517007629043657,-0.0026527121771471335,-0.03353081668710775,0.30189917912259173,919.0,0.5121931474863317,0.5213284231793953,3.127970583262801,-0.002910642776963031,0.128,0.999999999999991,8.616165928689282,0.1788171933162777,36,2026-10-07 19:31:24.260243,25.0,0.33028891286923895,0.19775360723691413,0.12527768666965433
1112,cdot_cos,R,Q-R,37,7,8198,0.0907748260511756,0.16250931379357147,0.09302652681407995,0.9109802668699353,919.0,0.546782527045266,0.5224574958494602,3.1779849260723223,-0.006592289876499914,0.022,0.99999999999999,-3.260770716667205,0.1837843333596557,37,2026-10-07 19:31:24.282243,25.0,0.5720792592412872,1.0179992458644846,1.572244525406103
1112,cdot_cos,S,R-S,38,7,8256,-9.075936831741112e-05,-0.0006354096686065364,-0.09086558541949301,0.0934991489011484,919.0,0.556985114304369,0.5225733662883156,3.2213586233253255,-0.0020266858402820734,0.058,0.9999999999999895,39.402664573618296,0.18875147560566938,38,2026-10-07 19:31:24.340243,25.0,0.10511042266425985,0.15097405671918498,0.1759066768810872
1112,cdot_cos,T,S-T,39,7,8467,-0.2787248127793185,0.05208357380078137,-0.27863405341100106,0.000942669843369023,919.0,0.5642955176246914,0.5225745344958881,3.26347696957284,-0.0014752106003594302,0.211,0.9999999999999883,472.0695644556422,0.1937186265730555,39,2026-10-07 19:31:24.551244,25.0,0.6880951553311849,0.10876808837710106,0.034646461233755456
1112,cdot_cos,P,T-P,40,8,8967,0.02984346424047117,0.0022029129931218144,0.30856827701978967,0.9995537598354127,959.0,0.6028852475995057,0.5238130942073179,3.312884944912289,-0.008104163680983037,0.5,0.9999999999999878,-5.3521465452569394,0.19868579532063665,40,2026-10-07 19:31:25.051244,25.0,0.4413271663084108,0.055839712835428656,0.07717945994962849
1112,cdot_cos,Q,P-Q,41,8,9097,-0.00274640399933738,-0.003078790896574298,-0.03258986823980855,0.30687992484767845,959.0,0.6201352304601201,0.5241932949538722,3.356474859002655,-0.003795674470711919,0.13,0.9999999999999855,11.332142951633069,0.20365294191476835,41,2026-10-07 19:31:25.181243,25.0,0.321388361912913,0.20900538633836913,0.13269217585088008
1112,cdot_cos,R,Q-R,42,8,9122,0.09425768901513291,0.15627838982754427,0.0970040930144703,0.9187215615792039,959.0,0.6572266480474817,0.5253313512979428,3.4045363389276724,-0.008522279889348687,0.025,0.9999999999999849,-4.153226194171222,0.20862008183859926,42,2026-10-07 19:31:25.206244,25.0,0.5742918958030342,0.9533155300197116,1.4836567034944625
1112,cdot_cos,S,R-S,43,8,9176,-0.00035837043646510006,-0.0017688517179455794,-0.09461605945159801,0.08584934062627567,959.0,0.6678010069611057,0.5254376829762352,3.445525374945042,-0.002520217358571832,0.054,0.9999999999999833,56.44660770119729,0.21358722404920996,43,2026-10-07 19:31:25.260243,25.0,0.09240580963925658,0.17377709487830836,0.1958214613634077
1112,cdot_cos,T,S-T,44,8,9405,-0.16951825653295494,0.08192340847796986,-0.16915988609648983,0.01435784114554113,959.0,0.675994574294339,0.5254554661534491,3.4854773222560738,-0.0019804490244174373,0.229,0.9999999999999819,30.35275011106454,0.21855437898032307,44,2026-10-07 19:31:25.489243,25.0,0.7614365281284475,0.10679365054067685,0.03577977001411915
1112,cdot_cos,P,T-P,45,9,9926,0.02730632438827723,0.00027082190272343396,0.19682458092123217,0.9927581797795553,876.0,0.7167124989087357,0.5266849066288535,3.533109841524229,-0.010197440599369023,0.521,0.9999999999999809,-6.683521276008676,0.22352155667753223,45,2026-10-07 19:31:26.010243,25.0,0.44673504555920274,0.056598413141366544,0.0781534061696674
1112,cdot_cos,Q,P-Q,46,9,10051,-0.0052867947377662925,-0.0058792438026807215,-0.03259311912604352,0.30686263815462883,876.0,0.7349701207876429,0.5270648632591894,3.574727924256752,-0.004765693133186931,0.125,0.9999999999999784,14.295703858040957,0.22848870421598805,46,2026-10-07 19:31:26.135243,25.0,0.31989571639382436,0.22807035888884908,0.1460609750312578
1112,cdot_cos,R,Q-R,47,9,10072,0.08482267883004709,0.156834492737454,0.09010947356781338,0.9048863479228775,876.0,0.7737300886309479,0.5281851073396647,3.621054764439967,-0.010512080975208466,0.021,0.9999999999999775,-5.129585544949737,0.23345584341474174,47,2026-10-07 19:31:26.156243,25.0,0.5788881033755493,1.2045273219005883,1.8457127544430971
1112,cdot_cos,S,R-S,48,9,10131,-0.0005352518787015337,-0.010621646539115402,-0.08535793070874861,0.10584075166874501,876.0,0.7855602683074676,0.5283161192567833,3.6602815473679384,-0.0033159484713108263,0.059,0.9999999999999752,54.92731243206143,0.23842298622670136,48,2026-10-07 19:31:26.215244,25.0,0.11415956445691157,0.17247705712209846,0.20051151994101135
1112,cdot_cos,T,S-T,49,9,10345,-0.18060351965129454,0.04431116552872301,-0.180068267772593,0.010968412767546466,876.0,0.7940823813713556,0.5283296959669433,3.6983079769406073,-0.0024198822953056093,0.214,0.9999999999999729,66.00024346436498,0.24339014304876552,49,2026-10-07 19:31:26.429244,25.0,0.690531775023787,0.12038106036309083,0.03982295824246705
1112,cdot_cos,P,T-P,50,10,10802,0.029252307489406878,-6.273160498996254e-05,0.20985582714070142,0.9947611240941743,1021.0,0.8370833621428705,0.5295608353473594,3.7445606920376115,-0.012604926682326052,0.457,0.9999999999999728,-8.272860529876214,0.24835732332905208,50,2026-10-07 19:31:26.886244,25.0,0.44573935008245685,0.06848691236159411,0.09409404982826024
1112,cdot_cos,Q,P-Q,51,10,10919,-0.0013379227444265034,-0.0011851004171727563,-0.030590230233833383,0.31761463184644273,1021.0,0.8566794192698526,0.5299538475374509,3.7846276094128566,-0.0059640925774432875,0.117,0.999999999999969,16.89727258418421,0.25332447164046695,51,2026-10-07 19:31:27.003244,25.0,0.32841759670026793,0.2634403467736908,0.16748766775198368
1112,cdot_cos,R,Q-R,52,10,10947,0.10915059754911595,0.14573789982868102,0.11048852029354245,0.9405994001701983,1021.0,0.8987284032879141,0.5311175132014817,3.8299429962399065,-0.013259669879263254,0.028,0.999999999999968,-6.26947887810738,0.25829161122389616,52,2026-10-07 19:31:27.031244,25.0,0.5768297800227055,1.2273234941621143,1.5017494292164844
1112,cdot_cos,S,R-S,53,10,10994,0.10915059754911595,0.14573789982868102,0.0,0.5,1021.0,0.925409534942931,0.5317359529396163,3.871096311723713,-0.008741647774915538,0.047,0.9999999999999667,7.305517135712489,0.2632587532197557,53,2026-10-07 19:31:27.078244,25.0,0.5964029638138567,0.37631210133386134,0.5676836522344009
1112,cdot_cos,T,S-T,54,10,11224,-0.2709944448916444,0.11893241478920238,-0.38014504244076036,7.45753421823103e-05,1021.0,0.9341017408132971,0.5317360451731026,3.9074461095742206,-0.002903087950296632,0.23,0.999999999999964,63301.95311141941,0.2682259161100068,54,2026-10-07 19:31:27.308243,25.0,0.13383400810425977,0.11764436772382345,0.037792199436374435
1112,cdot_cos,P,T-P,55,11,11823,0.024885208008131883,0.00028340067491227136,0.2958796528997763,0.9993872810617563,978.0,0.9795259440958898,0.5329718727358658,3.9526253545041286,-0.015607618200380749,0.599,0.9999999999999636,-10.280180368916522,0.2731931231637623,55,2026-10-07 19:31:27.907244,25.0,0.44308420270156673,0.055239947726595504,0.07583339446175738
1112,cdot_cos,Q,P-Q,56,11,11950,-0.0052962649162352675,-0.005087880210692827,-0.03018147292436715,0.31983355441683875,978.0,1.0002791981897585,0.5333672894718638,3.9913555148752633,-0.007376574783986147,0.127,0.9999999999999579,20.816123009104547,0.2781602743598137,56,2026-10-07 19:31:28.034244,25.0,0.3276414465759276,0.2523469123185689,0.16341144955802162
1112,cdot_cos,R,Q-R,57,11,11971,0.09168250188469702,0.13539198550372833,0.09697876680093229,0.9186742699068436,978.0,1.0436220598248063,0.5345028303415761,4.0354080797688345,-0.015899705749497457,0.021,0.9999999999999561,-7.505789701493701,0.28312741249496115,57,2026-10-07 19:31:28.055244,25.0,0.5850512123542206,1.327832269655541,2.0639457921451307
1112,cdot_cos,S,R-S,58,11,12030,-0.0020819823078479533,-0.01528816550420582,-0.09376448419254498,0.08753491296748371,978.0,1.0560481535152912,0.5346110106887636,4.071476362676128,-0.004682569765036938,0.059,0.999999999999952,103.6892215276155,0.28809455600607914,58,2026-10-07 19:31:28.114244,25.0,0.09112632335872105,0.19673634546715826,0.21061175746584704
1112,cdot_cos,T,S-T,59,11,12243,-0.12411514944553372,0.06926118076400878,-0.12203316713768576,0.04518168898005573,978.0,1.066836948589931,0.5346668473734757,4.106854189740756,-0.004110467578487775,0.213,0.9999999999999485,10.245991313757676,0.2930617204386727,59,2026-10-07 19:31:28.327244,25.0,0.8700698544050433,0.1348516977308108,0.050651620068730994
1112,cdot_cos,P,T-P,60,12,12801,0.028944633238773308,0.0010506876729924996,0.15305978268430703,0.9786786529147596,980.0,1.1134949767486166,0.5358761078628422,4.150878707328298,-0.018251218109903457,0.558,0.9999999999999475,-11.693717487473041,0.29802893403620273,60,2026-10-07 19:31:28.885243,25.0,0.4608033350873743,0.060860778248551115,0.08361653791879156
1112,cdot_cos,Q,P-Q,61,12,12928,-0.003082735424938593,-0.002962273822168788,-0.0320273686637119,0.3098791773363905,980.0,1.134757577115314,0.5362589089668975,4.18831624016995,-0.008575434074792884,0.127,0.9999999999999407,25.276269928711052,0.30299608694494895,61,2026-10-07 19:31:29.012243,25.0,0.3235782852612713,0.2623736836652669,0.16742205013147526
1112,cdot_cos,R,Q-R,62,12,12947,0.0965164200546443,0.14224589529258794,0.09959915547958288,0.9234363099359845,980.0,1.1801378923995944,0.5373993966439721,4.231487360254837,-0.018838520964076864,0.019,0.9999999999999382,-8.998858203895603,0.30796322406599,62,2026-10-07 19:31:29.031244,25.0,0.5799620527466877,1.5288682434567187,2.3884376465410755
1112,cdot_cos,S,R-S,63,12,12993,-4.035542265856017e-05,-0.00011587027607873477,-0.09655677547730286,0.08211741342668838,980.0,1.1928545703666693,0.5375007967792221,4.266280592517481,-0.0054113381772000375,0.046,0.9999999999999337,132.41779957949842,0.31293036574602223,63,2026-10-07 19:31:29.077244,25.0,0.08363397624139715,0.24700283335348625,0.27644952102336684
1112,cdot_cos,T,S-T,64,12,13222,-0.16869019887176334,0.10212074511868756,-0.16864984344910477,0.014539412237280273,980.0,1.2028621530681152,0.5375187499974466,4.300150281623954,-0.004299292009788478,0.229,0.9999999999999283,61.941327371236355,0.31789753662141756,64,2026-10-07 19:31:29.306243,25.0,0.7720870505629066,0.12937108776005338,0.043701234504130396
1112,cdot_cos,P,T-P,65,13,13781,0.05130530591847557,0.003282407382408747,0.2199955047902389,0.9959294067173382,759.0,1.2521065285607738,0.5387482862966281,4.34352784833308,-0.021670604391225663,0.559,0.9999999999999265,-14.128344476695956,0.32286476257883545,65,2026-10-07 19:31:29.865243,25.0,0.4486073852517207,0.060211798025900314,0.08809369497792233
1112,cdot_cos,Q,P-Q,66,13,13895,-0.001672637384387701,-0.0023070470692254656,-0.05297794330286327,0.21007911739629728,759.0,1.2701789432610717,0.5390075822350653,4.378918656569455,-0.008170405650504767,0.114,0.9999999999999174,52.06482917583404,0.327831915040941,66,2026-10-07 19:31:29.979244,25.0,0.191603132116843,0.16664951870585817,0.15852995351138569
1112,cdot_cos,R,Q-R,67,13,13922,-0.0447154932485293,0.2867454129219023,-0.0430428558641416,0.25425018806408506,759.0,1.2901026188257094,0.539321369289654,4.414536032931448,-0.0091421306946017,0.027,0.9999999999999113,-3.0967658795565485,0.33279905268259374,67,2026-10-07 19:31:30.006243,25.0,0.8991630686126564,0.5861962589851705,0.7379139098013963
1112,cdot_cos,S,R-S,68,13,13971,-0.16066131787093205,0.2515211050077264,-0.11594582462240274,0.05222055575958427,759.0,1.301833541246271,0.5393858142985478,4.447889738809439,-0.005449263826785983,0.049,0.9999999999999043,57.30260467340971,0.3377661944042465,68,2026-10-07 19:31:30.055244,25.0,0.5077927989747004,0.2366242875790812,0.2394065800114593
1112,cdot_cos,T,S-T,69,13,14201,-0.2814387768936114,-0.03620780447488478,-0.12077745902267936,0.04655548188542094,759.0,1.3132917990084594,0.5394432669707224,4.480952685184161,-0.0053701269390691074,0.23,0.9999999999998972,1.377427449786263,0.3427333680583342,69,2026-10-07 19:31:30.285243,25.0,0.985371548584978,0.13583514891492782,0.049818512009515
1112,cdot_cos,P,T-P,70,14,14540,0.036601267303739124,0.0011189134245625054,0.31804004419735055,0.9996478147886643,720.0,1.3643177097471377,0.5406766459071698,4.523625763786041,-0.02447590071768866,0.339,0.999999999999896,-15.49059515614227,0.34770056250453074,70,2026-10-07 19:31:30.624243,25.0,0.45813319003050174,0.10620381595581183,0.15051891073356444
1112,cdot_cos,Q,P-Q,71,14,14670,-0.0033339628818593588,-0.006930395539312637,-0.03993523018559848,0.26925990341808004,720.0,1.3852979862264998,0.5410087778666838,4.558621422201124,-0.010333238093497333,0.13,0.9999999999998879,42.58145661407201,0.3526677193344703,71,2026-10-07 19:31:30.754244,25.0,0.2544483565839835,0.2411234858872325,0.161386742148939
1112,cdot_cos,R,Q-R,72,14,14693,0.04255556460221895,0.20796874041304236,0.04588952748407831,0.7590060990515776,720.0,1.4270098160778182,0.5419448144829558,4.5985546844779694,-0.02100581327300992,0.023,0.999999999999885,-11.40187786885739,0.3576348560268036,72,2026-10-07 19:31:30.777244,25.0,0.6016513113728331,1.3613154886486198,1.8135578196225384
1112,cdot_cos,S,R-S,73,14,14750,0.000711264074752906,-0.002615762942950769,-0.041844300527466044,0.2599732653716782,720.0,1.4479184987043363,0.5422653561638355,4.633117678152938,-0.010762765372549526,0.057,0.9999999999998788,31.95543204350026,0.362601999872952,73,2026-10-07 19:31:30.834244,25.0,0.38607967068876214,0.2720573931009709,0.3668189934476864
1112,cdot_cos,T,S-T,74,14,14960,-0.2094177375167187,-0.08649070036645716,-0.2101290015914716,0.0052034051571087205,720.0,1.4580243588913289,0.5422717714989324,4.6647986103716095,-0.005258109096614616,0.21,0.9999999999998711,858.0465701102075,0.36756917484482565,74,2026-10-07 19:31:31.044243,25.0,0.35102812051269777,0.14963565265873693,0.04812314374758359
1112,cdot_cos,P,T-P,75,15,15260,0.03547630090153853,-0.0007126933249619117,0.24489403841825721,0.9978115064580716,698.0,1.5107654728210058,0.5435017226630805,4.7068634625868135,-0.02802291803023002,0.3,0.9999999999998703,-18.50870961155772,0.37253636950594565,75,2026-10-07 19:31:31.344243,25.0,0.4438076772665838,0.12021458966000784,0.17580371309892318
1112,cdot_cos,Q,P-Q,76,15,15387,-0.01611221036964826,-0.020950002712290323,-0.051588511271186785,0.21590142945370244,698.0,1.5301531126873336,0.5437677840303545,4.740458151146836,-0.010550515954685761,0.127,0.9999999999998621,65.67057162248078,0.3775035284932946,76,2026-10-07 19:31:31.471244,25.0,0.19088753157954483,0.25693604445214213,0.1526585816246279
1112,cdot_cos,R,Q-R,77,15,15409,0.0451618439673576,0.22033896604624587,0.06127405433700586,0.8222770285812846,698.0,1.57602722811185,0.5447808690241823,4.780433252037333,-0.025490670493695508,0.022,0.9999999999998592,-14.74718767924943,0.3824706648809033,77,2026-10-07 19:31:31.493243,25.0,0.5564917981579549,1.5644141065809853,2.085187064750744
1112,cdot_cos,S,R-S,78,15,15468,0.00951149159261475,-0.021988610037618057,-0.035650352374742844,0.29085012169436925,698.0,1.598987333376897,0.5451391221322338,4.814538892803374,-0.013039173675508102,0.059,0.9999999999998536,34.75614457585643,0.3874378100917522,78,2026-10-07 19:31:31.552243,25.0,0.384839120707282,0.28418837363006916,0.38915432652622023
1112,cdot_cos,T,S-T,79,15,15679,-0.1828856749468123,-0.10722242855019391,-0.19239716653942704,0.008082576519473009,698.0,1.609561456200198,0.5451490771378202,4.84539151721446,-0.006068507634379669,0.211,0.9999999999998457,700.2171902980224,0.39240499059977113,79,2026-10-07 19:31:31.763244,25.0,0.317060612366309,0.15378925815095956,0.05011432617678279
1112,cdot_cos,P,T-P,80,16,15958,0.02287557669080056,0.0015036146782646327,0.20576125163761286,0.9941997163737213,880.0,1.6638864003166018,0.5463733178802064,4.886912082805074,-0.031793425663674775,0.279,0.9999999999998449,-21.01295696069978,0.39737218824716214,80,2026-10-07 19:31:32.042243,25.0,0.4452466122559771,0.13128196048285096,0.1947130613491174
1112,cdot_cos,Q,P-Q,81,16,16094,-0.03472241577065057,-0.030848967752025995,-0.05759799246145113,0.19155312065287172,880.0,1.682816790149629,0.5466091291982098,4.919482767459128,-0.011325853650522417,0.136,0.9999999999998362,86.79639377128841,0.4023393524182244,81,2026-10-07 19:31:32.178244,25.0,0.16412041084071705,0.2576378103925293,0.13919404288990503
1112,cdot_cos,R,Q-R,82,16,16122,0.05632494311945078,0.14151629187599132,0.09104735889010135,0.9068853048597745,880.0,1.7339638847433698,0.5477252639836625,4.959863838966107,-0.031228254279838538,0.028,0.9999999999998346,-17.83153870725738,0.40730649017859333,82,2026-10-07 19:31:32.206244,25.0,0.5287073003148839,1.2986916697497384,1.8266819497764604
1112,cdot_cos,S,R-S,83,16,16169,0.011075891715373508,-0.05185634033718373,-0.04524905140407727,0.24393486533905734,880.0,1.7555435236556143,0.5480254015443301,4.992749645176282,-0.013454499660058725,0.047,0.9999999999998284,59.2186948552701,0.41227363326914296,83,2026-10-07 19:31:32.253243,25.0,0.2668611484454427,0.3575773177434759,0.45914125345200973
1112,cdot_cos,T,S-T,84,16,16398,-0.12440749939725744,0.0178460555968505,-0.13548339111263094,0.03270154454603301,880.0,1.7675761526112566,0.5480656348880891,5.0231051448971,-0.00757426333955423,0.229,0.9999999999998199,146.15330895001532,0.41724082421576186,84,2026-10-07 19:31:32.482244,25.0,0.4600848638782463,0.14734102035552488,0.05254423124734619
1112,cdot_cos,P,T-P,85,17,16838,0.035010688988749816,-0.0016149497100457566,0.15941818838600724,0.9817550715255937,1017.0,1.8230257109784447,0.5492732123031081,5.064049467774548,-0.035555899157210163,0.44,0.9999999999998191,-23.171711783973834,0.4222080730125147,85,2026-10-07 19:31:32.922244,25.0,0.4552193436677017,0.09018579064208937,0.1260217235617912
1112,cdot_cos,Q,P-Q,86,17,16953,-0.0013845063551855235,-0.0011890013804206456,-0.03639519534393534,0.2870244174076188,1017.0,1.8469396483762952,0.5496261488131997,5.0970239648902265,-0.015671051658472393,0.115,0.9999999999998083,56.341146155654414,0.42717523432940036,86,2026-10-07 19:31:33.037244,25.0,0.28114339667568994,0.30642153077875256,0.20794728172043936
1112,cdot_cos,R,Q-R,87,17,16980,0.0478383797929189,0.25505751725198655,0.04922288614810442,0.7739186988602801,1017.0,1.8935026630575578,0.5505775398392111,5.13544617583668,-0.031087217184911864,0.027,0.9999999999998047,-16.203816417178416,0.4321423713379136,87,2026-10-07 19:31:33.064243,25.0,0.6090222557369754,1.1597700219067895,1.7245560993060207
1112,cdot_cos,S,R-S,88,17,17028,-0.0350260432921356,0.30860794602298725,-0.0828644230850545,0.11188689830747142,1017.0,1.9095672295592618,0.5507150538073587,5.166165899811365,-0.010904271885746039,0.048,0.9999999999997955,146.7701468515187,0.43710951481962035,88,2026-10-07 19:31:33.112243,25.0,0.15709242509764068,0.2807526864545597,0.33467846878550145
1112,cdot_cos,T,S-T,89,17,17257,-0.2960783730049869,0.1261457583157088,-0.2610523297128513,0.0014622607620697109,1017.0,1.9204549209571955,0.5507168509395205,5.195453151300066,-0.007442693370523611,0.229,0.999999999999785,1926.1680297616892,0.44207671130842024,89,2026-10-07 19:31:33.341243,25.0,0.6280738282661686,0.15012157560453118,0.0475445039211077
1112,cdot_cos,P,T-P,90,18,17855,0.03008260965661329,-0.0008906915691054775,0.3261609826616002,0.9997125070158146,961.0,1.9783229111861371,0.5519451946375635,5.236212689897293,-0.04024746340164791,0.598,0.9999999999997843,-26.70650737524689,0.4470440193953401,90,2026-10-07 19:31:33.939244,25.0,0.44260537406628386,0.06947714076859529,0.09676921442966827
1112,cdot_cos,Q,P-Q,91,18,17970,-0.003605224239921839,-0.0033521364960956966,-0.03368783389653513,0.3010725147948726,961.0,2.0035495813164355,0.5523149980583604,5.268750217825426,-0.017916418241754894,0.115,0.9999999999997693,60.38625903398785,0.4520111823345518,91,2026-10-07 19:31:34.054244,25.0,0.28753772844744707,0.35037426501659674,0.21936234895911594
1112,cdot_cos,R,Q-R,92,18,17997,0.10081064583211487,0.14167916725612065,0.1044158700720367,0.9315277069614144,961.0,2.0589089921399544,0.5534588131035224,5.308591401628767,-0.040093296224866105,0.027,0.9999999999997653,-19.38851746784781,0.45697831827975405,92,2026-10-07 19:31:34.081243,25.0,0.5751457328819495,1.296953087681506,2.050348549019219
1112,cdot_cos,S,R-S,93,18,18047,-0.000605525545720329,-0.0018954488957334322,-0.1014161713778352,0.07341317869783172,961.0,2.073585048051237,0.5535489326344329,5.338233542645287,-0.010811750514508764,0.05,0.9999999999997533,324.9189761032539,0.4619454621172162,93,2026-10-07 19:31:34.131244,25.0,0.0666495112748722,0.27249466333682637,0.2935211182256481
1112,cdot_cos,T,S-T,94,18,18276,-0.13936049884195148,0.08261370730304801,-0.13875497329623115,0.030210944133579082,961.0,2.086158458473637,0.5535860175440657,5.367216537192379,-0.009323674144413324,0.229,0.9999999999997411,40.126196472712685,0.4669126644705593,94,2026-10-07 19:31:34.360243,25.0,0.8524830710182828,0.1557299479741275,0.054905722368559964
1112,cdot_cos,P,T-P,95,19,18816,0.027799627185294027,0.002172531611208787,0.1671601260272455,0.984917208849197,959.0,2.144909364223387,0.55479470623342,5.407470918632185,-0.04428959496050794,0.54,0.9999999999997381,-28.928806171565714,0.471879971888354,95,2026-10-07 19:31:34.900243,25.0,0.4540790988009909,0.07881635329979894,0.10879797361064845
1112,cdot_cos,Q,P-Q,96,19,18945,-0.0041137643976734235,-0.0046777976480650435,-0.03191339158296745,0.3104888687883666,959.0,2.17128012003742,0.5551756039880873,5.4395889282901235,-0.020276200703019547,0.129,0.9999999999997213,63.04420008582605,0.47684714183856686,96,2026-10-07 19:31:35.029243,25.0,0.3059559043370173,0.3170367524289319,0.20442446367467207
1112,cdot_cos,R,Q-R,97,19,18971,0.08484579126194529,0.14496059291242056,0.08895955565961872,0.9023831328502367,959.0,2.2267048463500516,0.5562822490624592,5.478745933683634,-0.04340140883369261,0.026,0.9999999999997159,-20.89668012465435,0.48181427651672043,97,2026-10-07 19:31:35.055244,25.0,0.5869465023062678,1.3865076615163443,2.1317202427935285
1112,cdot_cos,S,R-S,98,19,19025,-0.0003333104232291301,-0.0016805881968303764,-0.08517910168517442,0.1062646005652752,959.0,2.24337851843627,0.5564125310099537,5.5082041992080955,-0.013269898043352681,0.054,0.9999999999997016,231.2792475841933,0.48678142173642647,98,2026-10-07 19:31:35.109244,25.0,0.10324336222414504,0.26332693296179005,0.30877170530033654
1112,cdot_cos,T,S-T,99,19,19255,-0.19818871468095725,0.09185492452218542,-0.19785540425772813,0.007058879033344244,959.0,2.255144155109925,0.5564211850238152,5.536322062932714,-0.00942332875296767,0.23,0.9999999999996857,444.4838374351127,0.4917486308002458,99,2026-10-07 19:31:35.339243,25.0,0.6648482603453547,0.15786459783839552,0.05115494205937024
1112,cdot_cos,P,T-P,100,20,19775,0.026354171590453623,0.0025450918231514214,0.22454288627141086,0.9963652448660554,879.0,2.3159962334419317,0.5576423586582757,5.576424817399039,-0.049496419892817035,0.52,0.9999999999996823,-32.81522791601462,0.49671594844747063,100,2026-10-07 19:31:35.859244,25.0,0.44502894563508855,0.08432571086294463,0.11702322756155151
1112,cdot_cos,Q,P-Q,101,20,19904,-0.0063270154379825765,-0.007554836435860139,-0.0326811870284362,0.30639454081445894,879.0,2.3428428944073874,0.5580177451717685,5.608010300674098,-0.022251811029461763,0.129,0.9999999999996629,72.57748449686693,0.501683121250439,101,2026-10-07 19:31:35.988243,25.0,0.2939407257160601,0.32548715651567495,0.20811365089500486
1112,cdot_cos,R,Q-R,102,20,19928,0.08533562688720214,0.17411634023064618,0.09166264232518471,0.9081761306822652,879.0,2.399971919822976,0.5591300275989043,5.646937871947539,-0.04817933925855114,0.024,0.9999999999996569,-23.31020215419088,0.5066502542354466,102,2026-10-07 19:31:36.012243,25.0,0.583829554382214,1.5455037455484877,2.3803760589828546
1112,cdot_cos,S,R-S,103,20,19984,-0.0001585583686146128,-0.002132348694847639,-0.08549418525581676,0.10551881112904551,879.0,2.4170270741937148,0.5592592227729132,5.675862605967017,-0.014607407086909717,0.056,0.9999999999996401,259.8543825586822,0.5116174004248917,103,2026-10-07 19:31:36.068243,25.0,0.1004312956071945,0.2594825734400785,0.3045563280489089
1112,cdot_cos,T,S-T,104,20,20196,-0.20480356678754208,0.04143773816027566,-0.20464500841892747,0.005963447590122992,879.0,2.4290339680482647,0.5592665240623842,5.7034232466509645,-0.010345678004375724,0.212,0.9999999999996214,583.695400579686,0.5165846090919402,104,2026-10-07 19:31:36.280244,25.0,0.6623684672663133,0.17556648560180213,0.056636291766744784
1112,cdot_cos,P,T-P,105,21,20654,0.03878435724142844,0.005783176088723717,0.2435879240289705,0.997739030623376,801.0,2.491467264088879,0.56048773287294,5.7432916690868225,-0.05458926406337277,0.458,0.9999999999996179,-36.229337420897025,0.5215519194014324,105,2026-10-07 19:31:36.738244,25.0,0.444643939500385,0.09630674969031724,0.1363172402633498
1112,cdot_cos,Q,P-Q,106,21,20779,-0.0004491312383724767,-0.0006517834470590859,-0.03923348847980092,0.2727256940888132,801.0,2.5172509507645953,0.5608214158502668,5.7740114728031955,-0.022944673567406003,0.125,0.9999999999995971,94.83429676117954,0.5265190938126589,106,2026-10-07 19:31:36.863244,25.0,0.2517876139735129,0.3319474330607246,0.2062694934057312
1112,cdot_cos,R,Q-R,107,21,20799,0.0803075081309415,0.19763063098780514,0.08075663936931397,0.8827688730508609,801.0,2.57445412235406,0.5619011150676916,5.8123519616407755,-0.05172016554693951,0.02,0.9999999999995899,-26.651396532606974,0.5314862243614351,107,2026-10-07 19:31:36.883244,25.0,0.5732869472451361,2.375383588612967,2.8601585794732376
1112,cdot_cos,S,R-S,108,21,20843,0.0803075081309415,0.19763063098780514,0.0,0.5,801.0,2.612266294309114,0.5625123970513981,5.845801940146158,-0.03481503463269267,0.044,0.9999999999995782,27.65520883135168,0.5364533659946207,108,2026-10-07 19:31:36.927244,25.0,0.615346445731957,0.5670536265106557,0.859367544433044
1112,cdot_cos,T,S-T,109,21,21073,-0.22923183808535935,0.00742181329081237,-0.30953934621630086,0.00043554201443880353,801.0,2.6243548414869977,0.5625129294469037,5.872809037166064,-0.011237443959078523,0.23,0.9999999999995581,44285.85596033385,0.5414205906665386,109,2026-10-07 19:31:37.157243,25.0,0.12268593756276935,0.16543384788384125,0.052558900773407684
1112,cdot_cos,P,T-P,110,22,21455,0.022592885993449916,0.0019074364465956307,0.2518247240788093,0.998159026501762,874.0,2.688365864335681,0.5637326730005954,5.912479865830566,-0.060331227436580356,0.382,0.9999999999995545,-40.24926660109304,0.546387885705256,110,2026-10-07 19:31:37.539244,25.0,0.44319850293723556,0.12369596009681663,0.16756812264053195
1112,cdot_cos,Q,P-Q,111,22,21581,-0.0022232073845125733,-0.002783031857246137,-0.02481609337796249,0.34968995226838345,874.0,2.7188585550009656,0.5641598102046539,5.943794260573362,-0.029244492006905223,0.126,0.9999999999995339,72.77927357837112,0.5513550649724842,111,2026-10-07 19:31:37.665244,25.0,0.3454198851837199,0.3606136199240159,0.24200548147051354
1112,cdot_cos,R,Q-R,112,22,21604,0.09344906881308447,0.18343877876748635,0.09567227619759705,0.9162004016206473,874.0,2.779240496556533,0.5652784722255643,5.982346912530644,-0.05884881706215373,0.023,0.9999999999995276,-26.464047676487887,0.5563221964363714,112,2026-10-07 19:31:37.688244,25.0,0.6046791654691508,1.682886270803635,2.625301806763796
1112,cdot_cos,S,R-S,113,22,21662,-3.9839964621116744e-05,-0.0004693519525868287,-0.09348890877770559,0.08808675169795392,874.0,2.796271323457933,0.5653859895163341,6.010137385924491,-0.01683114930526626,0.058,0.9999999999995071,390.7991677992363,0.5612893453764644,113,2026-10-07 19:31:37.746243,25.0,0.08237914480138828,0.25384267244332737,0.2936349465758603
1112,cdot_cos,T,S-T,114,22,21872,-0.2656157843169592,-0.010950387357771757,-0.2655759443523381,0.001306105372654238,874.0,2.808686246559959,0.5653875836815584,6.03668936515743,-0.012334152179590354,0.21,0.9999999999994847,2820.910315446453,0.5662565684138132,114,2026-10-07 19:31:37.956243,25.0,0.6944763421897239,0.18557165711409884,0.05911868143821941
1112,cdot_cos,P,T-P,115,23,22329,0.02903012858968558,0.0024896726827923813,0.29464591290664477,0.9993681003272524,861.0,2.8742114194458543,0.5666069623122622,6.0761847075801905,-0.0659608671155568,0.457,0.9999999999994813,-43.97872292137511,0.5712239153058135,115,2026-10-07 19:31:38.413243,25.0,0.443521928337264,0.10397873224775071,0.14338112228861144
1112,cdot_cos,Q,P-Q,116,23,22447,-0.0013893766797997296,-0.0016235781919535597,-0.03041950526948531,0.31854040544685835,861.0,2.903722807834403,0.5669954605405195,6.106730137630902,-0.03019804186111972,0.118,0.9999999999994569,92.0540240681482,0.5761910939966494,116,2026-10-07 19:31:38.531244,25.0,0.30596752837880176,0.30849475620552574,0.25009651176736203
1112,cdot_cos,R,Q-R,117,23,22475,0.010429478178055009,0.26727206608035503,0.011818854857854739,0.5733350844734424,861.0,2.9470161819103584,0.5676945036175101,6.1405571014961415,-0.04484170461600305,0.028,0.999999999999442,-20.948155037778307,0.581158227101507,117,2026-10-07 19:31:38.559244,25.0,0.7213985849026756,1.0834870009435646,1.5461919312841195
1112,cdot_cos,S,R-S,118,23,22522,-0.08249294605215554,0.27522301828607826,-0.09292242423021055,0.08923101454715064,861.0,2.9643980798872427,0.567803275031646,6.167924518042902,-0.018189153425922137,0.047,0.9999999999994187,245.0326807076447,0.5861253705662147,118,2026-10-07 19:31:38.606244,25.0,0.23100887310937576,0.3353950972761654,0.3698276165294527
1112,cdot_cos,T,S-T,119,23,22750,-0.221914736974061,0.052559843599053184,-0.13942179092190546,0.029726335988325157,861.0,2.978543321054318,0.5678395095867173,6.194399927597359,-0.014880824977086699,0.228,0.9999999999993943,91.30313432375213,0.5910926089903403,119,2026-10-07 19:31:38.834244,25.0,0.8006578512419398,0.1774289768603596,0.06204053143454067
1112,cdot_cos,P,T-P,120,24,23190,0.016786297155211776,0.0007964464385799921,0.23870103412927277,0.9974459709557482,824.0,3.0453056933355667,0.5690549110316588,6.233686502861568,-0.07114206245299043,0.44,0.9999999999993897,-46.29025060819112,0.596059962094288,120,2026-10-07 19:31:39.274244,25.0,0.4534685139090023,0.11158559940733125,0.15173266427556523
1112,cdot_cos,Q,P-Q,121,24,23308,-0.009118392518254055,-0.009763628300408778,-0.025904689673465833,0.3435266871363352,824.0,3.0767386485327695,0.5694733112008802,6.264208883087532,-0.03403295418463463,0.118,0.9999999999993637,88.69286151919339,0.6010271434310185,121,2026-10-07 19:31:39.392244,25.0,0.33608623073562144,0.3962415673616667,0.2663809762474813
1112,cdot_cos,R,Q-R,122,24,23335,0.07889061620485695,0.1704382465020796,0.088009008723111,0.9002697337147637,824.0,3.13881870323292,0.5705693275049243,6.302146709399152,-0.06819902243396873,0.027,0.9999999999993556,-31.17295620810341,0.605994275288328,122,2026-10-07 19:31:39.419244,25.0,0.6059390208997106,1.5113259812779865,2.299261285190761
1112,cdot_cos,S,R-S,123,24,23384,-0.00023738020805029588,-0.0021912977264877237,-0.07912799641290724,0.12151085933232067,824.0,3.1583502515217807,0.5707172058557554,6.3295625103425674,-0.021736568748599326,0.049,0.9999999999993308,314.1937506352373,0.6109614201833021,123,2026-10-07 19:31:39.468243,25.0,0.11794642886905328,0.3368931462261029,0.39860302630328004
1112,cdot_cos,T,S-T,124,24,23610,-0.1762199021978842,0.013096220884166423,-0.17598252198983388,0.012133671348287738,824.0,3.171834231563078,0.570731971804578,6.35540478395359,-0.015084806858236662,0.226,0.9999999999993031,450.4798147583399,0.6159286660566967,124,2026-10-07 19:31:39.694243,25.0,0.6434199161250994,0.18046974970668583,0.059663628501315756
1112,cdot_cos,P,T-P,125,25,24014,0.04667387713150608,0.01486300240928524,0.22289377932939028,0.9962128398171302,919.0,3.2399225783892027,0.571943871148658,6.394529490168399,-0.07709894871938228,0.404,0.9999999999992983,-51.17103343943606,0.6208960166839144,125,2026-10-07 19:31:40.098243,25.0,0.44738093498045384,0.11633177108544993,0.16853551194585303
1112,cdot_cos,Q,P-Q,126,25,24139,-0.0010564173083322062,-0.0012399128883530633,-0.04773029443983828,0.23267686560715706,919.0,3.2658303026001216,0.5722268003097493,6.423232701523249,-0.02976138278196973,0.125,0.999999999999267,167.3124316872303,0.6258632057374615,126,2026-10-07 19:31:40.223244,25.0,0.2038093844808334,0.2750835329817125,0.20726179368735131
1112,cdot_cos,R,Q-R,127,25,24166,0.0044991929094020545,0.3109607946864317,0.00555561021773426,0.5346668533497244,919.0,3.308693461634631,0.5728767623741494,6.455996086178516,-0.049740183002674916,0.027,0.9999999999992479,-30.738409693407938,0.6308303368840317,127,2026-10-07 19:31:40.250243,25.0,0.6692061078251397,1.1007317267530352,1.5875244086855265
1112,cdot_cos,S,R-S,128,25,24220,-0.10306049106909418,0.33480161660281604,-0.10755968397849623,0.06362604039474824,919.0,3.3252698158447855,0.5729540919862186,6.482238431462728,-0.0194089035071823,0.054,0.9999999999992184,392.2336952674062,0.6357974848142081,128,2026-10-07 19:31:40.304243,25.0,0.2095588230718082,0.2785465379410198,0.306969522410272
1112,cdot_cos,T,S-T,129,25,24448,-0.2884403792225134,0.04283185783108224,-0.18537988815341924,0.009617592132616338,919.0,3.338776487732261,0.5729657806742239,6.507643175585867,-0.015886281700699167,0.228,0.9999999999991872,301.37016274998865,0.6407647383413031,129,2026-10-07 19:31:40.532243,25.0,0.801123745279124,0.18207855949085494,0.059239788980155486
1112,cdot_cos,P,T-P,130,26,24933,0.014102704437933844,0.0006563970975507282,0.30254308366044724,0.9994812538832463,838.0,3.4082976389726154,0.5741800481622933,6.54666277780719,-0.08272771479780931,0.485,0.9999999999991825,-55.04671232150242,0.6457321519423785,130,2026-10-07 19:31:41.017244,25.0,0.44576246899787636,0.10783129128032899,0.1433425798770194
1112,cdot_cos,Q,P-Q,131,26,25059,-0.004327542139972672,-0.0058911570251246196,-0.018430246577906515,0.3868064559721808,838.0,3.44337284027418,0.5746497392570104,6.577170101763167,-0.04237317962774613,0.126,0.9999999999991513,85.91718179024116,0.6506993442305078,131,2026-10-07 19:31:41.143244,25.0,0.38582926495266906,0.3924531465949168,0.2783746135044819
1112,cdot_cos,R,Q-R,132,26,25084,0.0786938328562823,0.17568291081078707,0.08302137499625498,0.8885024091277705,838.0,3.5071958319145344,0.5757281179565876,6.614615748142739,-0.07816344086208728,0.025,0.9999999999991414,-33.18895416644535,0.6556664730310953,132,2026-10-07 19:31:41.168243,25.0,0.6326170335643835,1.6834858056809576,2.552919665614173
1112,cdot_cos,S,R-S,133,26,25138,0.0004156745248751443,-0.008860488640889954,-0.07827815833140715,0.12379707740958808,838.0,3.527547130558228,0.5758783139614617,6.641355970161422,-0.025223542538756496,0.054,0.9999999999991097,352.4720805171194,0.6606336213645613,133,2026-10-07 19:31:41.222244,25.0,0.12259992932931534,0.3209079948350805,0.37687590080914
1112,cdot_cos,T,S-T,134,26,25347,-0.15819268421521163,0.010369349846512749,-0.15860835874008677,0.018611130461989703,838.0,3.541853895356723,0.5759008925840995,6.6665380906914535,-0.017819015419775645,0.209,0.9999999999990753,327.94414600802094,0.6656008715170816,134,2026-10-07 19:31:41.431243,25.0,0.659983294996831,0.20235598407551822,0.06845342008849345
1112,cdot_cos,P,T-P,135,27,25771,0.022285836407260527,0.0017877854352776974,0.18047852062247216,0.9891422926677497,879.0,3.6121319319017946,0.5771004405458475,6.705304576867838,-0.0885117263980992,0.424,0.9999999999990701,-58.93279237897818,0.670568266555131,135,2026-10-07 19:31:41.855244,25.0,0.4499216295293354,0.12236353642332722,0.16575008619120632
1112,cdot_cos,Q,P-Q,136,27,25894,-0.0029088230425995216,-0.0036052320761146084,-0.02519465944986005,0.347540812261829,879.0,3.6456181742437046,0.5775216936145594,6.735006048667824,-0.04277456821655668,0.123,0.9999999999990357,108.57406527956928,0.6755354611550869,136,2026-10-07 19:31:41.978244,25.0,0.3432622501157324,0.4040736088583606,0.2722458726984553
1112,cdot_cos,R,Q-R,137,27,25920,0.08662932846515091,0.1708961519974601,0.08953815150775044,0.9036499186163505,879.0,3.7115340396809513,0.5786164756047736,6.772535889179182,-0.08529282906463465,0.026,0.9999999999990254,-38.83719427989486,0.680502589967958,137,2026-10-07 19:31:42.004243,25.0,0.6074426656024917,1.642978165874528,2.535225593740258
1112,cdot_cos,S,R-S,138,27,25975,-3.430638344391403e-05,-0.0003297743114244201,-0.08666363484859482,0.10279101494402608,879.0,3.73105303886918,0.5787409593351219,6.798670574342622,-0.025548149043649635,0.055,0.9999999999989907,479.9396664431568,0.6854697397969292,138,2026-10-07 19:31:42.059244,25.0,0.09647097885758947,0.3011936948207218,0.3548908943314318
1112,cdot_cos,T,S-T,139,27,26187,-0.24811472030374662,0.033088108697231965,-0.2480804139203027,0.0020212611016626534,879.0,3.7446653461112307,0.5787434070569671,6.823287840937205,-0.017896247855187813,0.212,0.999999999998953,3126.131837010848,0.6904370005996805,139,2026-10-07 19:31:42.271244,25.0,0.6520916631367061,0.2022871206673547,0.06420899642476721
1112,cdot_cos,P,T-P,140,28,26650,0.026734041916700244,0.0020227510797690197,0.27484876222044685,0.9989638628190365,920.0,3.8168227780321384,0.5799526638430735,6.862096278489605,-0.09587902155772163,0.463,0.9999999999989476,-64.4881836500793,0.6954044429857837,140,2026-10-07 19:31:42.734244,25.0,0.4433722665432243,0.11331397979720861,0.1558475851423493
1112,cdot_cos,Q,P-Q,141,28,26776,-0.002520090555446255,-0.002865404571698973,-0.029254132472146498,0.3248978227405317,920.0,3.849594091403446,0.5803457502182996,6.8912280629454505,-0.04413764904223285,0.126,0.9999999999989087,131.6285065482947,0.7003716437789668,141,2026-10-07 19:31:42.860243,25.0,0.30966229056969374,0.4020720565516578,0.2600897886611703
1112,cdot_cos,R,Q-R,142,28,26799,0.09968482648622899,0.17071539271354158,0.10220491704167525,0.927916924401992,920.0,3.918144936283156,0.5814678526341783,6.9289933104785115,-0.09347735828258069,0.023,0.9999999999988977,-43.970771778179646,0.7053387694272202,142,2026-10-07 19:31:42.883244,25.0,0.5898864360847159,1.8876821847230985,2.9804715165091435
1112,cdot_cos,S,R-S,143,28,26857,-0.0002704386857731258,-0.0016837985310308894,-0.09995526517200212,0.07593661916304244,920.0,3.9364274719007084,0.5815596433956788,6.954446014588613,-0.02520758957857677,0.058,0.9999999999988585,743.7542470291636,0.7103059221224186,143,2026-10-07 19:31:42.941243,25.0,0.0666498731092994,0.2784684236604583,0.31521613133710724
1112,cdot_cos,T,S-T,144,28,27066,-0.21451008270350205,0.05763498751832173,-0.21423964401772894,0.004697617627450594,920.0,3.9504472734277694,0.5815653216023655,6.978788045405784,-0.01940964188263754,0.209,0.9999999999988166,1021.0878215276612,0.7152731892855095,144,2026-10-07 19:31:43.150244,25.0,0.7417709169430081,0.20903962491974984,0.06708039008163133
1112,cdot_cos,P,T-P,145,29,27570,0.025702814071565404,0.0024226044249600035,0.24021289677506746,0.9975404699381406,852.0,4.023806035117164,0.5827705985708973,7.017491591524875,-0.10260275302350531,0.504,0.9999999999988105,-69.02406111867363,0.720240684855392,145,2026-10-07 19:31:43.654243,25.0,0.44449019628796055,0.10637228775468656,0.1455530985900684
1112,cdot_cos,Q,P-Q,146,29,27694,-0.0020057225238416126,-0.0026641222160551747,-0.027708536595407018,0.3334297326731137,852.0,4.057670539484493,0.5831732449209918,7.046513769593086,-0.04798804930211835,0.124,0.9999999999987669,135.63938604826413,0.7252078881285687,146,2026-10-07 19:31:43.778244,25.0,0.32043056210727483,0.4110510260295988,0.2731008416720127
1112,cdot_cos,R,Q-R,147,29,27721,0.08590133630722797,0.19017273050323316,0.08790705883106958,0.900040663058807,852.0,4.125746689572504,0.5842595696461709,7.083775525279272,-0.09761177876363006,0.027,0.9999999999987539,-45.680382956698196,0.7301750156447356,147,2026-10-07 19:31:43.805243,25.0,0.6014700735361707,1.6371069079907354,2.5213388921485533
1112,cdot_cos,S,R-S,148,29,27775,-1.0610257358137445e-06,-1.7157378449966198e-05,-0.08590239733296379,0.10455945836232146,852.0,4.146074312515993,0.5843857172311603,7.109363800477477,-0.029459290839552316,0.054,0.9999999999987116,540.2599497231633,0.7351421656333839,148,2026-10-07 19:31:43.859244,25.0,0.09891975451197678,0.31853176023737356,0.3764374619164588
1112,cdot_cos,T,S-T,149,29,27985,-0.2602982508711629,0.005012688220675682,-0.26029718984542705,0.0014900867426708446,852.0,4.160148119678141,0.5843875148924684,7.133363438210032,-0.020480908145339493,0.21,0.9999999999986645,4994.479579402964,0.7401094422030954,149,2026-10-07 19:31:44.069243,25.0,0.6450817968060082,0.21142958477838394,0.06701812934355984
1112,cdot_cos,P,T-P,150,30,28422,0.02752228962253455,0.0020693179044824974,0.28782054049369743,0.9992506191113693,920.0,4.234874738122914,0.5855925167525922,7.172019188844462,-0.10981578343826834,0.437,0.9999999999986572,-74.13671152653296,0.7450769071440786,150,2026-10-07 19:31:44.506243,25.0,0.44330485244189227,0.12484000500306046,0.17099912687591232
1112,cdot_cos,Q,P-Q,151,30,28548,-0.0003694912071176588,-0.000415060663334449,-0.02789178082965221,0.3324123401140738,920.0,4.2692582840508155,0.5859931484515101,7.200809543691659,-0.05117115750224706,0.126,0.9999999999986119,146.38039399882314,0.7500441165426806,151,2026-10-07 19:31:44.632244,25.0,0.31789044954933676,0.3350646507481472,0.2728852851420727
1112,cdot_cos,R,Q-R,152,30,28568,0.013671736391212639,0.28346570761860107,0.014041227598330298,0.5868674962135753,920.0,4.3193110301114475,0.586700177891169,7.233330842164672,-0.07519251663709592,0.02,0.9999999999985835,-33.975047978817095,0.7550112372324865,152,2026-10-07 19:31:44.652243,25.0,0.7265378065318517,1.7402494623840914,2.5026373030315963
1112,cdot_cos,S,R-S,153,30,28614,-0.08014017338403001,0.31091518412779917,-0.09381190977524265,0.0874402592095864,920.0,4.338868262546179,0.5868054911492622,7.2583883210315765,-0.029616053753420843,0.046,0.9999999999985362,432.77041949799803,0.7599783807100414,153,2026-10-07 19:31:44.698244,25.0,0.21461474768650468,0.3707406970953692,0.42515722684199414
1112,cdot_cos,T,S-T,154,30,28844,-0.28192246445016517,0.05371439664817309,-0.20178229106613516,0.006403049526215595,920.0,4.353419174244221,0.5868132026855598,7.28216561176487,-0.022121528751363632,0.23,0.999999999998485,971.8588764669365,0.7649456821262905,154,2026-10-07 19:31:44.928244,25.0,0.7126329792154832,0.19667772557615584,0.06326483346974884
1112,cdot_cos,P,T-P,155,31,29342,0.02098037873672039,0.001361424353668792,0.30290284318688554,0.9994858961734328,881.0,4.429340016311211,0.5880164128400843,7.320750738519826,-0.11652142457161699,0.498,0.9999999999984778,-78.45669807994463,0.7699132185051678,155,2026-10-07 19:31:45.426244,25.0,0.4447910993451068,0.1124338642075974,0.15245149009435635
1112,cdot_cos,Q,P-Q,156,31,29466,-0.003546975802711611,-0.003982389242260479,-0.024527354539432,0.35133325816312366,881.0,4.465403302994988,0.5884391090448795,7.349607931513253,-0.05603750699163047,0.124,0.9999999999984274,143.0907514518476,0.7748804295156707,156,2026-10-07 19:31:45.550244,25.0,0.3398173386540796,0.4337957448968022,0.2908329571272384
1112,cdot_cos,R,Q-R,157,31,29489,0.09388049347417982,0.17319746534821162,0.09742746927689143,0.9195084283967287,881.0,4.536921361045618,0.5895447693881266,7.386980681717093,-0.11238216439039167,0.023,0.999999999998412,-50.96018659156037,0.7798475513078669,157,2026-10-07 19:31:45.573244,25.0,0.6057023747837942,1.98637223893568,3.1094807848099735
1112,cdot_cos,S,R-S,158,31,29533,-0.00017401220065215844,-0.0008488849517316931,-0.09405450567483198,0.08695752333658471,881.0,4.55677642598603,0.589649284593412,7.411782473138338,-0.031514128518236886,0.044,0.9999999999983599,773.7442188560725,0.784814692915997,158,2026-10-07 19:31:45.617243,25.0,0.07683551730222421,0.4077554582249626,0.45125147591845216
1112,cdot_cos,T,S-T,159,31,29763,-0.1450684350311526,0.03798736054863113,-0.14489442283050044,0.026024174962817823,881.0,4.5728038413694145,0.5896805617628027,7.435594876140523,-0.025538638182613156,0.23,0.9999999999983057,191.04958831112435,0.7897820048092385,159,2026-10-07 19:31:45.847244,25.0,0.7913788898035653,0.2004248627756712,0.06968441471036875
1112,cdot_cos,P,T-P,160,32,30223,0.01910540591547778,0.0009778228177130916,0.16417384094663037,0.9837670503133807,859.0,4.6489718628628385,0.5908623687946007,7.473889564167548,-0.12248626811233022,0.46,0.9999999999982959,-82.03338389535344,0.7947495319176553,160,2026-10-07 19:31:46.307244,25.0,0.4531654680799081,0.12382223126816982,0.16558265542048684
1112,cdot_cos,Q,P-Q,161,32,30349,-0.002395979680381636,-0.003124456038165885,-0.021501385595859415,0.36876127399665404,859.0,4.686720294136131,0.5913050949736945,7.502827012576616,-0.06143285735038742,0.126,0.9999999999982432,137.90332183859294,0.7997167494815745,161,2026-10-07 19:31:46.433243,25.0,0.3701587195901967,0.4323044436322533,0.29959072439120876
1112,cdot_cos,R,Q-R,162,32,30371,0.08383517449783007,0.17193109719202027,0.0862311541782117,0.8962075555565686,859.0,4.757912582658166,0.5923804423481639,7.539778653003047,-0.1171165220569183,0.022,0.9999999999982259,-51.78202507260417,0.8046838691240137,162,2026-10-07 19:31:46.455244,25.0,0.6216020107372152,2.1089106551595016,3.2360131146379785
1112,cdot_cos,S,R-S,163,32,30430,-4.145641091564968e-05,-0.0009831854804220129,-0.08387663090874571,0.10939695336747175,859.0,4.779512362963149,0.5925116459253337,7.564688847497928,-0.03587872882368953,0.059,0.9999999999981709,619.1736154274598,0.8096510253618524,163,2026-10-07 19:31:46.514244,25.0,0.10390972753855617,0.30817335495555565,0.3660979712708907
1112,cdot_cos,T,S-T,164,32,30642,-0.24894771299039872,0.03409009915494062,-0.24890625657948307,0.0019800396346191106,859.0,4.794277038542922,0.5925140205343653,7.587888358018111,-0.02461861532135129,0.212,0.9999999999981093,4741.881022244926,0.8146183306314082,164,2026-10-07 19:31:46.726244,25.0,0.6329384602173793,0.21954600444445657,0.06964469613100478
1112,cdot_cos,P,T-P,165,33,31082,0.020110023289714826,0.001478124046299072,0.26905773628011354,0.9988026463846361,957.0,4.872599868847598,0.5937113049888895,7.626366555022201,-0.13174344533293494,0.44,0.9999999999981002,-89.47316538420976,0.8195858626004375,165,2026-10-07 19:31:47.166244,25.0,0.4434668870295624,0.13176558288862006,0.17800643251062856
1112,cdot_cos,Q,P-Q,166,33,31211,-0.003319596600865324,-0.0036697498287228585,-0.02342961989058015,0.3576127777274164,957.0,4.9102307514849075,0.594139712639836,7.65496186183543,-0.06403516135367336,0.129,0.9999999999980437,158.04639303164777,0.8245530881851286,166,2026-10-07 19:31:47.295244,25.0,0.347371305277374,0.43173810744272456,0.29171226850627185
1112,cdot_cos,R,Q-R,167,33,31234,0.09382811100427406,0.15233196226369047,0.09714770760513938,0.9189892594738301,957.0,4.983988300567821,0.595239971235471,7.692202905270465,-0.12683002917980876,0.023,0.9999999999980271,-57.07282640213666,0.8295202076738762,167,2026-10-07 19:31:47.318244,25.0,0.6095036079099789,2.048461498657822,3.20684996012669
1112,cdot_cos,S,R-S,168,33,31291,-0.0004345267732410052,-0.0021846235891833823,-0.09426263777751506,0.08654528927873066,957.0,5.004459980423167,0.5953435383523524,7.716541440913979,-0.035534492838726416,0.057,0.9999999999979663,881.5108413765331,0.8344873629163052,168,2026-10-07 19:31:47.375243,25.0,0.07659611431557753,0.3279892864022842,0.3591522781639636
1112,cdot_cos,T,S-T,169,33,31501,-0.1372044755755448,0.07062579144885625,-0.13676994880230378,0.03169928038181678,957.0,5.021379079217682,0.5953814701601482,7.7399663913079495,-0.029477018705203625,0.21,0.9999999999979025,159.69378960627787,0.8394546764536104,169,2026-10-07 19:31:47.585243,25.0,0.8142415643927782,0.2264459957865733,0.0805671371167356
1112,cdot_cos,P,T-P,170,34,32039,0.014991929063475653,0.0008248132562856175,0.15219640463902046,0.9782235713869355,860.0,5.099567298653528,0.5965514642180039,7.778086942638225,-0.13738612937216577,0.538,0.9999999999978912,-92.23047753313766,0.8444223352631947,170,2026-10-07 19:31:48.123244,25.0,0.4559172306907149,0.10908172865925511,0.14533126289190762
1112,cdot_cos,Q,P-Q,171,34,32166,-0.0058429934725965586,-0.006900893736494085,-0.020834922536072213,0.3726481049363046,860.0,5.13875101925504,0.5969968781311543,7.806755164205682,-0.06962403368860864,0.127,0.9999999999978284,152.13286716678914,0.8493895634720277,171,2026-10-07 19:31:48.250243,25.0,0.3778502780088856,0.44370073694675083,0.30853323308277325
1112,cdot_cos,R,Q-R,172,34,32187,0.0812548638116507,0.1629875718097498,0.08709785728424727,0.8982058312833036,860.0,5.212267285838003,0.5980698152092017,7.843620174674437,-0.1319512158979277,0.021,0.9999999999978072,-58.09024917169366,0.8543566790761477,172,2026-10-07 19:31:48.271244,25.0,0.6235351174558602,2.2962156137689784,3.5007745991886905
1112,cdot_cos,S,R-S,173,34,32246,0.0012961372265793323,-0.012450029115469077,-0.07995872658507137,0.1193113006920175,860.0,5.235192075033337,0.5982122661653372,7.868261975057178,-0.04152527318499763,0.059,0.9999999999977418,634.7864918990338,0.8593238369333019,173,2026-10-07 19:31:48.330244,25.0,0.11331177040139402,0.33675479383093726,0.3885557490734675
1112,cdot_cos,T,S-T,174,34,32460,-0.14364016404017818,0.01954964894869643,-0.14493630126675752,0.025997650895897752,860.0,5.252004351510053,0.5982433036931444,7.891379279015629,-0.030568309169429965,0.214,0.999999999997671,353.0230913889499,0.8642911648573233,174,2026-10-07 19:31:48.544243,25.0,0.6987641954961864,0.22539301168871595,0.0785620396108225
1112,cdot_cos,P,T-P,175,35,32899,0.018392964687162894,0.000863725669998129,0.16203312872734107,0.9828899006861618,879.0,5.331660284036108,0.5994161558227964,7.929538721120723,-0.14602271863758393,0.439,0.9999999999976582,-98.439015924718,0.8692587445164627,175,2026-10-07 19:31:48.983244,25.0,0.45354508709791774,0.13611878413978873,0.1814485934534269
1112,cdot_cos,Q,P-Q,176,35,33022,-0.0022169515124601403,-0.002446426227298023,-0.020609916199623032,0.3739641021551536,879.0,5.371516643984788,0.5998620974412471,7.9580787833366,-0.07386111260242575,0.123,0.9999999999975928,161.81850504527037,0.8742259736521406,176,2026-10-07 19:31:49.106244,25.0,0.37644229533918744,0.46916509164076675,0.3240354467372365
1112,cdot_cos,R,Q-R,177,35,33043,0.09170394309036167,0.16928336005637526,0.09392089460282181,0.9127769061846053,879.0,5.447074896579736,0.6009498621368929,7.995126786508105,-0.14140432178325793,0.021,0.9999999999975723,-62.09358462468584,0.8791930880050314,177,2026-10-07 19:31:49.127244,25.0,0.620232948970584,2.9537775193322346,3.598012028330882
1112,cdot_cos,S,R-S,178,35,33088,0.09170394309036167,0.16928336005637526,0.0,0.5,879.0,5.495575299796742,0.6015452954789676,8.025624121461032,-0.09176129520832221,0.045,0.9999999999975292,83.37293709815361,0.8841602311127806,178,2026-10-07 19:31:49.172243,25.0,0.5821647430797703,0.7103075155689236,1.077786738155674
1112,cdot_cos,T,S-T,179,35,33318,-0.25349637557609195,0.05525132638154644,-0.3452003186664536,0.00017863130696523503,879.0,5.5110025729809395,0.6015455081514817,8.048139283865046,-0.02935845784339386,0.23,0.9999999999974528,293422.2019496637,0.8891275911995791,179,2026-10-07 19:31:49.402244,25.0,0.11936743116536333,0.21167668011640015,0.06707510080085995
1112,cdot_cos,P,T-P,180,36,33778,0.020491846155957963,0.0015139524838992484,0.2739882217320499,0.9989413542159427,918.0,5.592946572650286,0.6027342131380903,8.086537174114154,-0.1571614284843326,0.46,0.9999999999974399,-107.5144565562578,0.8940952259315545,180,2026-10-07 19:31:49.862243,25.0,0.44343877920885577,0.13169982813031852,0.17813912971597018
1112,cdot_cos,Q,P-Q,181,36,33904,-0.003445541981432027,-0.003699651519825535,-0.02393738813738999,0.3547018905540263,918.0,5.632166414860833,0.6031560051327836,8.114643788641782,-0.07601344452043707,0.126,0.9999999999973687,192.3886299049027,0.8990624650623574,181,2026-10-07 19:31:49.988243,25.0,0.34385068185744855,0.4628822196047784,0.31126858897259324
1112,cdot_cos,R,Q-R,182,36,33926,0.09623116450359533,0.16225103740764268,0.09967670648502736,0.9235732721356888,918.0,5.70959289199069,0.6042535470752909,8.151835796909577,-0.1514783232653899,0.022,0.9999999999973465,-68.75808187571735,0.9040295793248346,182,2026-10-07 19:31:50.010243,25.0,0.6076299040382903,2.2411120484920386,3.5193853240844275
1112,cdot_cos,S,R-S,183,36,33985,-0.00032136534368466867,-0.0023711358394230943,-0.09655252984728,0.08212541404974424,918.0,5.730775344994482,0.6043510913695516,8.175519799546215,-0.04179843387856682,0.059,0.9999999999972697,1124.4111223329546,0.9089967399680243,183,2026-10-07 19:31:50.069243,25.0,0.07251084711711955,0.3237641916954471,0.35902462718292016
1112,cdot_cos,T,S-T,184,36,34197,-0.15487183377444644,0.05743951452364744,-0.15455046843076176,0.020557419130576286,918.0,5.747797066610753,0.6043755071032795,8.198158064811468,-0.03369969026181759,0.212,0.9999999999971876,331.701832392237,0.9139640898301823,184,2026-10-07 19:31:50.281244,25.0,0.7863753858011832,0.2343209798335221,0.080291139699389
1112,cdot_cos,P,T-P,185,37,34696,0.02066615585826772,0.0016023252738123378,0.17553798963271416,0.9877323947960386,844.0,5.830127440443896,0.6055480065544138,8.23635340321494,-0.1642395883829066,0.499,0.999999999997173,-111.33472002464744,0.9189318006053061,185,2026-10-07 19:31:50.780244,25.0,0.4516653085649183,0.12227697959400688,0.16499072912453486
1112,cdot_cos,Q,P-Q,186,37,34813,-0.0034383185820361147,-0.0040552874490355426,-0.024104474440303836,0.3537463687197493,844.0,5.869829492245572,0.6059676308361367,8.264307304597022,-0.08000606338886122,0.117,0.9999999999970942,200.73558338471736,0.9238990334109207,186,2026-10-07 19:31:50.897243,25.0,0.3489455921845493,0.4989858399858517,0.33933377608270054
1112,cdot_cos,R,Q-R,187,37,34841,0.08557627081701968,0.17341105180283567,0.0890145893990558,0.902504260818351,844.0,5.946890127000585,0.6070374986856405,8.301123712161408,-0.1566896971106595,0.028,0.9999999999970689,-71.67579973298909,0.9288661536858839,187,2026-10-07 19:31:50.925244,25.0,0.612995269784179,1.7873897553728637,2.7521655269647622
1112,cdot_cos,S,R-S,188,37,34887,-0.00012220032856327263,-0.0008235380138344868,-0.08569847114558296,0.10503774535812979,844.0,5.969923318546452,0.607161948511242,8.324995984539724,-0.04722552581158456,0.046,0.9999999999969863,879.5847705695953,0.9338332981609304,188,2026-10-07 19:31:50.971244,25.0,0.09847991627236437,0.4272610226117507,0.5007215553449353
1112,cdot_cos,T,S-T,189,37,35116,-0.20367732442340195,0.03590891438085829,-0.20355512409483867,0.006127158911250988,844.0,5.986198141080866,0.6071692076041786,8.347207367295836,-0.03347852970726532,0.229,0.9999999999968969,1893.7622405867908,0.9388006811464521,189,2026-10-07 19:31:51.200243,25.0,0.66323807777848,0.21903755250826867,0.07106909403674251
1112,cdot_cos,P,T-P,190,38,35540,0.0223859921978552,0.001593216521762081,0.22606331662125714,0.9965003374039834,955.0,6.070242517595239,0.6083491696667802,8.385525688764933,-0.1741502206910128,0.424,0.9999999999968803,-119.21713031484184,0.9437683232778311,190,2026-10-07 19:31:51.624243,25.0,0.44585538684662035,0.14614391901392582,0.19821786913767223
1112,cdot_cos,Q,P-Q,191,38,35664,-0.0026227053477439677,-0.0028393584484432194,-0.02500869754559917,0.34859575844768004,955.0,6.110128184404675,0.6087616459913957,8.41326494944733,-0.08346615580516543,0.124,0.9999999999967994,219.85277572084073,0.9487355705161813,191,2026-10-07 19:31:51.748243,25.0,0.3374030477782065,0.40751454970594336,0.3216586033019037
1112,cdot_cos,R,Q-R,192,38,35691,0.023334419214273514,0.25655975301450473,0.025957124562017483,0.6567688749890147,955.0,6.171306125922313,0.6095383460785766,8.446022826004375,-0.12899345167116513,0.027,0.9999999999967514,-58.616313577671114,0.9537026883992065,192,2026-10-07 19:31:51.775244,25.0,0.7026174590078009,1.5401886250693975,2.2658496858384405
1112,cdot_cos,S,R-S,193,38,35745,-0.07114882619384484,0.28975123786071605,-0.09448324540811835,0.08611027780903048,955.0,6.1932983701584225,0.6096401397065585,8.469403250431034,-0.04668022478489133,0.054,0.9999999999966616,808.6284821374636,0.9586698437217732,193,2026-10-07 19:31:51.829243,25.0,0.17147075426451394,0.3589749747757597,0.4072637821501772
1112,cdot_cos,T,S-T,194,38,35955,-0.25153494560942846,0.07517644449088486,-0.18038611941558363,0.010882544688289007,955.0,6.210075423198095,0.6096530036205501,8.4914955509328,-0.03572182160691675,0.21,0.9999999999965654,851.8716142807267,0.9636372117682812,194,2026-10-07 19:31:52.039244,25.0,0.7358194087822184,0.24295615597307413,0.07989072876034511
1112,cdot_cos,P,T-P,195,39,36495,0.017256601565168495,0.0008673894557844408,0.26879154717459697,0.9987946613871291,878.0,6.295339955667114,0.6108329960530513,8.529830641891062,-0.1828391928088242,0.54,0.9999999999965502,-124.676537874115,0.9686050366069012,195,2026-10-07 19:31:52.579243,25.0,0.44725467251421264,0.11566279384261213,0.15789728235003456
1112,cdot_cos,Q,P-Q,196,39,36621,-0.009574288989532892,-0.0096760439798036,-0.026830890554701385,0.3383239395708282,878.0,6.334991240548116,0.6112324040714127,8.557266451971476,-0.08584455533646673,0.126,0.999999999996456,242.84599460545417,0.9735722905808737,196,2026-10-07 19:31:52.705244,25.0,0.32306979745854186,0.47478182619644016,0.3146927371508131
1112,cdot_cos,R,Q-R,197,39,36643,0.08593548241957262,0.16070246513833805,0.0955097714091055,0.9158879570786248,878.0,6.414984975868617,0.6123129042701527,8.594234089318014,-0.17464829481664962,0.022,0.9999999999964265,-82.18761975586308,0.9785393995308582,197,2026-10-07 19:31:52.727243,25.0,0.60141393481811,2.3719630944539873,3.636078878204567
1112,cdot_cos,S,R-S,198,39,36702,0.004723188737418829,-0.03510161677392502,-0.0812122936821538,0.116057388719738,878.0,6.439357616704092,0.6124497420305289,8.617944698573632,-0.053640814379264906,0.059,0.9999999999963314,884.3135118895515,0.9835065621813237,198,2026-10-07 19:31:52.786243,25.0,0.10478082661445277,0.369986293350076,0.4130956073809317
1112,cdot_cos,T,S-T,199,39,36914,-0.11893789341857086,0.025768708940621384,-0.12366108215598969,0.043458111807868946,878.0,6.458643358483926,0.6125009768641752,8.640402556080337,-0.042587351685483235,0.212,0.9999999999962293,215.74116489002103,0.9884739442558104,199,2026-10-07 19:31:52.998244,25.0,0.7714001665196372,0.24479591039100992,0.0909704800935566
1112,cdot_cos,P,T-P,200,40,37373,0.023371459430188292,-9.242931362629631e-05,0.14230935284875915,0.972286579925354,840.0,6.54315108270988,0.6136465992267999,8.678286693924523,-0.18790874862046453,0.459,0.9999999999962083,-126.84930189564152,0.9934416863688078,200,2026-10-07 19:31:53.457243,25.0,0.4614592500385728,0.1359828006764196,0.184112688945434
1112,cdot_cos,Q,P-Q,201,40,37483,-0.0030563991582997028,-0.0033425229605010946,-0.026427858588487993,0.3405831777697499,840.0,6.583475569504879,0.6140476036901995,8.705641204859464,-0.09049030739477242,0.11,0.9999999999961117,242.93605213218405,0.998408922672825,201,2026-10-07 19:31:53.567244,25.0,0.3407650081764302,0.5558223640875972,0.36658624359090003
1112,cdot_cos,R,Q-R,202,40,37509,0.09993419117055645,0.17545962148610475,0.10299059032885616,0.9292197177521344,840.0,6.665432002809151,0.615140883715733,8.742808676358177,-0.1854315803042974,0.026,0.9999999999960829,-86.84076420695675,1.0033760361380153,202,2026-10-07 19:31:53.593244,25.0,0.5992948060162828,1.9962363225002249,3.152170511702784
1112,cdot_cos,S,R-S,203,40,37563,-5.61365890072783e-05,-0.00037963585496082714,-0.09999032775956372,0.07587513325993332,840.0,6.6872798582748905,0.6152301039832788,8.765693738704242,-0.0498151446862388,0.054,0.9999999999959773,1520.0182576041627,1.0083431924646027,203,2026-10-07 19:31:53.647244,25.0,0.0657172591817278,0.355055988555132,0.4045899160322094
1112,cdot_cos,T,S-T,204,40,37775,-0.29262351821115856,-0.004670922308504575,-0.2925673816221513,0.0006655809144543714,840.0,6.703778049573105,0.6152308865941802,8.787268788917162,-0.03772542126938444,0.212,0.999999999995865,15447.936381868318,1.0133105863903944,204,2026-10-07 19:31:53.859244,25.0,0.7258105656820875,0.2452863416364505,0.07782165706705164
1112,cdot_cos,P,T-P,205,41,38213,0.021945984754378405,0.0018103156202358838,0.314569502965537,0.9996159054234098,898.0,6.7912812671287455,0.6164055913415561,8.825599350647845,-0.20141038136881598,0.438,0.9999999999958463,-139.34136255520875,1.0182783258206067,205,2026-10-07 19:31:54.297244,25.0,0.4436613380157314,0.1478817770537784,0.19977903551515994
1112,cdot_cos,Q,P-Q,206,41,38339,-0.0014843869133820548,-0.0017909350022608838,-0.02343037166776046,0.357608460172133,898.0,6.833322486272215,0.616825508144133,8.853126584199336,-0.09765677253728106,0.126,0.9999999999957475,247.08134610202538,1.0232455916496603,206,2026-10-07 19:31:54.423244,25.0,0.34561450598493243,0.49448840252510157,0.33366046939261756
1112,cdot_cos,R,Q-R,207,41,38362,0.09819808380636176,0.18038796993431364,0.09968247071974382,0.9235834433259578,898.0,6.915892344565071,0.6179092057949747,8.890180553118547,-0.19334584928382542,0.023,0.9999999999957168,-88.29868429835814,1.0282126992727745,207,2026-10-07 19:31:54.446244,25.0,0.6096248804867219,2.2806089477873948,3.589993838819817
1112,cdot_cos,S,R-S,208,41,38421,-8.816555714879292e-05,-0.0008284327481868572,-0.09828624936351055,0.07891680012615283,898.0,6.938230497870435,0.618001749559933,8.912963195964217,-0.052701358094901875,0.059,0.9999999999956058,1519.7619337422007,1.0331798643449828,208,2026-10-07 19:31:54.505243,25.0,0.06934181591532,0.3316017009697028,0.37861276788753173
1112,cdot_cos,T,S-T,209,41,38632,-0.2518845961995854,0.0225638917760461,-0.2517964306424366,0.0018422737457186441,898.0,6.955021345279496,0.6180039098462115,8.93439415626876,-0.039725667500704734,0.211,0.9999999999954866,6006.4680888938665,1.0381472689268305,209,2026-10-07 19:31:54.716243,25.0,0.7213488534778684,0.24954279696150486,0.07957747587232493
1112,cdot_cos,P,T-P,210,42,39111,0.017884193286231597,0.0009230810480563241,0.269768789485817,0.9988237180577747,821.0,7.0435375581881905,0.6191744611335448,8.972705966184998,-0.21076059378302847,0.479,0.9999999999954674,-146.1148504410788,1.0431151021994391,210,2026-10-07 19:31:55.195244,25.0,0.4441855796236029,0.13825864951274688,0.1847937639012411
1112,cdot_cos,Q,P-Q,211,42,39201,-0.002253301453884191,-0.0018921806565196171,-0.020137494740115787,0.3767332151226119,821.0,7.0874731315127075,0.619615607370507,9.00045293319904,-0.10555499674574167,0.09,0.9999999999953627,238.48236304074842,1.0480823158176147,211,2026-10-07 19:31:55.285243,25.0,0.36909918391012425,0.6966869008887667,0.48817303693907815
1112,cdot_cos,R,Q-R,212,42,39256,0.08324881469508118,0.18384207438098052,0.08550211614896537,0.8944999012600858,821.0,7.1689412003481685,0.6206622547836559,9.036995288578916,-0.1972528410278636,0.055,0.999999999995329,-87.61101697681275,1.0530494741734362,212,2026-10-07 19:31:55.340243,25.0,0.6282138505296891,0.9672117213607269,1.4812376151901996
1112,cdot_cos,S,R-S,213,42,39300,-2.7466718886516946e-05,-0.0002430439908461691,-0.0832762814139677,0.1108678389368643,821.0,7.1938664208623875,0.6207919024315266,9.060176044682697,-0.0607919926866373,0.044,0.9999999999952128,1052.5516704885274,1.0580166155083859,213,2026-10-07 19:31:55.384243,25.0,0.10595747174944477,0.4784265526657026,0.5664822844140676
1112,cdot_cos,T,S-T,214,42,39531,-0.21825740396150364,0.015842419933390018,-0.21822993724261713,0.004253508905453224,821.0,7.21104273698275,0.6207968760952507,9.081491919520223,-0.042015207404560745,0.231,0.9999999999950866,3775.242220561158,1.0629840654187235,214,2026-10-07 19:31:55.615244,25.0,0.6396049872608807,0.23087334174415017,0.07435634684139764
1112,cdot_cos,P,T-P,215,43,39932,0.022787040421213933,0.0018649884727056072,0.24104444438271758,0.9975909506391025,895.0,7.300529904748185,0.6219626644129945,9.119779759133602,-0.2202512456080441,0.401,0.9999999999950656,-152.88885253922106,1.0679518010809754,215,2026-10-07 19:31:56.016243,25.0,0.44519644814606596,0.16424610501560002,0.22316001936517338
1112,cdot_cos,Q,P-Q,216,43,40059,-0.0026347374676958554,-0.003181246620714256,-0.02542177788890979,0.34625441646336896,895.0,7.342768113205262,0.6223669699310648,9.146906635606282,-0.10485885681377743,0.127,0.9999999999949556,285.40888916143246,1.072919080835973,216,2026-10-07 19:31:56.143244,25.0,0.3327198664050797,0.49674171134641965,0.33258431855965914
1112,cdot_cos,R,Q-R,217,43,40081,0.0924509730357212,0.17280412901635606,0.09508571050341705,0.9150676362337812,895.0,7.4267022994301755,0.6234346324792422,9.183783365307981,-0.2099322743499644,0.022,0.9999999999949216,-98.41444538403073,1.077886183809901,217,2026-10-07 19:31:56.165244,25.0,0.6062207873719789,2.446265692601222,3.8151902829506312
1112,cdot_cos,S,R-S,218,43,40140,-3.704060926699234e-05,-0.0003315800597607211,-0.09248801364498818,0.09011756188929976,895.0,7.450403803679715,0.6235397132538345,9.20647129025722,-0.05970655970828863,0.059,0.9999999999947985,1429.6213101263406,1.0828533513182288,218,2026-10-07 19:31:56.224244,25.0,0.08077666386185198,0.3470257807399453,0.4017204110091504
1112,cdot_cos,T,S-T,219,43,40350,-0.24067690524544277,0.04842855942524467,-0.2406398646361758,0.0024334797225556547,895.0,7.467651341557489,0.6235425506299297,9.227604909861295,-0.0435678214036244,0.21,0.9999999999946653,5687.90944987262,1.0878207792126755,219,2026-10-07 19:31:56.434243,25.0,0.6904388014732776,0.2568288764365582,0.08213113275130318
1112,cdot_cos,P,T-P,220,44,40827,0.02968352343451014,0.0012359432560105214,0.2703604286799529,0.9988409683660597,898.0,7.55827193178307,0.6247064565202843,9.2659123153147,-0.23028159253368916,0.477,0.9999999999946447,-160.41998986118438,1.0927886741574033,220,2026-10-07 19:31:56.911244,25.0,0.4444995118291808,0.13700652309010883,0.18998027300960332
1112,cdot_cos,Q,P-Q,221,44,40940,-0.0022434718497071084,-0.00230819967584044,-0.03192699528421725,0.3104160645912043,898.0,7.598355564585453,0.6250678782213034,9.292321067518658,-0.1027054966029319,0.113,0.9999999999945215,352.9840504071814,1.0977559351824955,221,2026-10-07 19:31:57.024243,25.0,0.288761407566184,0.5619211895311927,0.35472241418038075
1112,cdot_cos,R,Q-R,222,44,40968,0.10948021124169566,0.17468371546494166,0.11172368309140276,0.9423013894596723,898.0,7.685266120617119,0.6261641576109083,9.329654995688553,-0.2242910837430493,0.028,0.999999999994489,-110.90748242921812,1.1027230470350446,222,2026-10-07 19:31:57.052243,25.0,0.5815325304970919,1.9411756572257037,3.103948429702376
1112,cdot_cos,S,R-S,223,44,41020,-5.654450056656183e-05,-0.0002575725343650093,-0.10953675574226222,0.06074404946836481,898.0,7.707061401390092,0.6262347833299662,9.35169875658479,-0.056643131019578075,0.052,0.9999999999943541,2373.752153744375,1.1076902029069493,223,2026-10-07 19:31:57.104243,25.0,0.05183329582977227,0.38416927017267316,0.41914001486486313
1112,cdot_cos,T,S-T,224,44,41248,-0.1762579304317717,0.07207339768922849,-0.17620138593120516,0.012068261101252973,898.0,7.725219724715077,0.6262488141810327,9.37285324871273,-0.04731293395562544,0.228,0.9999999999942136,664.9772718489569,1.112657675410984,224,2026-10-07 19:31:57.332243,25.0,0.8210249107762335,0.2398744950712779,0.079641768969233
1112,cdot_cos,P,T-P,225,45,41725,0.02292833517158949,0.0006555936696804211,0.1991862656033612,0.9931705390238778,802.0,7.816444171142595,0.6274027683977899,9.411061155589932,-0.2390775760435101,0.477,0.9999999999941903,-166.18045959118476,1.1176256025870632,225,2026-10-07 19:31:57.809243,25.0,0.44838539122567217,0.1401975281798888,0.19124621892561341
1112,cdot_cos,Q,P-Q,226,45,41838,-0.00412726510728265,-0.005073110877715345,-0.02705560027887214,0.3370674912953368,802.0,7.858968166598691,0.6277940745975402,9.437834917547908,-0.11235636766052448,0.113,0.9999999999940626,323.8415554464213,1.1225928685286768,226,2026-10-07 19:31:57.922244,25.0,0.3237282971123498,0.5666809312981903,0.37631854385925934
1112,cdot_cos,R,Q-R,227,45,41864,0.08891162367498928,0.18252936207437687,0.09303888878227193,0.9110053261002141,802.0,7.944514061615986,0.6288508340320935,9.474613838497477,-0.22761040677032932,0.026,0.9999999999940239,-109.0636481126128,1.127559975148798,227,2026-10-07 19:31:57.948243,25.0,0.6026820994611035,2.1216400110112192,3.290226731434412
1112,cdot_cos,S,R-S,228,45,41917,-0.00017908401182330867,-0.00341519103046287,-0.08909070768681258,0.0973284255732433,802.0,7.969293447171275,0.6289636616196217,9.49716371810716,-0.0663820993898961,0.053,0.9999999999938853,1428.9794802195163,1.1325271332455917,228,2026-10-07 19:31:58.001244,25.0,0.08814325139260175,0.4109519504305132,0.467535576514881
1112,cdot_cos,T,S-T,229,45,42128,-0.16102907935821378,0.007280808780374762,-0.16084999534639047,0.017614698781032976,802.0,7.98807496836162,0.6289840798855205,9.518277048826658,-0.05045087837486168,0.211,0.9999999999937365,780.2435865012025,1.1374945878385445,229,2026-10-07 19:31:58.212243,25.0,0.7292221353588011,0.26241657226126963,0.08901194876941093
1112,cdot_cos,P,T-P,230,46,42527,0.02055379544591432,0.0015571521490895686,0.1815828748041281,0.9894348374280835,877.0,8.08003324066553,0.6301302520031761,9.556419560010808,-0.24841549842884555,0.399,0.9999999999937121,-172.718056044595,1.142462400869589,230,2026-10-07 19:31:58.611244,25.0,0.4507198550978872,0.17133194455541645,0.23047186041080217
1112,cdot_cos,Q,P-Q,231,46,42646,-0.0023749356425566237,-0.0026884162318031543,-0.022928731088470943,0.360494556301747,877.0,8.124797860116843,0.6305474892643725,9.583514045596731,-0.12189894441598427,0.119,0.9999999999935861,303.2244858718103,1.1474296841911082,231,2026-10-07 19:31:58.730243,25.0,0.3542045752964452,0.5530114613184336,0.37617327270010315
1112,cdot_cos,R,Q-R,232,46,42672,0.09307111704691526,0.1724120373488306,0.09544605268947189,0.9157651579455278,877.0,8.211649968459318,0.6316065198582453,9.620365988514154,-0.2381444746680958,0.026,0.9999999999935487,-109.76597930661264,1.152396789879644,232,2026-10-07 19:31:58.756243,25.0,0.6137729025308546,2.1398314465313955,3.340465705479805
1112,cdot_cos,S,R-S,233,46,42717,-1.195226743927779e-05,-5.705800134003593e-05,-0.09308306931435453,0.08890516654335354,877.0,8.236069095336475,0.6317092663087659,9.642645557087663,-0.06740439217669396,0.045,0.9999999999934034,1661.7613710874516,1.157363933577139,233,2026-10-07 19:31:58.801243,25.0,0.079414796384901,0.4694137283550898,0.5426472639368364
1112,cdot_cos,T,S-T,234,46,42947,-0.24330897722617592,0.0241960080868314,-0.24329702495873665,0.0022774345751704764,877.0,8.253897204011276,0.6317118981509076,9.663356038500448,-0.049337407194108,0.23,0.9999999999932468,6864.767721652494,1.1623314389580495,234,2026-10-07 19:31:59.031244,25.0,0.6933693639755529,0.24243335171906774,0.07751351597739324
1112,cdot_cos,P,T-P,235,47,43404,0.03459159064964855,0.0016829985458524422,0.27790056787582446,0.9990399015786392,859.0,8.347588437127246,0.6328656474757604,9.701669246889107,-0.2606912191630538,0.457,0.9999999999932238,-183.18867661821815,1.1672993946972554,235,2026-10-07 19:31:59.488243,25.0,0.44452726576260754,0.14549698065763764,0.20501363920343701
1112,cdot_cos,Q,P-Q,236,47,43516,-0.0027168215362887455,-0.002950623448151853,-0.03730841218593729,0.28237517610401197,859.0,8.386881444332356,0.6331914756219004,9.727295553447188,-0.11016555603254886,0.112,0.9999999999930768,461.9786992429442,1.172266669725604,236,2026-10-07 19:31:59.600243,25.0,0.2550339323518646,0.5775821614699614,0.3508304214741972
1112,cdot_cos,R,Q-R,237,47,43543,0.11177072663121497,0.19343270756970815,0.11448754816750371,0.9459453233188022,859.0,8.476966841296518,0.6342820983526706,9.764672490962015,-0.25420475947762683,0.027,0.9999999999930421,-132.07060460160793,1.177233775872468,237,2026-10-07 19:31:59.627244,25.0,0.5674363480930532,2.0808320000579594,3.3364961838578258
1112,cdot_cos,S,R-S,238,47,43597,-1.8093243815396103e-05,-0.00011296491760049042,-0.11178881987503037,0.05761013795465307,859.0,8.499246372335486,0.6343484753240342,9.786275354662543,-0.06328292510501353,0.054,0.9999999999928845,2876.326389265927,1.182200937758157,238,2026-10-07 19:31:59.681243,25.0,0.048949969465996446,0.3722987115912708,0.41258390812904655
1112,cdot_cos,T,S-T,239,47,43806,-0.2691471181578218,0.03855930860919367,-0.26912902491400637,0.0011952241214878148,859.0,8.517175102148375,0.634349852377576,9.806834519028927,-0.05104543297171468,0.209,0.9999999999927172,8886.722092700658,1.187168414636211,239,2026-10-07 19:31:59.890244,25.0,0.7868345684099439,0.26942831710425863,0.08578339623391738
1112,cdot_cos,P,T-P,240,48,44263,0.017271147907500287,0.0005157112528181289,0.28641826606532206,0.9992239030033807,820.0,8.611867408885066,0.6355003177621666,9.845152775317247,-0.27102203880957193,0.457,0.9999999999926945,-191.20662714778868,1.192136402340358,240,2026-10-07 19:32:00.347244,25.0,0.4441220861023808,0.15424405628969035,0.20720417229035312
1112,cdot_cos,Q,P-Q,241,48,44380,-0.004398697661907844,-0.00539972607494106,-0.021669845569408132,0.36778147934774136,820.0,8.658154169597152,0.6359233775093543,9.872210781422826,-0.13350308115422546,0.117,0.9999999999925542,325.0580055642396,1.1971036930810046,241,2026-10-07 19:32:00.464243,25.0,0.3569781235469893,0.5716029784697896,0.39561333941953497
1112,cdot_cos,R,Q-R,242,48,44406,0.08337360775160611,0.17327830738658734,0.08777230541351395,0.8997371687410911,820.0,8.745622505846997,0.6369574603287238,9.908758036691566,-0.2539254254228233,0.026,0.9999999999925103,-116.45328789238287,1.2020707957188876,242,2026-10-07 19:32:00.490243,25.0,0.6223560292811111,2.192756669374924,3.3641667788401994
1112,cdot_cos,S,R-S,243,48,44456,-0.00032442720073804345,-0.0035611306390666065,-0.08369803495234415,0.10983272442622798,820.0,8.772177516404648,0.6370836064139643,9.931175947707432,-0.07758420844777118,0.05,0.9999999999923522,1397.912718724576,1.2070379499581723,243,2026-10-07 19:32:00.540244,25.0,0.1030129163648752,0.4523719407163007,0.5311002111530172
1112,cdot_cos,T,S-T,244,48,44685,-0.1912207105734146,0.01830779223054009,-0.19089628337267656,0.00838902067264918,820.0,8.790859699918627,0.6370932406733505,9.951739993809522,-0.054722990676198145,0.229,0.9999999999921784,2372.908685063489,1.2120054826097808,244,2026-10-07 19:32:00.769243,25.0,0.6585185553254651,0.24911751687547284,0.08158158739728913
1112,cdot_cos,P,T-P,245,49,45083,0.02685184466987457,0.0022572712998184695,0.21807255524328917,0.9957297940897377,920.0,8.886273339133615,0.6382359896251542,9.989999315373888,-0.28091361265712156,0.398,0.9999999999921529,-197.935532230342,1.2169733783896053,245,2026-10-07 19:32:01.167244,25.0,0.4470001392723413,0.17549137221148522,0.2397327618467019
1112,cdot_cos,Q,P-Q,246,49,45208,-0.0004401184874195158,-0.000498622131128884,-0.027291963157294083,0.3357483653190147,920.0,8.93055083219897,0.6386209596195791,10.016405169159517,-0.1313298542108835,0.125,0.9999999999920051,388.5595257097414,1.2219406926417484,246,2026-10-07 19:32:01.292243,25.0,0.320141305627244,0.4405355824510977,0.3542199445228391
1112,cdot_cos,R,Q-R,247,49,45229,0.017674184683870147,0.27784092633017465,0.01811430317128966,0.6113184338289556,920.0,8.996407234746389,0.6393214417408217,10.04775218514455,-0.19637585533601948,0.021,0.9999999999919132,-92.85890267940998,1.2269077830685928,247,2026-10-07 19:32:01.313244,25.0,0.7180384411418812,2.1724884384219507,3.1360191689247396
1112,cdot_cos,S,R-S,248,49,45274,-0.07391064193343297,0.30505296787532504,-0.09158482661730312,0.09198622885723289,920.0,9.021795346612691,0.6394267933786596,10.069730238132585,-0.07607998855422418,0.045,0.9999999999917446,1141.8509408171167,1.2318749266775297,248,2026-10-07 19:32:01.358243,25.0,0.20573297384234804,0.4869330239150729,0.5641802636956091
1112,cdot_cos,T,S-T,249,49,45504,-0.30135311897648287,0.02391608419432762,-0.2274424770430499,0.003381455261599251,920.0,9.040231206898746,0.6394306658966659,10.090072800181932,-0.05538047331241875,0.23,0.9999999999915616,5345.234084985077,1.2368424745127025,249,2026-10-07 19:32:01.588243,25.0,0.6881357147756133,0.2501959885988114,0.08015591428719196
1112,cdot_cos,P,T-P,250,50,46003,0.029608234488027265,0.002713282984982282,0.3309613534645101,0.9997450106704179,858.0,9.136885501368145,0.6405747989625344,10.128404451024254,-0.29178859667346413,0.499,0.9999999999915379,-206.62642345851074,1.241810617734507,250,2026-10-07 19:32:02.087244,25.0,0.44476757566242653,0.14018110483122215,0.19369598090059942
1112,cdot_cos,Q,P-Q,251,50,46129,-0.0010019721810630583,-0.001281326105977075,-0.030610206669090322,0.31750640160108295,858.0,9.180131949520305,0.6409378277217921,10.154393630770624,-0.13150272324680984,0.126,0.9999999999913725,441.5238995236138,1.2467779389212268,251,2026-10-07 19:32:02.213243,25.0,0.29556138278483995,0.5298350794143293,0.3432257789854017
1112,cdot_cos,R,Q-R,252,50,46150,0.09310307661636075,0.18473233421341853,0.0941050487974238,0.9131427472511436,858.0,9.270403941380556,0.6419809914728454,10.191161280843408,-0.2761429918138612,0.021,0.999999999991326,-138.65538216891377,1.2517450267745058,252,2026-10-07 19:32:02.234244,25.0,0.5922730147006106,2.7538793117653,4.298666279059541
1112,cdot_cos,S,R-S,253,50,46209,-3.24907956112632e-05,-0.0011716169746027443,-0.09313556741197201,0.08879891387654952,858.0,9.295794880614448,0.6420823628250155,10.212974164463471,-0.07814836136558564,0.059,0.9999999999911464,1953.1615807586202,1.2567122015698995,253,2026-10-07 19:32:02.293243,25.0,0.07937485356213939,0.3801240684096683,0.43035490226936
1112,cdot_cos,T,S-T,254,50,46422,-0.17013510777904003,0.03898014640078535,-0.17010261698342877,0.014028099581914632,858.0,9.315258581452897,0.6420983759065634,10.233393248447724,-0.06004904505680695,0.213,0.9999999999909532,1130.283153475629,1.2616797254688141,254,2026-10-07 19:32:02.506243,25.0,0.7397752205996974,0.27324589239662367,0.09137887717581511
1112,cdot_cos,P,T-P,255,51,46861,0.01866570947391536,0.000830563274885518,0.1888008172529554,0.9911637784816383,859.0,9.41219763077541,0.6432289853306135,10.271572721471925,-0.3005221214838205,0.439,0.9999999999909246,-212.6933238939307,1.2666477685576212,255,2026-10-07 19:32:02.945244,25.0,0.44924617086454327,0.16439665435423073,0.22081788000572453
1112,cdot_cos,Q,P-Q,256,51,46981,-0.003589043262243997,-0.004158970997645893,-0.02225475273615936,0.3643880606540128,859.0,9.459598843975911,0.6436442386884714,10.298338425829845,-0.14800496312671,0.12,0.9999999999907636,367.2869959290645,1.2716150827231623,256,2026-10-07 19:32:03.065243,25.0,0.3568332178524486,0.573874816456077,0.3950101100041792
1112,cdot_cos,R,Q-R,257,51,47007,0.08544998818857306,0.1678300601394011,0.08903903145081705,0.9025580141949074,859.0,9.549927586724868,0.6446718550726902,10.334906868649462,-0.28373263103834356,0.026,0.9999999999907141,-132.08009330720978,1.2765821803712523,257,2026-10-07 19:32:03.091244,25.0,0.6197961314394457,2.2554315467707613,3.474182413421422
1112,cdot_cos,S,R-S,258,51,47052,-0.00018460953917988568,-0.0011125042506838162,-0.08563459772775295,0.10518795028342491,859.0,9.57688128440799,0.6447915313329556,10.356916401346924,-0.08517413310701331,0.045,0.9999999999905289,1659.1302025225536,1.2815493236280942,258,2026-10-07 19:32:03.136243,25.0,0.09717842462276863,0.5133937116140272,0.598971059624947
1112,cdot_cos,T,S-T,259,51,47281,-0.18878776104596642,0.04658909696751802,-0.18860315150678653,0.008879606352183912,859.0,9.59613302077013,0.6448016331642322,10.37713110990948,-0.06098203254780434,0.229,0.9999999999903273,2394.823264894286,1.2865168996194765,259,2026-10-07 19:32:03.365243,25.0,0.6725299303858966,0.25645796005568255,0.0840687177386019
1112,cdot_cos,P,T-P,260,52,47720,0.023348016834229095,0.0014304298358028564,0.21213577788019553,0.9950499459986858,925.0,9.694339030113493,0.6459328266922635,10.415385291790242,-0.3125342407605011,0.439,0.9999999999902983,-222.3776939835402,1.2914849763235337,260,2026-10-07 19:32:03.804243,25.0,0.44714208320630927,0.16462234041055634,0.22370389372064411
1112,cdot_cos,Q,P-Q,261,52,47845,-0.0022569716354819496,-0.0023812676939969947,-0.025604988469711043,0.3452183486779216,925.0,9.740671435650599,0.6463248976338363,10.441730821806312,-0.1484803130849777,0.125,0.9999999999901268,418.4291929859013,1.2964523088898818,261,2026-10-07 19:32:03.929244,25.0,0.3312484004411902,0.5595324186296651,0.3706592442968457
1112,cdot_cos,R,Q-R,262,52,47867,0.10225452107835538,0.1763996340975452,0.10451149271383733,0.9316800292315489,925.0,9.83422213477091,0.647382041107394,10.47882655512521,-0.3015470988618339,0.022,0.9999999999900804,-144.79282103660944,1.3014193952956956,262,2026-10-07 19:32:03.951244,25.0,0.601935547897153,3.4676567858216765,4.252304505468662
1112,cdot_cos,S,R-S,263,52,47912,0.10225452107835538,0.1763996340975452,0.0,0.5,925.0,9.893248334226753,0.6479487792640346,10.507996131673963,-0.19160485951009731,0.045,0.9999999999899627,193.99124280500172,1.3063865390286682,263,2026-10-07 19:32:03.996243,25.0,0.5633823695298454,0.8648637894317012,1.31169332124096
1112,cdot_cos,T,S-T,264,52,48141,-0.22807330151064714,0.056145293362079435,-0.3303278225890025,0.00025905901701385117,925.0,9.912059875819763,0.6479490727934948,10.527959131180697,-0.06130514156240137,0.229,0.9999999999897516,443906.78150908503,1.3113541342490278,264,2026-10-07 19:32:04.225244,25.0,0.11938175765869503,0.2582282559818132,0.08214646983847121
1112,cdot_cos,P,T-P,265,53,48645,0.020944663750769244,0.001709054939048851,0.2490179652614164,0.9980254714382777,819.0,10.011516875466423,0.6490790644254959,10.566275020683296,-0.32557656539788565,0.504,0.9999999999897217,-233.8702485499676,1.3163224118700707,265,2026-10-07 19:32:04.729243,25.0,0.4441011872648628,0.1456536571123861,0.19733531675924712
1112,cdot_cos,Q,P-Q,266,53,48767,-0.003534822451954196,-0.004946118086386143,-0.02447948620272344,0.3516060343545525,819.0,10.058878762189048,0.6494767653171694,10.592680234011018,-0.15610225246157566,0.122,0.9999999999895389,426.13510928575175,1.3212897451279288,266,2026-10-07 19:32:04.851244,25.0,0.3376781055037747,0.5663682091144272,0.3882121862510217
1112,cdot_cos,R,Q-R,267,53,48793,0.07863216999031813,0.18284689197095708,0.08216699244227232,0.8863687809343446,819.0,10.149710718490343,0.650478413015942,10.62893984895701,-0.3010406401081803,0.026,0.9999999999894792,-144.69996569073422,1.3262568393697385,267,2026-10-07 19:32:04.877243,25.0,0.6178819386468782,2.3041069369812686,3.493536780819061
1112,cdot_cos,S,R-S,268,53,48849,1.7452093837137694e-05,-0.002286199886685328,-0.078614717896481,0.12288728574944265,819.0,10.178692322912074,0.6506171781872921,10.651097252181874,-0.09660439375443626,0.056,0.9999999999892787,1473.253298105308,1.3312240106723428,268,2026-10-07 19:32:04.933243,25.0,0.12048608669351193,0.4316071148251499,0.5175286503880423
1112,cdot_cos,T,S-T,269,53,49061,-0.21389702509878503,0.008423753279755947,-0.21391447719262216,0.004735779415686353,819.0,10.19805071535076,0.6506225253516734,10.671037937461433,-0.06468038161564992,0.212,0.9999999999890548,5970.269447967255,1.3361915780308065,269,2026-10-07 19:32:05.145243,25.0,0.6104458958560504,0.28233667797329326,0.09131317188059633
1112,cdot_cos,P,T-P,270,54,49464,0.025232712195741504,0.00211183808131643,0.23912973729452652,0.9974731290018565,896.0,10.29840307437275,0.6517479252380303,10.709346842448028,-0.336762096394877,0.403,0.9999999999890213,-241.7644768563215,1.3411596368305292,270,2026-10-07 19:32:05.548243,25.0,0.445777871735139,0.18172232514900416,0.2490132978213149
1112,cdot_cos,Q,P-Q,271,54,49590,-0.002931847092709463,-0.003489094739030354,-0.028164559288450967,0.33090073698078515,896.0,10.344518909420858,0.6521208912303905,10.735301495662812,-0.15578351181927913,0.126,0.9999999999888333,485.24151875163034,1.3461269874606026,271,2026-10-07 19:32:05.674243,25.0,0.3129439060404974,0.5558158696017144,0.3659986908579957
1112,cdot_cos,R,Q-R,272,54,49613,0.0916407146045267,0.16911306022558503,0.09457256169723617,0.9140652791716491,896.0,10.438468673512382,0.653150185634843,10.772065843661865,-0.3190815438784571,0.023,0.9999999999887778,-158.65046127988057,1.351094072588754,272,2026-10-07 19:32:05.697243,25.0,0.5994305037839296,2.6226255286071427,4.084772351805416
1112,cdot_cos,S,R-S,273,54,49669,-0.00011263481663859826,-0.000825762507767439,-0.09175334942116531,0.09163493756383316,896.0,10.465159683736786,0.6532532935162902,10.793552820527628,-0.09116430213170613,0.056,0.9999999999885637,2210.473521010647,1.3560612452399823,273,2026-10-07 19:32:05.753243,25.0,0.0820791584143355,0.414152390615866,0.47662518257864306
1112,cdot_cos,T,S-T,274,54,49879,-0.20054279731987043,0.07243937343834789,-0.20043016250323184,0.006621735264734558,896.0,10.48485374126136,0.6532607437536949,10.813426524828282,-0.06741454206693444,0.21,0.9999999999883314,3187.785673766606,1.361028822207893,274,2026-10-07 19:32:05.963244,25.0,0.7030731650183945,0.2878108508263813,0.0937812263074904
1112,cdot_cos,P,T-P,275,55,50360,0.0236464088206091,0.002032553659106396,0.22418920614047952,0.9963330822169802,878.0,10.586040241083866,0.654380879087364,10.85171689105059,-0.3478382580550349,0.481,0.9999999999882988,-250.3480673800001,1.3659971187483355,275,2026-10-07 19:32:06.444243,25.0,0.44655622026691166,0.15470083871995985,0.2103669434979359
1112,cdot_cos,Q,P-Q,276,55,50485,-0.002146922797938831,-0.0026496715856009967,-0.02579333161854793,0.3441547862022645,878.0,10.63367594810996,0.654767400898336,10.877852112050325,-0.1648218337676599,0.125,0.9999999999881003,473.4957228601003,1.3709644734098898,276,2026-10-07 19:32:06.569243,25.0,0.32943064144128203,0.5704935292688091,0.3810856562087537
1112,cdot_cos,R,Q-R,277,55,50508,0.09351294799024502,0.17714643477028819,0.09565987078818386,0.9161765872239561,878.0,10.728663623401069,0.6557953652411773,10.914649485261897,-0.33040342617469765,0.023,0.9999999999880416,-161.07717505974935,1.3759315562437495,277,2026-10-07 19:32:06.592243,25.0,0.6058337055301639,2.643476449285888,4.129898925700351
1112,cdot_cos,S,R-S,278,55,50567,-0.00016312880646475713,-0.0021384291024705154,-0.09367607679670978,0.08771160708214984,878.0,10.755275864777111,0.6558937027440183,10.935972810081704,-0.09308197992379943,0.059,0.9999999999878155,2413.3361067218148,1.3808987376522293,278,2026-10-07 19:32:06.651244,25.0,0.078113215214566,0.3965939344796911,0.45105493857699647
1112,cdot_cos,T,S-T,279,55,50778,-0.18256599026250836,0.05081054846930713,-0.1824028614560436,0.010353004556339229,878.0,10.775461707669672,0.6559053090907245,10.95581808335984,-0.07075699774966443,0.211,0.9999999999875718,1923.5150163203764,1.3858663315218624,279,2026-10-07 19:32:06.862243,25.0,0.7294122222952123,0.289401440218098,0.09566750186047752
1112,cdot_cos,P,T-P,280,56,51238,0.02416507433432138,0.0019020748442213293,0.20673106459682974,0.9943378683282882,818.0,10.877403272549149,0.6570191533315697,10.994073266045218,-0.3588045410233425,0.46,0.9999999999875357,-258.6066639399384,1.3908346089131902,280,2026-10-07 19:32:07.322243,25.0,0.44807352967432296,0.16243110388953086,0.22161209756407954
1112,cdot_cos,Q,P-Q,281,56,51360,-0.0028546780080967687,-0.0035601455613248,-0.02701975234241815,0.3372677787493433,818.0,10.92489832324804,0.6573965646833907,11.020015941094146,-0.16823389411110937,0.122,0.999999999987327,504.94148094043595,1.3958019621719528,281,2026-10-07 19:32:07.444243,25.0,0.322139043944673,0.580461153227269,0.3893036942532116
1112,cdot_cos,R,Q-R,282,56,51381,0.08316746723651286,0.1805715175326754,0.08602214524460963,0.8957205002838718,818.0,11.019035793936602,0.6583979320941001,11.056423111619388,-0.33514234339027915,0.021,0.9999999999872612,-166.68052853938963,1.4007690372988184,282,2026-10-07 19:32:07.465244,25.0,0.607731221684747,2.9268909609480716,4.482736699455325
1112,cdot_cos,S,R-S,283,56,51427,-6.92919415833246e-05,-0.0005887682168339879,-0.08323675917809618,0.11096527514901622,818.0,11.04782774360786,0.6585218872661405,11.078094514303018,-0.10305968832454108,0.046,0.99999999998703,1872.3111851292315,1.4057361834138764,283,2026-10-07 19:32:07.511244,25.0,0.10519656047477151,0.5278421303552103,0.6259119493751565
1112,cdot_cos,T,S-T,284,56,51657,-0.22976889293212754,0.02281889986855195,-0.2296996009905442,0.0031965228561603855,818.0,11.067597269929282,0.658525457661771,11.097710036664457,-0.07091971422503779,0.23,0.9999999999867748,9001.796278574426,1.410703845206873,284,2026-10-07 19:32:07.741244,25.0,0.6355985344096724,0.26732227046413687,0.08595446226705282
1112,cdot_cos,P,T-P,285,57,52056,0.029824497774832356,0.0012746972804737356,0.2595933907069599,0.9984835033128974,898.0,11.170795988021363,0.6596398448765836,11.136044673659073,-0.3716777692865433,0.399,0.999999999986737,-269.886491036314,1.4156719872718206,285,2026-10-07 19:32:08.140243,25.0,0.44521840237126714,0.18620200296518433,0.2586434037395509
1112,cdot_cos,Q,P-Q,286,57,52170,-0.002707423040974143,-0.00276814117560157,-0.0325319208158065,0.3071881531709617,898.0,11.216186468295499,0.6599823371134701,11.161357733126525,-0.16448934121984593,0.114,0.9999999999865182,604.9434286457578,1.4206393249303209,286,2026-10-07 19:32:08.254244,25.0,0.2837715582491409,0.6307914596906334,0.3981621076678621
1112,cdot_cos,R,Q-R,287,57,52197,0.10519373717460925,0.1698949524585725,0.1079011602155834,0.9368806786512233,898.0,11.314616440830827,0.6610258567219596,11.198532085146253,-0.358453065196987,0.027,0.9999999999864622,-185.87453690296192,1.4256064155598995,287,2026-10-07 19:32:08.281244,25.0,0.5820998349220988,2.292204172533039,3.645554538345487
1112,cdot_cos,S,R-S,288,57,52247,-0.00010313250895380803,-0.0004259435371261992,-0.10529686968356305,0.06708073677496248,898.0,11.339965493612283,0.6611005129550729,11.21929165219893,-0.0928111974350363,0.05,0.9999999999862121,3558.2007916038483,1.4305735736819294,288,2026-10-07 19:32:08.331244,25.0,0.057144349160096655,0.4600629841716142,0.5069810556291188
1112,cdot_cos,T,S-T,289,57,52476,-0.17760810989694084,0.0758956979061303,-0.17750497738798704,0.011685820779371638,898.0,11.360622739247988,0.6611135176479574,11.23897381149812,-0.0757851777865857,0.229,0.9999999999859497,1309.2212018829666,1.4355412493004125,289,2026-10-07 19:32:08.560243,25.0,0.7987864786781209,0.2713868511140018,0.09020631281967458
1112,cdot_cos,P,T-P,290,58,52954,0.020700247790759217,-1.6428910180899616e-05,0.19830835768770005,0.9930200488940295,818.0,11.464260671422496,0.6622177207511752,11.277206089301027,-0.3816877045670716,0.478,0.999999999985911,-277.0346559333565,1.4405096530808341,290,2026-10-07 19:32:09.038244,25.0,0.4486791835559626,0.16037139479129117,0.21681575768725386
1112,cdot_cos,Q,P-Q,291,58,53065,-0.003512966931647314,-0.0040261227810509176,-0.02421321472240653,0.35312513853980343,818.0,11.513937792668463,0.6626099582989848,11.303325377269504,-0.1840797968220389,0.111,0.9999999999856896,503.7965101723486,1.4454769876762599,291,2026-10-07 19:32:09.149244,25.0,0.34181334329715224,0.667280213328918,0.4475416328465497
1112,cdot_cos,R,Q-R,292,58,53091,0.09821080560949241,0.18093814091613272,0.10172377254113973,0.9271082124347679,818.0,11.612396878781515,0.6636386881039916,11.340309350000178,-0.36664308486665675,0.026,0.9999999999856277,-177.46476009160926,1.4504440733034907,292,2026-10-07 19:32:09.175244,25.0,0.6077863234515631,2.404121751286066,3.7868879274251066
1112,cdot_cos,S,R-S,293,58,53144,-0.00021486781514346652,-0.002173557129965184,-0.09842567342463587,0.07866380703130323,818.0,11.638952123735338,0.6637259031584167,11.361203900637058,-0.0994087827562875,0.053,0.9999999999853684,3064.0845651234918,1.4554112404405006,293,2026-10-07 19:32:09.228243,25.0,0.06800076404692149,0.4457365901810629,0.5010423576192956
1112,cdot_cos,T,S-T,294,58,53355,-0.1841992608458231,0.024276415460842957,-0.18398439303067965,0.009955646896485442,818.0,11.659644957340708,0.6637369402509905,11.380764385494563,-0.07761923497980115,0.211,0.9999999999850919,1974.2108377583963,1.4603788788282828,294,2026-10-07 19:32:09.439244,25.0,0.7552370862287036,0.2969953167848374,0.09807030144725118
1112,cdot_cos,P,T-P,295,59,53772,0.022000502873813298,0.0008017913019165284,0.20619976371963641,0.9942625936232712,898.0,11.76428414741854,0.6648383042019858,11.41902007300881,-0.3939740682649383,0.417,0.9999999999850525,-287.23913925025664,1.4653471389445594,295,2026-10-07 19:32:09.856243,25.0,0.4479902103934548,0.18502608072148818,0.25093330953916404
1112,cdot_cos,Q,P-Q,296,59,53889,-0.0031038142740836758,-0.003297787558966311,-0.025104317147896973,0.34805313037300756,898.0,11.81395670866243,0.6652234264752229,11.444985187816942,-0.18814557149109776,0.117,0.9999999999848258,534.4497347393999,1.4703144981046534,296,2026-10-07 19:32:09.973243,25.0,0.33487922357208255,0.6319636834040625,0.42455180550333116
1112,cdot_cos,R,Q-R,297,59,53916,0.0915914158686896,0.15684828843533286,0.09469523014277328,0.9143058634746535,898.0,11.91216364933509,0.6662340610076525,11.481718785064926,-0.3737496823246549,0.027,0.9999999999847605,-183.65106759944837,1.4752815853325945,297,2026-10-07 19:32:10.000243,25.0,0.608596343406504,2.3352895778188687,3.6372940989874403
1112,cdot_cos,S,R-S,298,59,53964,-0.00013758514210081263,-0.0005997076239821026,-0.09172900101079041,0.09168561797002868,898.0,11.940062345864648,0.666335322357665,11.502780005116616,-0.10672346626043172,0.048,0.9999999999844957,2637.000356317195,1.4802487381457368,298,2026-10-07 19:32:10.048243,25.0,0.08191784291377786,0.5076820403715673,0.5812228443657919
1112,cdot_cos,T,S-T,299,59,54194,-0.18572478293250747,0.07614640589078042,-0.18558719779040667,0.00956835129488971,898.0,11.96090112521076,0.6663458891526804,11.522246539522502,-0.07987821615324034,0.23,0.9999999999842105,2540.529088336238,1.4852164505164844,299,2026-10-07 19:32:10.278244,25.0,0.7145679132654243,0.2747033277254543,0.09060338846135846
1112,cdot_cos,P,T-P,300,60,54670,0.02023025509220499,0.00028070465794436994,0.20595503802471246,0.9942275870004452,923.0,12.066425876618357,0.6674429508213837,11.560500709753418,-0.40595988753101,0.476,0.9999999999841696,-297.23185184584855,1.490184927639939,300,2026-10-07 19:32:10.754244,25.0,0.4478772027546249,0.16389946988087142,0.2216906542176398
1112,cdot_cos,Q,P-Q,301,60,54784,-0.004033549589129882,-0.003985309075847954,-0.02426380468133487,0.35283628844107884,923.0,12.11693342053735,0.6678318459905557,11.586500851331913,-0.19545256175403905,0.114,0.9999999999839302,541.2958104498663,1.4951522836192428,301,2026-10-07 19:32:10.868243,25.0,0.34060727357080267,0.6636974674061986,0.44304863086835994
1112,cdot_cos,R,Q-R,302,60,54811,0.10256898468054695,0.15190943603499824,0.10660253426967684,0.93493336475685,923.0,12.21774889918697,0.6688612199392385,11.623620366303074,-0.39196015930295347,0.027,0.9999999999838661,-190.9001075851566,1.5001193687504284,302,2026-10-07 19:32:10.895243,25.0,0.6057149120868713,2.3539797919803966,3.7339066166526025
1112,cdot_cos,S,R-S,303,60,54863,-0.0006433691166900789,-0.002470297870418417,-0.10321235379723703,0.07041651183068783,923.0,12.244048329304292,0.6689386842122683,11.644197205882575,-0.1027716989124144,0.052,0.9999999999835828,3733.1849777938023,1.5050865340888022,303,2026-10-07 19:32:10.947244,25.0,0.059971130540248385,0.4808258912594689,0.5057582714869455
1112,cdot_cos,T,S-T,304,60,55072,-0.1271200998134293,0.058037511619192426,-0.12647673069673923,0.04062422529735083,923.0,12.267754791877955,0.6689833702213059,11.664175380026704,-0.09282210215795693,0.209,0.9999999999832924,222.65574771023222,1.510054196882037,304,2026-10-07 19:32:11.156243,25.0,0.8983550116803825,0.3078929383777874,0.11342805059169188
1112,cdot_cos,P,T-P,305,61,55593,0.024450614064921647,0.0018722589022448473,0.15157071387835097,0.9778878518922498,823.0,12.372747577546207,0.6700581105425264,11.70211421614848,-0.41257400815916645,0.521,0.9999999999832458,-297.51550182662214,1.515022857807278,305,2026-10-07 19:32:11.677243,25.0,0.4606959089919295,0.14753178429877656,0.20152166155134651
1112,cdot_cos,Q,P-Q,306,61,55715,-0.0043214906583124236,-0.0052592706455357905,-0.02877210472323407,0.32754656966682144,823.0,12.42148291111728,0.6704177019255753,11.72757441503371,-0.1925959964457063,0.122,0.9999999999829848,611.7443912263286,1.5199902451709062,306,2026-10-07 19:32:11.799244,25.0,0.3191247024688719,0.6031313070820638,0.3994699473038822
1112,cdot_cos,R,Q-R,307,61,55736,0.08265225874225177,0.17669415280260364,0.0869737494005642,0.8979217944199669,823.0,12.51991161647423,0.6714024467462909,11.763975831317383,-0.39069029369259645,0.021,0.9999999999829045,-201.16307603723064,1.5249573083290513,307,2026-10-07 19:32:11.820243,25.0,0.6022776973016596,3.0615802171424074,4.687081207473805
1112,cdot_cos,S,R-S,308,61,55784,-7.18897085102329e-05,-0.000611315246350666,-0.082724148450762,0.11223584390500954,823.0,12.550069280237262,0.6715254293964718,11.78527805630481,-0.12029837907983165,0.048,0.9999999999826187,2198.618375967265,1.5299244605048494,308,2026-10-07 19:32:11.868243,25.0,0.10564433855256765,0.5300692893561906,0.6282846617298166
1112,cdot_cos,T,S-T,309,61,56012,-0.21824268942484265,0.026059192318934596,-0.2181707997163324,0.00425977529860726,823.0,12.570798268252425,0.6715300965906077,11.804476553883125,-0.08285492031557065,0.228,0.9999999999823036,8022.691508780192,1.5348921996578642,309,2026-10-07 19:32:12.096244,25.0,0.6364076672367452,0.281360730258513,0.09091661410159253
1112,cdot_cos,P,T-P,310,62,56416,0.022540475105935102,0.0019821483527050557,0.24078316453077775,0.9975752015133663,895.0,12.678369773235143,0.672622148756903,11.842790426197265,-0.43142725560615014,0.404,0.9999999999822555,-319.19018710717313,1.5398605199471191,310,2026-10-07 19:32:12.500243,25.0,0.44577025378763324,0.19578818877498666,0.26626610144237334
1112,cdot_cos,Q,P-Q,311,62,56540,-0.003172920986066604,-0.0038081905792710776,-0.025713396092001704,0.3446059873012632,895.0,12.728995124782614,0.6729989578717326,11.86852283267233,-0.2041899829439999,0.124,0.9999999999819991,603.0567301029774,1.5448279214082619,311,2026-10-07 19:32:12.624243,25.0,0.3286138932550894,0.6113189517266173,0.40826896409250313
1112,cdot_cos,R,Q-R,312,62,56566,0.09338160318415918,0.1758464694888444,0.09655452417022578,0.917878344214948,895.0,12.829976873263345,0.6740015216814518,11.905297784072838,-0.4090773951508896,0.026,0.9999999999819236,-204.36346317375697,1.549794999253434,312,2026-10-07 19:32:12.650244,25.0,0.6060138479912792,2.486228994605813,3.8839134031050278
1112,cdot_cos,S,R-S,313,62,56621,-9.746460553572385e-06,-7.23206227621468e-05,-0.09339134964471275,0.08828286559861614,895.0,12.858279032502116,0.6740978660340881,11.926065944109807,-0.11521480196150642,0.055,0.9999999999816216,3050.127850241282,1.554762175408641,313,2026-10-07 19:32:12.705244,25.0,0.0780377304153686,0.4456134127948339,0.51458471343221
1112,cdot_cos,T,S-T,314,62,56831,-0.24522078995689028,0.025476191716747188,-0.2452110434963367,0.0021712555082499503,895.0,12.878994348670776,0.6741002353709373,11.945144004803426,-0.08449035793321415,0.21,0.9999999999812946,12967.52888375612,1.5597298715859997,314,2026-10-07 19:32:12.915244,25.0,0.6951383542353103,0.30778080377571354,0.09864436270790562
1112,cdot_cos,P,T-P,315,63,57311,0.025930524419465716,0.0025073469254356623,0.271151314376356,0.9988636340500431,877.0,12.987546970087916,0.6751892792823613,11.983479014454298,-0.44419868698722853,0.48,0.9999999999812489,-330.2973601713526,1.5646984825748382,315,2026-10-07 19:32:13.395243,25.0,0.4449508207657342,0.16591167645775656,0.22615129461904065
1112,cdot_cos,Q,P-Q,316,63,57436,-0.0004110857468405344,-0.0005113996846353232,-0.02634161016630625,0.341067599395753,877.0,13.038269558070223,0.6755607066595556,12.00908974563976,-0.20871167568927296,0.125,0.9999999999809763,634.0055304398343,1.5696658943766286,316,2026-10-07 19:32:13.520243,25.0,0.32358655812611575,0.6139593640048275,0.4057807038584542
1112,cdot_cos,R,Q-R,317,63,57458,0.1024012437392921,0.20170545510359747,0.10281232948613264,0.928926049176773,877.0,13.141036811089123,0.676571199112163,12.046068005231797,-0.4246662287861241,0.022,0.9999999999808994,-213.71218809167007,1.5746329562030843,317,2026-10-07 19:32:13.542243,25.0,0.6013803219017603,3.812865667714085,4.671238773586369
1112,cdot_cos,S,R-S,318,63,57517,0.1024012437392921,0.20170545510359747,0.0,0.5,877.0,13.206035647449642,0.6771144220559884,12.074740055005277,-0.27007947560612555,0.059,0.9999999999807084,284.57331365903445,1.5796001472138153,318,2026-10-07 19:32:13.601243,25.0,0.5641838816335123,0.727020954083701,1.10167519255118
1112,cdot_cos,T,S-T,319,63,57729,-0.20434652309769094,0.06664531470015307,-0.306747766836983,0.0004670093452037766,877.0,13.226825283671,0.6771149292132389,12.093719715990758,-0.086665441528529,0.212,0.999999999980369,361651.2115055739,1.5845678690118772,319,2026-10-07 19:32:13.813244,25.0,0.1204710631258532,0.30674668670370153,0.09806432179885424
1112,cdot_cos,P,T-P,320,64,58188,0.022787826551683668,-0.00029603012066996954,0.22713434964937462,0.9965924852807965,803.0,13.336096242612012,0.6781962461540819,12.13200436218256,-0.4569510292456386,0.459,0.9999999999803186,-342.4394585258495,1.589536455688896,320,2026-10-07 19:32:14.272243,25.0,0.4447069465827994,0.1747461169604861,0.23806309137475457
1112,cdot_cos,Q,P-Q,321,64,58300,-0.0036267732047492967,-0.004221199718871576,-0.026414599756432965,0.3406576254961821,803.0,13.387242219040726,0.6785654278007308,12.1575620197726,-0.21504510542282756,0.112,0.9999999999800371,655.2490515674814,1.594503831185612,321,2026-10-07 19:32:14.384243,25.0,0.3246823905519342,0.6877020058885638,0.4566605038278025
1112,cdot_cos,R,Q-R,322,64,58322,0.09443523619648087,0.1787923986602637,0.09806200940123017,0.9206747426203581,803.0,13.49014149193105,0.6795620758512315,12.194368707348572,-0.4344250604793661,0.022,0.9999999999799556,-220.11777873475472,1.5994708909642452,322,2026-10-07 19:32:14.406244,25.0,0.6035121054015666,2.9887258344978096,4.677239676832928
1112,cdot_cos,S,R-S,323,64,58378,-0.00012306877816828976,-0.0015211265068405563,-0.09455830497464915,0.0859627215796441,803.0,13.51874615575863,0.679655048762927,12.214960203040327,-0.1213371650725743,0.056,0.9999999999796298,3367.5173735778967,1.6044380728379792,323,2026-10-07 19:32:14.462244,25.0,0.07575027112597074,0.44656850521649993,0.5107975683496286
1112,cdot_cos,T,S-T,324,64,58588,-0.2073465673718893,0.03179315423566676,-0.20722349859372102,0.005593240821497647,803.0,13.540157164515298,0.6796610976338429,12.233963130193382,-0.09099004920569649,0.21,0.999999999979279,5016.988507311033,1.609405803273454,324,2026-10-07 19:32:14.672243,25.0,0.7163966678193028,0.3132960818173169,0.10195718455556568
1112,cdot_cos,P,T-P,325,65,58991,0.026882907135141177,0.0023802014148262525,0.2342294745070305,0.9971447509185994,936.0,13.650330510121902,0.6807385043137266,12.272252008526127,-0.469637594428868,0.403,0.9999999999792271,-351.4434728249709,1.6143742288127398,325,2026-10-07 19:32:15.075244,25.0,0.44652729104079986,0.1993926968061214,0.2733829915796633
1112,cdot_cos,Q,P-Q,326,65,59117,-0.0015460233999058993,-0.0017178499568630038,-0.028428930535047078,0.3294390451249758,936.0,13.700867678141032,0.6810940373341725,12.297538770036164,-0.21657083720115083,0.126,0.999999999978939,711.7953682905105,1.6193416616349778,326,2026-10-07 19:32:15.201244,25.0,0.31082748190538284,0.506539134884339,0.4010886350724568
1112,cdot_cos,R,Q-R,327,65,59140,0.018835789398410973,0.2899708721895134,0.020381812798316874,0.6246998808055112,936.0,13.777978372112756,0.6817676393104122,12.328566715882983,-0.33161672887080373,0.023,0.9999999999787622,-170.79209344350178,1.6243087229413846,327,2026-10-07 19:32:15.224244,25.0,0.7068588564680015,2.2630799809848985,3.352638868335821
1112,cdot_cos,S,R-S,328,65,59197,-0.08713549054771373,0.3212790788838889,-0.10597127994612471,0.06603327690932971,936.0,13.804969357266337,0.6818387973889865,12.34869196735266,-0.11650170983591374,0.057,0.9999999999784182,3023.0582857905015,1.6292759090545785,328,2026-10-07 19:32:15.281244,25.0,0.1577957584464989,0.4264818770558782,0.4735260553259903
1112,cdot_cos,T,S-T,329,65,59407,-0.28736752589342085,0.06514747152044231,-0.2002320353457071,0.006654396470853081,936.0,13.826597306097126,0.6818459677583202,12.367631983608838,-0.09351666712610254,0.21,0.9999999999780551,3205.5591058168106,1.6342436528130928,329,2026-10-07 19:32:15.491244,25.0,0.7820899491592679,0.3162434046346382,0.10299023252756509
1112,cdot_cos,P,T-P,330,66,59927,0.022534963320666616,0.001910489772080408,0.3099024892140875,0.9995683924928779,858.0,13.937791587212885,0.6829220610749964,12.405962358917895,-0.4822254025749616,0.52,0.9999999999780051,-361.2221444228224,1.6392125366673835,330,2026-10-07 19:32:16.011244,25.0,0.44660858952602717,0.15732948314321182,0.2138351559918449
1112,cdot_cos,Q,P-Q,331,66,60049,-0.002836548911388096,-0.003234926715793995,-0.02537151223205471,0.3465389276311765,858.0,13.990219968566066,0.6832946748454263,12.431526296142557,-0.22856658279023823,0.122,0.9999999999777001,680.7553555846819,1.6441799598703917,331,2026-10-07 19:32:16.133244,25.0,0.3296311871428378,0.6405881561109322,0.42974083076377834
1112,cdot_cos,R,Q-R,332,66,60071,0.0918944326855747,0.1758547551283165,0.0947309815969628,0.9143758662910725,858.0,14.094095097303953,0.6842767224674358,12.468184873398814,-0.4546278819411498,0.022,0.9999999999776088,-230.19382572134376,1.649147014212548,332,2026-10-07 19:32:16.155244,25.0,0.6082041455619178,3.030141925317627,4.721596760813023
1112,cdot_cos,S,R-S,333,66,60116,-0.00020172783334107146,-0.001132685929659899,-0.09209616051891578,0.09092405730873805,858.0,14.123546213280042,0.6843742860098396,12.4887283911555,-0.12948882117766172,0.045,0.9999999999772573,3332.587693644483,1.6541141556734027,333,2026-10-07 19:32:16.200243,25.0,0.08119163210954938,0.5753666407570258,0.6544692439130905
1112,cdot_cos,T,S-T,334,66,60346,-0.17474764806637957,0.038402773314345065,-0.1745459202330385,0.01257179464972655,858.0,14.145878094972085,0.6843877745476663,12.507712691870807,-0.09836548596714462,0.23,0.9999999999768802,2307.3913281364316,1.6590819894478803,334,2026-10-07 19:32:16.430244,25.0,0.7287642140317482,0.29098111588151915,0.0970951377914924
1112,cdot_cos,P,T-P,335,67,60785,0.02867557721226537,0.002281669783536959,0.20342322527864495,0.9938527280209276,863.0,14.25739752658554,0.6854531154743125,12.545922504462236,-0.4926339364272184,0.439,0.9999999999768213,-370.0866460666815,1.6640506137206998,335,2026-10-07 19:32:16.869244,25.0,0.4491818660699662,0.18488158957575782,0.2540305959304227
1112,cdot_cos,Q,P-Q,336,67,60901,-0.0006738065249467846,-0.0007644196621319798,-0.029349383737212152,0.324375732209583,863.0,14.3082041306196,0.6858004022039926,12.57100149244536,-0.2255847427994244,0.116,0.9999999999765034,768.9588193415474,1.6690180214665193,336,2026-10-07 19:32:16.985244,25.0,0.306110614983519,0.46850797890523577,0.4379879658108602
1112,cdot_cos,R,Q-R,337,67,60929,-0.01664454784114936,0.28302326830271146,-0.015970741316202578,0.4014880953966497,863.0,14.366091377691555,0.6862299599285886,12.597580356526763,-0.25780982083394743,0.028,0.9999999999762332,-75.01920275053493,1.6739850960065341,337,2026-10-07 19:32:17.013243,25.0,0.8825008376324384,1.5254882890739982,2.067401681141247
1112,cdot_cos,S,R-S,338,67,60976,-0.12113797867842975,0.29453643434062243,-0.10449343083728038,0.06834871839483202,863.0,14.393631474807744,0.6863030554211217,12.617601036742018,-0.12300428827964266,0.047,0.9999999999758583,1844.238651149024,1.6789522439273847,338,2026-10-07 19:32:17.060243,25.0,0.3342247090999268,0.5298308151474561,0.5859595131104041
1112,cdot_cos,T,S-T,339,67,61203,-0.3018479487714606,-0.0004467747249350248,-0.18070997009303086,0.010795739764528854,863.0,14.415895474315416,0.686314600072534,12.636464910505833,-0.09960961583622796,0.227,0.9999999999754647,2026.4511770805652,1.6839200788431152,339,2026-10-07 19:32:17.287244,25.0,0.7906786950264577,0.297528868905502,0.09807929298533868
