record_id,input,event,transition,event_index,k,peak,value_cos,value_sin,value_return,x_input,rr,knowledge,decision,decision_norm,entropy,delta_t,cosine_similarity,delta_h_over_delta_d,frobenius_norm,matrix_size,timestamp,scale,P,zdot,zdot_back
0465,cdot_cos,Q,P-Q,1,0,1546,-0.011149021779776001,-0.014090636501523781,-0.0402235384729711,0.1645122082464576,1058.0,0.0008171554217914672,0.5002042888440802,0.5002042888440802,,,1.0,,0.004967141530112327,1,2026-10-07 19:16:17.630244,40.4,,,
0465,cdot_cos,R,Q-R,2,0,1574,0.10776044078776338,0.1908527276075347,0.11890946256753938,0.9918692835794308,1058.0,0.008123116176404299,0.5014359736851465,0.7091375546472926,-1.1779016153002601e-05,,0.9999999999999999,,0.009934283060224654,2,2026-10-07 19:16:17.658243,40.4,,,
0465,cdot_cos,S,R-S,3,0,1593,-0.001736333467781123,-0.004160701455241981,-0.10949677425554451,0.011848091029226043,1058.0,0.010050678049999439,0.5014506863487975,0.8685380662464025,-6.31734841842139e-06,0.019,1.0,0.371222224888633,0.014901424592970839,3,2026-10-07 19:16:17.677243,40.4,0.42124079111265256,0.09164637759627854,0.10145062492606001
0465,cdot_cos,T,S-T,4,0,1896,-0.27567128491743764,0.09895348698189606,-0.2739349514496565,1.5619543204800033e-05,1058.0,0.011605678525062883,0.5014507057447547,1.0029014114896817,-6.072909588846518e-06,0.303,1.0,12.602565956695022,0.019868566170163086,4,2026-10-07 19:16:17.980243,40.4,0.9605486045571799,0.023154601100757552,0.005132014769186285
0465,cdot_cos,P,T-P,5,1,2453,0.032867877106327256,0.0004485112422260114,0.3085391620237649,0.9999961405505153,942.0,0.024082366317058516,0.50269246438014,1.1240545221347593,-8.029602049757965e-05,0.557,1.0,-0.0597725747932492,0.02483570787720096,5,2026-10-07 19:16:18.537244,40.4,0.39678191325731715,0.014935824987116996,0.02239979854936379
0465,cdot_cos,Q,P-Q,6,1,2601,-0.00946293628750097,-0.01457348282230189,-0.04233081339382823,0.1531423337446699,942.0,0.028244187560711217,0.5028826283785415,1.2318058400489444,-3.927133573474362e-05,0.148,1.0000000000000002,0.21573318350318085,0.02980284947286874,6,2026-10-07 19:16:18.685244,40.4,0.35181597326143194,0.06549355513652286,0.028120413808464202
0465,cdot_cos,R,Q-R,7,1,2626,0.09631900118208654,0.22252773091728215,0.10578193746958751,0.9862597499648771,942.0,0.04346845863746928,0.5041072908683218,1.333742525751974,-0.00019687360849369895,0.025,1.0,-0.1286903731224915,0.034769990989248704,7,2026-10-07 19:16:18.710243,40.4,0.4490930660041236,0.36977309540086684,0.6089708430703225
0465,cdot_cos,S,R-S,8,1,2647,-0.001672606761978838,-0.005937004114782611,-0.09799160794406538,0.018727430278435465,942.0,0.04673284233075456,0.5041305447393299,1.425896507175043,-5.3096869110500576e-05,0.021,1.0,6.182916355436811,0.03973713251897873,8,2026-10-07 19:16:18.731244,40.4,0.06668204623269688,0.14521941192810967,0.15544684253739424
0465,cdot_cos,T,S-T,9,1,2934,-0.35515159313411326,0.024110828017665703,-0.35347898637213443,6.281092770693143e-07,942.0,0.04956767393844989,0.5041305455192536,1.5123916365814063,-4.9227841547908976e-05,0.287,1.0000000000000004,4960.777132284831,0.044704274498848895,9,2026-10-07 19:16:19.018244,40.4,0.9244148869600248,0.03697482788471086,0.009877462047718912
0465,cdot_cos,P,T-P,10,2,3395,0.025051182461565995,0.00019167487496688803,0.3802027755956793,0.9999997866202399,1117.0,0.06795639353657859,0.5053722178620896,1.5981272746912782,-0.0003896841280261138,0.461,0.9999999999999999,-0.27419172895531735,0.04967141698512444,10,2026-10-07 19:16:19.479244,40.4,0.41741579275941926,0.02665081778594141,0.03988876268574556
0465,cdot_cos,Q,P-Q,11,2,3547,-0.013502197377092287,-0.016064221789455303,-0.03855337983865828,0.17399754647604904,1117.0,0.07413972793708787,0.5055882595118881,1.6768465553751828,-0.0001584292101483285,0.152,1.0,1.0704182184013227,0.05463855882646915,11,2026-10-07 19:16:19.631244,40.4,0.23231211489511916,0.08729030115371647,0.040679831582297876
0465,cdot_cos,R,Q-R,12,2,3576,0.10359146330737252,0.1713312273000744,0.1170936606844648,0.9912558163903515,1117.0,0.0944926450873084,0.5068189963842458,1.7556725041726087,-0.0006188300351344556,0.029,0.9999999999999998,-0.3740855054615922,0.05960570030447263,12,2026-10-07 19:16:19.660243,40.4,0.4752159688439502,0.4214179595180924,0.7018247293179493
0465,cdot_cos,S,R-S,13,2,3599,-0.0037868853077147545,-0.008553440495586893,-0.10737834861508729,0.012893109837589489,1117.0,0.09858196958913723,0.5068350038747155,1.8274195948923189,-0.00014235743019127309,0.023,0.9999999999999999,29.7656029122699,0.06457284179663278,13,2026-10-07 19:16:19.683244,40.4,0.035189200099012045,0.169878421193537,0.17779671747081885
0465,cdot_cos,T,S-T,14,2,3893,-0.21466511889294343,0.11146997701183448,-0.21087823358522867,0.00019950322427790808,1117.0,0.1023070524622111,0.5068352515686064,1.8964038631386104,-0.00013492596284811907,0.294,1.0,30.00262668791462,0.06953998462806851,14,2026-10-07 19:16:19.977243,40.4,0.9464112186444209,0.045158024133392406,0.012670349908414516
0465,cdot_cos,P,T-P,15,3,4512,0.04096459490923762,-0.0011081884464509881,0.255629713802181,0.999967278334954,956.0,0.12513488777957196,0.5080767195564289,1.9677726738678223,-0.0009360660572084414,0.619,1.0,-0.6453167558235182,0.07450712955604616,15,2026-10-07 19:16:20.596244,40.4,0.42491824089704716,0.023385746957871403,0.03687857078733581
0465,cdot_cos,Q,P-Q,16,3,4661,-0.012968791791315708,-0.018053131219276645,-0.05393338670055333,0.10166053709201775,956.0,0.1312586071960559,0.5082029266675544,2.0328117075442096,-0.0002830674488690086,0.149,0.9999999999999998,5.174023892281893,0.07947427172172325,16,2026-10-07 19:16:20.745243,40.4,0.09957284722355092,0.10224122266053508,0.041098788030093494
0465,cdot_cos,R,Q-R,17,3,4683,0.10462173574478631,0.21743317536370269,0.11759052753610202,0.9914281025084941,956.0,0.15560277213241142,0.5094336840242439,2.100448889478619,-0.0012589163950040923,0.022,1.0,-0.7928849182424544,0.08444141300806962,17,2026-10-07 19:16:20.767244,40.4,0.4606347162720675,0.6620984938135304,1.1065529516525239
0465,cdot_cos,S,R-S,18,3,4703,-0.0022718816947824606,-0.006946812369889547,-0.10689361743956877,0.013144734280868176,956.0,0.16039094092385123,0.5094500011424746,2.1614133038970005,-0.0002727578657799592,0.02,0.9999999999999997,60.43705238154515,0.08940855434089055,18,2026-10-07 19:16:20.787244,40.4,0.0269032269355253,0.2296250731518991,0.2394084395719906
0465,cdot_cos,T,S-T,19,3,4991,-0.23554395423250254,0.014635849283599841,-0.2332720725377201,8.074032041211816e-05,956.0,0.16478777505848738,0.5094501013688093,2.2206415096420202,-0.0002577457904975955,0.288,0.9999999999999999,149.7817447966931,0.094375698282441,19,2026-10-07 19:16:21.075244,40.4,0.9434199831312641,0.05363088745395404,0.015266785189708861
0465,cdot_cos,P,T-P,20,4,5468,0.07137807067304662,0.00036027721609642715,0.30692202490554915,0.9999958799857102,781.0,0.19128233209732876,0.5106913772319884,2.2838812714243195,-0.001700505792758637,0.477,1.0000000000000002,-1.1623201941314478,0.09934284456909406,20,2026-10-07 19:16:21.552243,40.4,0.42808653252941475,0.033694567904576436,0.05554414473551651
0465,cdot_cos,Q,P-Q,21,4,5618,-0.0068419200559639085,-0.017706626597564806,-0.07821999072901054,0.04069563258011973,781.0,0.1969323928394533,0.5107418892584885,2.3405133701975185,-0.0003953749743924588,0.15,0.9999999999999998,25.8380213346627,0.10430998730368597,21,2026-10-07 19:16:21.702244,40.4,0.03684648645657256,0.10498834066624496,0.037667071614163605
0465,cdot_cos,R,Q-R,22,4,5641,0.050568792986894484,0.29298839716999897,0.05741071304285839,0.9104704582631523,781.0,0.22277883429720224,0.5118719195068506,2.400892120577924,-0.001955199084287834,0.023,0.9999999999999998,-1.3803383689562414,0.10927712846383568,22,2026-10-07 19:16:21.725244,40.4,0.4503263423162025,0.7300217487525826,1.1237583242499543
0465,cdot_cos,S,R-S,23,4,5662,-6.331342026515451e-05,-0.0065461714937375,-0.050632106407159636,0.11450410993620082,781.0,0.2305133932820721,0.5120140279112505,2.455533017741014,-0.0006318988558021931,0.021,0.9999999999999996,9.311906878934671,0.11424426967754418,23,2026-10-07 19:16:21.746243,40.4,0.12317309678603897,0.3022002614255847,0.3683123326128502
0465,cdot_cos,T,S-T,24,4,5949,-0.3704587446065538,-0.3891686824383057,-0.37039543118628865,3.1712312325274105e-07,781.0,0.2354712452770768,0.512014028304822,2.508346223295497,-0.0004163886651041584,0.287,1.0,547575.6906305534,0.11921141513698776,24,2026-10-07 19:16:22.033243,40.4,0.5959671194332192,0.060364371666468644,0.01727474562719409
0465,cdot_cos,P,T-P,25,5,6249,0.054497204756126474,-0.0025712037635510798,0.4249559493626803,0.9999999650105899,876.0,0.2651625426186251,0.5132550200940524,2.566275103448264,-0.0026787276548915894,0.3,0.9999999999999996,-1.8230088300506546,0.12417856117594821,25,2026-10-07 19:16:22.333244,40.4,0.42974756629308564,0.061162000262973325,0.09897099113849432
0465,cdot_cos,Q,P-Q,26,5,6397,-0.009805523834242963,-0.017913106713355453,-0.06430272859036944,0.06927819333959515,876.0,0.2721684454348608,0.5133409878894959,2.617535718062479,-0.0006783928333730638,0.148,1.0,23.268420589362144,0.12914570470262346,26,2026-10-07 19:16:22.481244,40.4,0.05241104628694629,0.12627971680091082,0.04733718119078175
0465,cdot_cos,R,Q-R,27,5,6425,0.08181776237082955,0.2501255587565269,0.09162328620507251,0.975910169510389,876.0,0.3025413387916947,0.5145519154258107,2.6736901860157807,-0.0031452218964816724,0.028,0.9999999999999996,-2.037140117084033,0.13411284590927408,27,2026-10-07 19:16:22.509243,40.4,0.4564345217403833,0.6575585598430871,1.0847461913154968
0465,cdot_cos,S,R-S,28,5,6443,-0.0008791523428480745,-0.0049779843480578165,-0.08269691471367763,0.03419259453897848,876.0,0.3089917247860737,0.5145943392200432,2.722977299401987,-0.0007107551761761236,0.018,0.9999999999999998,57.3844646465451,0.1390799869831011,28,2026-10-07 19:16:22.527244,40.4,0.032543317062242276,0.3311035848178894,0.35835477746549843
0465,cdot_cos,T,S-T,29,5,6728,-0.33372002189701044,-0.037645796412683494,-0.33284086955416237,1.445908700027333e-06,876.0,0.3144610678451387,0.5145943410140217,2.7711753392619003,-0.0006144027118758794,0.285,0.9999999999999993,53708.81711051265,0.14404713439289765,29,2026-10-07 19:16:22.812243,40.4,0.8548553717780992,0.066756637435917,0.019190677400228232
0465,cdot_cos,P,T-P,30,6,7125,0.03196413261721685,-0.0022493975298605983,0.3656841545142273,0.999999616390307,1161.0,0.34704300812454636,0.5158349754583039,2.8253445251907805,-0.0038829179177687556,0.397,0.9999999999999993,-2.6345513950193853,0.1490142850908888,30,2026-10-07 19:16:23.209243,40.4,0.4309480272137768,0.05261500928762858,0.08207037853755073
0465,cdot_cos,Q,P-Q,31,6,7275,-0.016195818069161077,-0.016158878501673288,-0.048159950686377934,0.12502714298308906,1161.0,0.3562373852195158,0.5159900750862088,2.8729111582087135,-0.0011649062634586304,0.15,0.9999999999999998,17.524295132273902,0.15398142957115538,31,2026-10-07 19:16:23.359244,40.4,0.09698053912609736,0.14283736330504135,0.061295847299796355
0465,cdot_cos,R,Q-R,32,6,7298,0.11460904527327884,0.15448465913792067,0.1308048633424399,0.9949560872321367,1161.0,0.38989421711605876,0.5172242333657396,2.9258621096234827,-0.004523322350455395,0.023,0.9999999999999992,-2.721219913764492,0.15894857048875982,32,2026-10-07 19:16:23.382244,40.4,0.47593848280355544,0.8680813432810727,1.463340517240998
0465,cdot_cos,S,R-S,33,6,7318,-0.004551659871632272,-0.007860461734127279,-0.1191607051449111,0.008049266381192133,1161.0,0.39616912701044515,0.5172342169586128,2.9712843694300246,-0.0008884506515696187,0.02,0.9999999999999992,364.08452799074723,0.163915711421193,33,2026-10-07 19:16:23.402244,40.4,0.016718360775796165,0.3081609827804449,0.3137454947193197
0465,cdot_cos,T,S-T,34,6,7606,-0.1463770441235578,0.10686203578497032,-0.1418253842519255,0.003237388915453141,1161.0,0.40222065642727656,0.5172382323235104,3.0159912580395662,-0.0008702582530565508,0.288,0.9999999999999991,4.5306962074679795,0.1688828612775467,34,2026-10-07 19:16:23.690243,40.4,0.9793123889497617,0.07169650551601385,0.021012254919553483
0465,cdot_cos,P,T-P,35,7,8286,0.04575716949197843,-0.0010523057695340837,0.19213421361553623,0.9995746710334499,956.0,0.4374663141876691,0.5184779054991875,3.0673566634655702,-0.0053298385143861985,0.68,0.9999999999999993,-3.597383849895702,0.17385002556730877,35,2026-10-07 19:16:24.370244,40.4,0.43312903918714857,0.03245694676669991,0.051831849647636125
0465,cdot_cos,Q,P-Q,36,7,8434,-0.01142987824741986,-0.017158205650449797,-0.05718704773939829,0.09026884572629812,956.0,0.44636210402998844,0.5185898460119084,3.1115390887362335,-0.0014159120392592663,0.148,0.9999999999999989,34.96434293530117,0.17881717077369627,36,2026-10-07 19:16:24.518244,40.4,0.06302372211351508,0.15154456297130253,0.060106688123779145
0465,cdot_cos,R,Q-R,37,7,8461,0.09469246782461539,0.2119029517109197,0.10612234607203525,0.9864448755532799,956.0,0.4823235048271747,0.5198129916911416,3.1618990021165443,-0.006013224173257025,0.027,0.999999999999999,-3.758597370739868,0.1837843113702506,37,2026-10-07 19:16:24.545243,40.4,0.46555099714206194,0.7971746555908618,1.33190373322912
0465,cdot_cos,S,R-S,38,7,8479,-0.0016723122406464147,-0.005559064593763432,-0.09636478006526181,0.01997420670303757,956.0,0.48940953543189497,0.5198377563731563,3.2044951581719627,-0.0012397963789144329,0.018,0.9999999999999989,192.75142687084778,0.18875145172476293,38,2026-10-07 19:16:24.563244,40.4,0.021276102542153112,0.3745508477097447,0.3936683669289053
0465,cdot_cos,T,S-T,39,7,8783,-0.35585581819408435,0.008598652600745063,-0.35418350595343795,6.104836952235831e-07,956.0,0.4958073353447255,0.5198377571300528,3.246385766251265,-0.001134913766253207,0.304,0.9999999999999987,138569.30471863618,0.1937186047644915,39,2026-10-07 19:16:24.867244,40.4,0.9117270603603007,0.07258064905113337,0.02104539445010038
0465,cdot_cos,P,T-P,40,8,9242,0.023984610161720023,-0.00010677743332895288,0.3798404283558044,0.9999997834736358,1298.0,0.5335385700549841,0.5210774627864275,3.2955832553392574,-0.006991566070305339,0.459,0.9999999999999986,-4.7242281052250386,0.1986857656867685,40,2026-10-07 19:16:25.326244,40.4,0.43271590112480257,0.054893102753755876,0.08220312573041084
0465,cdot_cos,Q,P-Q,41,8,9393,-0.01195953395752255,-0.010885906731615054,-0.03594414411924257,0.18967191039256015,1298.0,0.5461992036726734,0.5213125713572245,3.338029180266416,-0.0024607556980486287,0.151,0.9999999999999986,19.271140804852507,0.20365291227886304,41,2026-10-07 19:16:25.477243,40.4,0.1586226417803652,0.16969458399334544,0.0838452557462869
0465,cdot_cos,R,Q-R,42,8,9421,0.11078070047350846,0.13014391961479918,0.12274023443103102,0.993026952673416,1298.0,0.5847863344209744,0.5225433253632388,3.3864678159226824,-0.007854171046574777,0.028,0.9999999999999987,-4.3822041790402455,0.2086200527118755,42,2026-10-07 19:16:25.505243,40.4,0.5032368175463988,0.8183530881624435,1.3781118124393215
0465,cdot_cos,S,R-S,43,8,9441,-0.003414045170700974,-0.004944579730988278,-0.11419474564420944,0.0098199795648848,1298.0,0.5920269766097702,0.5225554948682737,3.426625553757649,-0.001533502612326585,0.02,0.999999999999998,519.3858267954942,0.21358719286275224,43,2026-10-07 19:16:25.525243,40.4,0.016216597395528696,0.3560788832752959,0.3620321094397916
0465,cdot_cos,T,S-T,44,8,9726,-0.13546878476649032,0.16420229526556937,-0.13205473959578934,0.004796735214451877,1298.0,0.5990294897519862,0.5225614392592344,3.4662804684821387,-0.0015010172338708967,0.285,0.9999999999999979,5.4648791895624695,0.21855434826618872,44,2026-10-07 19:16:25.810244,40.4,0.9785902707789451,0.08255392738569614,0.024570221551635105
0465,cdot_cos,P,T-P,45,9,10540,0.03337241107448448,0.0002527642169392097,0.1688411958409748,0.9989107589902756,1080.0,0.639082715219617,0.5237992053254757,3.513751912754435,-0.008922714440554223,0.814,0.9999999999999982,-5.996041908969278,0.2235215363035213,45,2026-10-07 19:16:26.624243,40.4,0.4352756729943956,0.03171640984857054,0.049205436692421126
0465,cdot_cos,Q,P-Q,46,9,10690,-0.012786113237229287,-0.015368169565594664,-0.046158524311713765,0.1341440442493443,1080.0,0.6506638049854591,0.5239654033962864,3.5537062988141837,-0.0026874442571431117,0.15,0.9999999999999976,37.517103255159306,0.22848868382692106,46,2026-10-07 19:16:26.774244,40.4,0.09825897765430394,0.17466715448653267,0.07720726510561364
0465,cdot_cos,R,Q-R,47,9,10717,0.10690251813022718,0.1764120652793418,0.11968863136745647,0.9921192536942874,1080.0,0.6914828615655768,0.5251944245984295,3.6005516080084803,-0.00985469982142657,0.027,0.9999999999999973,-5.831677721902377,0.23345582350421507,47,2026-10-07 19:16:26.801243,40.4,0.48321521796650047,0.8988611122435003,1.5118169103747316
0465,cdot_cos,S,R-S,48,9,10736,-0.002951276633481485,-0.006452163194674803,-0.10985379476370866,0.011680406873020271,1080.0,0.6992023050466081,0.5252088923081962,3.6387539791913674,-0.0019310521588534356,0.019,0.9999999999999972,547.6780907491045,0.23842296282005995,48,2026-10-07 19:16:26.820243,40.4,0.016518406417303514,0.39388384890287914,0.40628649900164543
0465,cdot_cos,T,S-T,49,9,11041,-0.24082388230734036,0.09827163884598894,-0.23787260567385887,6.704675687047766e-05,1080.0,0.7064504478238862,0.525208975354241,3.676462862348725,-0.0018326687318395032,0.305,0.9999999999999964,1184.6852818666998,0.24339012275520716,49,2026-10-07 19:16:27.125243,40.4,0.9477323496953919,0.08121807075849344,0.02376440254845293
0465,cdot_cos,P,T-P,50,10,11620,0.04091612127545595,0.0016917476822261095,0.28174000358279633,0.9999886046768888,1137.0,0.7487453282092891,0.5264474324214988,3.722545533334248,-0.011068199459522855,0.579,0.9999999999999967,-7.457287758979701,0.24835730410859444,50,2026-10-07 19:16:27.704243,40.4,0.4341260551397538,0.04607162195867019,0.07304815265181841
0465,cdot_cos,Q,P-Q,51,10,11773,-0.013021190145605228,-0.015119537977821696,-0.053937311421061174,0.1016460575259275,1137.0,0.7598013860520263,0.5265733001725533,3.760485583665475,-0.0029992674214765337,0.153,0.999999999999996,64.1064289339105,0.25332445331813874,51,2026-10-07 19:16:27.857243,40.4,0.06786051266440507,0.17632007291140384,0.07226181596560276
0465,cdot_cos,R,Q-R,52,10,11801,0.1024995608414801,0.1627461932221064,0.11552075098708532,0.9906874702655108,1137.0,0.8026992705201786,0.5277998836884423,3.80601913794526,-0.012050248593483876,0.028,0.9999999999999958,-7.379017453570933,0.2582915926611983,52,2026-10-07 19:16:27.885243,40.4,0.47184569034836116,0.9119888889625112,1.5320673024340123
0465,cdot_cos,S,R-S,53,10,11823,-0.00352999484906822,-0.007575723483939814,-0.10602955569054831,0.013605341685271301,1137.0,0.8108727638339269,0.5278167263433969,3.842563819519262,-0.0023710153237293994,0.022,0.9999999999999953,574.6857188395131,0.26325873171630065,53,2026-10-07 19:16:27.907244,40.4,0.01686835698951267,0.3592512563697182,0.3715224233521946
0465,cdot_cos,T,S-T,54,10,12117,-0.18993221293991444,0.11158958327141862,-0.18640221809084623,0.0005361021392401359,1137.0,0.8185063258004462,0.5278173900066787,3.878649898953005,-0.0022360813555721494,0.294,0.9999999999999946,203.31691064243347,0.26822589469938224,54,2026-10-07 19:16:28.201244,40.4,0.9414406749972414,0.08845310992324894,0.025964496484759594
0465,cdot_cos,P,T-P,55,11,12757,0.03332675941559153,0.001119026475269049,0.22325897235550596,0.999879007679679,1198.0,0.8628831924687973,0.5290550084693098,3.923577009039116,-0.013410362750202043,0.64,0.9999999999999947,-9.028858030183715,0.273193090180334,55,2026-10-07 19:16:28.841243,40.4,0.4346312946355628,0.04497363624156513,0.06933885416929852
0465,cdot_cos,Q,P-Q,56,11,12908,-0.010644113462059441,-0.011026940706072864,-0.043970872877650974,0.14474535061993413,1198.0,0.8760725801896496,0.5292341404298142,3.96042572965663,-0.0041220241024632455,0.151,0.9999999999999939,51.85193430352654,0.27816024076236545,56,2026-10-07 19:16:28.992243,40.4,0.10504734880987242,0.1927673637549789,0.08734693854869086
0465,cdot_cos,R,Q-R,57,11,12937,0.1120278981986532,0.1544163494035894,0.12267201166071265,0.99300784161916,1198.0,0.9210989363228009,0.5304628479775146,4.0049067469290955,-0.014538707706805086,0.029,0.9999999999999933,-8.477756667025432,0.28312737968985274,57,2026-10-07 19:16:29.021244,40.4,0.4884689686479211,0.9215844428273784,1.5526329701086659
0465,cdot_cos,S,R-S,58,11,12958,-0.0015432299331929866,-0.0027330647124388513,-0.1135711281318462,0.010068005980992025,1198.0,0.9295244778736376,0.5304753038533921,4.039979623120572,-0.0028014574531234552,0.021,0.9999999999999929,942.3062953669752,0.2880945180407963,58,2026-10-07 19:16:29.042243,40.4,0.015150916175260445,0.390984802605674,0.401216264325554
0465,cdot_cos,T,S-T,59,11,13256,-0.1926346284409489,0.15356656777951286,-0.19109139850775592,0.00044362266041407885,1198.0,0.9375202980322392,0.5304758526909688,4.07466241087385,-0.002682167194473878,0.298,0.9999999999999923,217.35074953644562,0.29306168568809093,59,2026-10-07 19:16:29.340243,40.4,0.956499201073956,0.09124298729278477,0.026831611270475418
0465,cdot_cos,P,T-P,60,12,13955,0.05102560845514474,-0.0006998433168510853,0.24366023689609362,0.9999469314795395,1059.0,0.9839052983001373,0.5317127692740871,4.1186294782281365,-0.01600792656876787,0.699,0.9999999999999921,-10.773369486808322,0.29802889822284573,60,2026-10-07 19:16:30.039244,40.4,0.43498333560003666,0.041222372128726856,0.06635908478955371
0465,cdot_cos,Q,P-Q,61,12,14104,-0.009646825131331567,-0.011201663954033754,-0.06067243358647631,0.07935330050991492,1059.0,0.9951491742681994,0.5318109114090037,4.15357609304461,-0.003996656917463488,0.149,0.999999999999991,122.38647204388282,0.3029960501344416,61,2026-10-07 19:16:30.188244,40.4,0.04952244990939817,0.19543299803245184,0.07546225481920865
0465,cdot_cos,R,Q-R,62,12,14123,0.11628180061736108,0.1849365151121721,0.12592862574869265,0.993864543753329,1059.0,1.042144331713808,0.5330398867972006,4.197160363639164,-0.017190588538869546,0.019,0.9999999999999902,-10.735716718268698,0.30796318720773175,62,2026-10-07 19:16:30.207244,40.4,0.4641678661062354,1.4656150327764736,2.4734293392425557
0465,cdot_cos,S,R-S,63,12,14145,-0.0020969890168695085,-0.0044495517898650834,-0.1183787896342306,0.008305450984396159,1059.0,1.0508425455137054,0.5330501553361737,4.2309545396246095,-0.0032687329163616978,0.022,0.9999999999999898,1355.7776484995507,0.3129303249185513,63,2026-10-07 19:16:30.229243,40.4,0.014135038707613198,0.3864862994876055,0.3953733545407926
0465,cdot_cos,T,S-T,64,12,14435,-0.4185488828048416,0.09925634934422119,-0.4164518937879721,4.933379181393583e-08,1059.0,1.0591497288912626,0.5330501553971682,4.264401340657947,-0.003147150525865933,0.29,0.9999999999999888,1993335.900542388,0.3178974960165564,64,2026-10-07 19:16:30.519244,40.4,0.9621041875854615,0.09757952031131448,0.028645459922611048
0465,cdot_cos,P,T-P,65,13,15014,0.04087730597837854,-0.00023995317190180697,0.4594261887832201,0.9999999913076111,918.0,1.1074386672942678,0.534286309622225,4.307554044936391,-0.018778533085281667,0.579,0.9999999999999887,-12.645171809930787,0.322864705312828,65,2026-10-07 19:16:31.098243,40.4,0.43500097390841747,0.052272489807702854,0.08340058446114887
0465,cdot_cos,Q,P-Q,66,13,15161,-0.01547247981100403,-0.023732855473674878,-0.05634978578938257,0.09308536554534462,918.0,1.1196812720885825,0.5344013563052185,4.341497264152497,-0.004893743891694357,0.147,0.9999999999999872,120.6883052367374,0.3278318588687287,66,2026-10-07 19:16:31.245243,40.4,0.05858638603369585,0.20687151744634882,0.08328302581166473
0465,cdot_cos,R,Q-R,67,13,15188,0.09159516086130769,0.22604070873653423,0.10706764067231171,0.9869461540441525,918.0,1.1682588934234943,0.5356209218509483,4.384246323197774,-0.019941399180464114,0.027,0.999999999999987,-12.338537556637894,0.3327989964286184,67,2026-10-07 19:16:31.272243,40.4,0.4702015929530839,1.0770467984639176,1.7991711605522902
0465,cdot_cos,S,R-S,68,13,15207,-0.0024475552776094525,-0.00972091152485382,-0.09404271613891714,0.02189570659709578,918.0,1.177841799205634,0.5356479735155548,4.417066471737971,-0.004033807977182135,0.019,0.9999999999999861,588.0448184867261,0.3377661331425526,68,2026-10-07 19:16:31.291244,40.4,0.019378970479753805,0.47927052773782075,0.5043634622178799
0465,cdot_cos,T,S-T,69,13,15492,-0.289073893792209,-0.01527683949708465,-0.28662633851459957,9.353935164768211e-06,918.0,1.1864711734775315,0.5356479850720914,4.449426460513662,-0.003660628224826971,0.285,0.999999999999985,32291.66010002095,0.3427333084543197,69,2026-10-07 19:16:31.576244,40.4,0.903079957794729,0.10307740066099713,0.030278506217184115
0465,cdot_cos,P,T-P,70,14,15932,0.04096803695938358,0.0002884226306497323,0.33004193075159255,0.999998380989862,799.0,1.2365959175824024,0.5368832350526952,4.491887551660627,-0.021783742509708364,0.44,0.9999999999999855,-14.671616733014055,0.347700508010433,70,2026-10-07 19:16:32.016243,40.4,0.43519722747084,0.0720285302676578,0.11391987296561566
0465,cdot_cos,Q,P-Q,71,14,16080,-0.011672041099365529,-0.026153250729186082,-0.05264007805874911,0.10653256697462887,799.0,1.2498562801130704,0.5370148032080413,4.524967311911843,-0.005913347718686167,0.148,0.9999999999999838,120.62489398954057,0.35266766405190564,71,2026-10-07 19:16:32.164243,40.4,0.068301350768464,0.20838022274237686,0.089597044126135
0465,cdot_cos,R,Q-R,72,14,16107,0.05675363461196213,0.27683129596596306,0.06842567571132765,0.9407213238799056,799.0,1.298276463514146,0.5381763721394424,4.566578100855597,-0.022120441731442973,0.027,0.9999999999999836,-13.952761282283975,0.3576348013748976,72,2026-10-07 19:16:32.191243,40.4,0.4806216199351194,1.134003533337809,1.7933401259657618
0465,cdot_cos,S,R-S,73,14,16125,-0.0004309433925818695,-0.009805386288782747,-0.057184578004544004,0.09027703981021748,799.0,1.311092470913312,0.5382878213966112,4.599133316374524,-0.005995406907172064,0.018,0.9999999999999821,144.68499148303945,0.36260193752532016,73,2026-10-07 19:16:32.209243,40.4,0.06791049387160829,0.6046072888030471,0.7120004110647837
0465,cdot_cos,T,S-T,74,14,16411,-0.29257648443868217,-0.16269932181636954,-0.2921455410461003,7.48441767007707e-06,799.0,1.3200423259110556,0.538287830636153,4.63052716044731,-0.0042217209493990455,0.286,0.9999999999999812,191966.87416848037,0.3675691185706185,74,2026-10-07 19:16:32.495244,40.4,0.6569591785018127,0.1063912243000849,0.031293199292809756
0465,cdot_cos,P,T-P,75,15,16731,0.029067346943158864,6.0713834309502086e-05,0.32164383138184105,0.9999977270069276,1177.0,1.3719482512129606,0.5395220943211807,4.6723985610975,-0.025041079405066762,0.32,0.9999999999999811,-16.86783683925787,0.37253630661605264,75,2026-10-07 19:16:32.815244,40.4,0.4354356790540161,0.10576253090205656,0.16220601656845302
0465,cdot_cos,Q,P-Q,76,15,16883,-0.013111462335141249,-0.01387183350405152,-0.04217880927830012,0.15394045169808193,1177.0,1.3877303456883718,0.5397120552031025,4.705100792498034,-0.007804757354616044,0.152,0.9999999999999799,90.73616565723289,0.37750346619769787,76,2026-10-07 19:16:32.967244,40.4,0.10987214428827076,0.22415600874675645,0.10382956891717918
0465,cdot_cos,R,Q-R,77,15,16911,0.10794648504497999,0.153348501143978,0.12105794738012124,0.9925402160139947,1177.0,1.4400916778719746,0.5409365599346998,4.746699233176864,-0.02652322578569224,0.028,0.9999999999999796,-15.286562761304323,0.38247060369165015,77,2026-10-07 19:16:32.995244,40.4,0.49374368226505616,1.1102579595428532,1.8700475779858117
0465,cdot_cos,S,R-S,78,15,16931,-0.002922764399062557,-0.005477615488047823,-0.11086924944404254,0.01121618739834899,1177.0,1.4499047914227716,0.5409503946377712,4.777544710094355,-0.00508002371724078,0.02,0.9999999999999787,1549.9575204348196,0.38743773998966646,78,2026-10-07 19:16:33.015244,40.4,0.014682733576372349,0.4792710525090893,0.49065567753985295
0465,cdot_cos,T,S-T,79,15,17211,-0.15539398707364058,0.11830782685194724,-0.15247122267457802,0.0021081431040853088,1177.0,1.4592625199723381,0.540952994938016,4.80809557360246,-0.004876411795337997,0.28,0.9999999999999776,78.30323529389682,0.39240492612662464,79,2026-10-07 19:16:33.295244,40.4,0.9591052541714975,0.11246141904919078,0.033420459105594685
0465,cdot_cos,P,T-P,80,16,17908,0.04480750489942626,0.00246726496209044,0.20020149197306683,0.9996929338585158,918.0,1.5128831860903185,0.5421858177017495,4.84945757645579,-0.028535417912055015,0.697,0.9999999999999775,-19.190922501356113,0.39737219553433606,80,2026-10-07 19:16:33.992243,40.4,0.4364374546598628,0.04835399380460559,0.07693065440169344
0465,cdot_cos,Q,P-Q,81,16,18059,-0.01027556488596723,-0.017580608198716156,-0.05508306978539349,0.09749650607686401,918.0,1.5266679873359583,0.542306023135995,4.8807544404082375,-0.00750194948509606,0.151,0.9999999999999755,174.97934730637292,0.40233935698621914,81,2026-10-07 19:16:34.143244,40.4,0.06058344072211676,0.22238820989604,0.09129007447443613
0465,cdot_cos,R,Q-R,82,16,18085,0.08343329427929291,0.22643292902542878,0.09370885916526014,0.9778135639875672,918.0,1.5800444254789225,0.5435113147502938,4.921704520994006,-0.02967794250557253,0.026,0.999999999999975,-18.398861119910123,0.4073064930800853,82,2026-10-07 19:16:34.169244,40.4,0.4736809072293063,1.2387973510757677,2.052939928575547
0465,cdot_cos,S,R-S,83,16,18105,-0.0011779477716131915,-0.005429612092535803,-0.0846112420509061,0.03172859258631596,918.0,1.5910854495918982,0.5435504162100253,4.951980202825136,-0.006266146990332829,0.02,0.9999999999999731,598.7447956161437,0.41227362823481584,83,2026-10-07 19:16:34.189243,40.4,0.02384371421595383,0.5149307243589252,0.5520512056487847
0465,cdot_cos,T,S-T,84,16,18408,-0.33761215934916833,-0.030873463539979096,-0.33643421157755515,1.2505296226514185e-06,918.0,1.6006416544532795,0.5435504177511337,4.981722105525958,-0.005458689531981723,0.303,0.9999999999999716,523945.93623511307,0.41724082477010416,84,2026-10-07 19:16:34.492243,40.4,0.8624988319124208,0.10701397616344303,0.031538629905548884
0465,cdot_cos,P,T-P,85,17,18826,0.02554733453268949,0.0004807159486624261,0.3631594938818578,0.9999995751985601,1120.0,1.6559359191469447,0.5447825126751349,5.0226468505362725,-0.03221277582975842,0.418,0.9999999999999718,-21.714306078701192,0.4222080482350093,85,2026-10-07 19:16:34.910244,40.4,0.43581270000533034,0.08680609061390648,0.1322829298891511
0465,cdot_cos,Q,P-Q,86,17,18981,-0.014733982134741282,-0.01810920198748151,-0.040281316667430775,0.16419162309161067,1120.0,1.6732115462065054,0.5449847604447293,5.05398103320651,-0.010287780620457454,0.155,0.9999999999999698,108.4066106304518,0.4271752135240623,86,2026-10-07 19:16:35.065243,40.4,0.1186984995419037,0.23494360970046932,0.11145565844877839
0465,cdot_cos,R,Q-R,87,17,19010,0.09846727485596685,0.1680373893063536,0.11320125699070813,0.989781969016688,1120.0,1.7287684381540902,0.5462036362590715,5.094648642812685,-0.03379324007372199,0.029,0.9999999999999687,-19.28454004639485,0.43214234995205303,87,2026-10-07 19:16:35.094244,40.4,0.4987915996985431,1.1412195901742483,1.9157548947443048
0465,cdot_cos,S,R-S,88,17,19033,-0.004129643459125108,-0.009668793506775306,-0.10259691831509196,0.015597633784924566,1120.0,1.7394022824366118,0.5462228397107881,5.124024719079426,-0.0065939825808663186,0.023,0.9999999999999674,1416.373363199989,0.4371094853010229,88,2026-10-07 19:16:35.117243,40.4,0.016165751496189686,0.4456493150641652,0.4623410557618072
0465,cdot_cos,T,S-T,89,17,19326,-0.2110224613381656,0.10700348888220543,-0.20689281787904049,0.00023434780087406925,1120.0,1.7492683066470418,0.5462231282334182,5.153058973206756,-0.006154023156780549,0.293,0.9999999999999659,1524.8697265152537,0.4420766866418593,89,2026-10-07 19:16:35.410244,40.4,0.9310043306451846,0.11397116232173359,0.03367243757825951
0465,cdot_cos,P,T-P,90,18,19946,0.04818108963357791,0.002107805091515636,0.2592035509717435,0.9999716774367282,1081.0,1.8061893835571476,0.5474539809403286,5.193604788153152,-0.0361679196215125,0.62,0.9999999999999656,-24.384637005082034,0.44704397120731865,90,2026-10-07 19:16:36.030244,40.4,0.4361153212163612,0.05756715345409185,0.09180818856468684
0465,cdot_cos,Q,P-Q,91,18,20097,-0.007893637691596804,-0.00975260968127548,-0.05607472732517471,0.09402772793911995,1081.0,1.8206515769301157,0.5475696888933396,5.223482266105685,-0.009373425030260953,0.151,0.9999999999999627,231.57003381359277,0.45201113806399157,91,2026-10-07 19:16:36.181243,40.4,0.057351306651212075,0.23722766806905143,0.09577611505276859
0465,cdot_cos,R,Q-R,92,18,20127,0.10789972953439135,0.188218156605656,0.11579336722598815,0.9907885332996108,1081.0,1.8778321393140012,0.548788611305657,5.263795801339707,-0.03777476874606718,0.03,0.9999999999999623,-23.30037041636501,0.4569782738561575,92,2026-10-07 19:16:36.211244,40.4,0.4714886915784834,1.132468201353539,1.9060187461295157
0465,cdot_cos,S,R-S,93,18,20147,-0.000645458866926603,-0.001537640288155515,-0.10854518840131795,0.01230673383440952,1081.0,1.888599669011328,0.5488037480748966,5.29247204099687,-0.007243913940181381,0.02,0.99999999999996,2016.999421913468,0.46194540734519995,93,2026-10-07 19:16:36.231244,40.4,0.014776895447878824,0.5223533316979945,0.538376484866343
0465,cdot_cos,T,S-T,94,18,20445,-0.470708758961211,0.078810570035629,-0.4700633000942844,5.655952370385976e-09,1081.0,1.898726272581921,0.5488037480818532,5.320850108414629,-0.00685052076060581,0.298,0.9999999999999579,56550068.687551245,0.46691261661508315,94,2026-10-07 19:16:36.529243,40.4,0.9441924230962981,0.11512295332346635,0.033981891176486305
0465,cdot_cos,P,T-P,95,19,21027,0.02733935923139382,0.0014951800552178655,0.4980481181926048,0.9999999981740109,1075.0,1.957212949192114,0.5500334020805521,5.361062832441855,-0.04026252446412089,0.582,0.9999999999999571,-27.17187415229686,0.4718799065383812,95,2026-10-07 19:16:37.111244,40.4,0.4361130979360528,0.06529192193470267,0.10049257149517703
0465,cdot_cos,Q,P-Q,96,19,21181,-0.015842022919320315,-0.02021974449634519,-0.04318138215071414,0.14873872759323603,1075.0,1.9747260697139148,0.5502162474067315,5.390996641529677,-0.012292834205076184,0.154,0.9999999999999539,152.9691288450078,0.4768470770044575,96,2026-10-07 19:16:37.265243,40.4,0.10276770757794496,0.24714026460130764,0.1137215618298758
0465,cdot_cos,R,Q-R,97,19,21207,0.09394183923834122,0.1683038138444612,0.10978386215766153,0.9882869331595154,1075.0,2.0333321506893167,0.551430807047189,5.430964041016696,-0.04191232063634909,0.026,0.9999999999999534,-24.38701686161241,0.48181421083829884,97,2026-10-07 19:16:37.291244,40.4,0.49326872142823946,1.3453488066031845,2.254080037515457
0465,cdot_cos,S,R-S,98,19,21231,-0.00468825855406408,-0.011881723999385268,-0.09863009779240531,0.018259241390415643,1075.0,2.0446842076572804,0.5514532410984369,5.459109002979325,-0.008260084394095263,0.024,0.999999999999951,1500.0516790543943,0.4867813444904575,98,2026-10-07 19:16:37.315244,40.4,0.017007871974997896,0.45912576481208867,0.4730023736651545
0465,cdot_cos,T,S-T,99,19,21521,-0.13256545500398137,0.04564435081859223,-0.1278771964499173,0.0056736166393739325,1075.0,2.055370187400297,0.5514602118934039,5.4869602639142165,-0.007817423951306525,0.29,0.9999999999999485,63.502146438432966,0.4917485587736419,99,2026-10-07 19:16:37.605243,40.4,0.9449485022246175,0.12181253160853199,0.036848206010401896
0465,cdot_cos,P,T-P,100,20,22102,0.03338760541770714,-0.0010427005067532304,0.1659530604216885,0.9987761189385748,1158.0,2.115335475990229,0.5526870241061032,5.5268707001850625,-0.04460101796723097,0.581,0.9999999999999479,-29.98306801575776,0.4967158647041395,100,2026-10-07 19:16:38.186244,40.4,0.438355332273239,0.06703256472051539,0.10321047950074355
0465,cdot_cos,Q,P-Q,101,20,22249,-0.009985901623811981,-0.010398073991933298,-0.04337350704151912,0.14775863457070743,1158.0,2.133262027605536,0.5528684642392462,5.556259810873807,-0.013581383248222664,0.147,0.999999999999944,170.96346977741422,0.5016830360327849,101,2026-10-07 19:16:38.333244,40.4,0.1018777220178104,0.26646405055156924,0.1219493307163733
0465,cdot_cos,R,Q-R,102,20,22276,0.11772570964475429,0.16194403493071394,0.12771161126856628,0.9942885191687312,1158.0,2.1936759068523903,0.5540890317756212,5.596025434712214,-0.04658966979665942,0.027,0.9999999999999428,-27.043392163672397,0.5066501693067041,102,2026-10-07 19:16:38.360243,40.4,0.4923874433033853,1.3246311102746289,2.237551083216833
0465,cdot_cos,S,R-S,103,20,22295,-0.0024801155652802932,-0.004325370248417514,-0.12020582521003459,0.007719047280564774,1158.0,2.204792107560366,0.5540985049829725,5.623486165643437,-0.008714214933645254,0.019,0.9999999999999405,3998.1659282117457,0.5116173003567833,103,2026-10-07 19:16:38.379244,40.4,0.012953374108438812,0.5742887272581532,0.585063195156604
0465,cdot_cos,T,S-T,104,20,22582,-0.18661355004545543,0.13868081312568062,-0.18413343448017513,0.0005875328148282757,1158.0,2.2154988784882,0.5540992260315106,5.650726053656192,-0.00843489505780955,0.287,0.9999999999999367,387.3801291824292,0.5165845212285703,104,2026-10-07 19:16:38.666244,40.4,0.9674274910495735,0.12582366165202463,0.037305822048203284
0465,cdot_cos,P,T-P,105,21,23260,0.0298603099640992,0.0001691149133275408,0.21647386000955463,0.999840856317572,919.0,2.277014889348628,0.555325946530315,5.690398182064939,-0.049227963637232725,0.678,0.9999999999999367,-33.25375961287284,0.5215518773861313,105,2026-10-07 19:16:39.344243,40.4,0.43663554302748914,0.05918381708645521,0.09073157944015899
0465,cdot_cos,Q,P-Q,106,21,23410,-0.012143328965008103,-0.02034139115009085,-0.0420036389291073,0.15486442353309426,919.0,2.2957521344574334,0.5555158922212682,5.71938678130603,-0.01526096783526706,0.15,0.9999999999999324,178.82477686915882,0.5265190525023775,106,2026-10-07 19:16:39.494244,40.4,0.10798712981509317,0.2662402602716056,0.12491496739203653
0465,cdot_cos,R,Q-R,107,21,23437,0.08366065716041424,0.2219268748727896,0.09580398612542235,0.979577438332103,919.0,2.3568869674301096,0.5567169941932648,5.758725997216883,-0.05063469405276175,0.027,0.9999999999999309,-29.451059978439428,0.5314861845818445,107,2026-10-07 19:16:39.521244,40.4,0.4972777794831639,1.364981276305655,2.2642530730620813
0465,cdot_cos,S,R-S,108,21,23456,-0.0017675677932380194,-0.008111808387109214,-0.08542822495365225,0.030730105637409928,919.0,2.369461123377939,0.5567546630455299,5.785964813621314,-0.01057930471805143,0.019,0.9999999999999277,1063.3557150303727,0.5364533141994958,108,2026-10-07 19:16:39.540244,40.4,0.02268157314702347,0.6189122187079705,0.6617976814646936
0465,cdot_cos,T,S-T,109,21,23741,-0.33582554630873357,-0.017709177146425212,-0.33405797851549557,1.3765313897960237e-06,919.0,2.3804056317410125,0.5567546647328625,5.812689980575155,-0.00925401641986674,0.285,0.9999999999999235,785433.940356659,0.5414205419576199,109,2026-10-07 19:16:39.825243,40.4,0.866570139984951,0.12971016178614417,0.03840178373008317
0465,cdot_cos,P,T-P,110,22,24179,0.04196146564893318,0.0008901012773943685,0.37778701195766673,0.9999997647449327,918.0,2.443395915596041,0.5579801022266733,5.852145344414098,-0.05405900681255898,0.438,0.9999999999999228,-36.56244453020718,0.5463878289214783,110,2026-10-07 19:16:40.263244,40.4,0.43656570805752404,0.09114416982145941,0.1438134334589691
0465,cdot_cos,Q,P-Q,111,22,24331,-0.00972162840876643,-0.016830372896136925,-0.05168309405769961,0.11026893474118349,918.0,2.460247924504611,0.5581151870139194,5.880109075230894,-0.01470103981383241,0.152,0.9999999999999182,291.3575081331757,0.5513550085831479,111,2026-10-07 19:16:40.415244,40.4,0.06875379486593987,0.26045702738133014,0.11086847966164455
0465,cdot_cos,R,Q-R,112,22,24357,0.08127980713439688,0.23013360411161737,0.09100143554316331,0.9753124303214649,918.0,2.5225748519199653,0.5593096153747802,5.919177318752769,-0.055218111630312317,0.026,0.9999999999999173,-33.92172619484664,0.5563221398275048,112,2026-10-07 19:16:40.441243,40.4,0.48009841281176807,1.449364606451244,2.3971895159751693
0465,cdot_cos,S,R-S,113,22,24379,-0.0014432773247204907,-0.007869854074931388,-0.08272308445911737,0.034157697419347106,918.0,2.5356148840400756,0.5593514346605102,5.945988037181366,-0.011727229795478918,0.022,0.9999999999999135,1039.9718951593852,0.5612892699510627,113,2026-10-07 19:16:40.463244,40.4,0.024513326169326694,0.5507929398161108,0.5927287327322859
0465,cdot_cos,T,S-T,114,22,24676,-0.34523960494979544,-0.01839156706779712,-0.34379632762507495,9.287998529797184e-07,918.0,2.546809741271874,0.5593514357976288,5.972239776291146,-0.0101160546256115,0.297,0.9999999999999097,1416892.7844678524,0.5662565110090018,114,2026-10-07 19:16:40.760243,40.4,0.8527668271111181,0.12728529886287646,0.03769312199258782
0465,cdot_cos,P,T-P,115,23,25097,0.03433450368367781,0.0009063169094485004,0.37957410863347324,0.9999997811313824,1236.0,2.6112223515646242,0.560575360356693,6.011501779246949,-0.059036129917559174,0.421,0.9999999999999089,-39.96984530594975,0.5712238048211298,115,2026-10-07 19:16:41.181243,40.4,0.4366399314158441,0.09887150152913333,0.15299907432957252
0465,cdot_cos,Q,P-Q,116,23,25256,-0.010526472453870126,-0.011057853414601934,-0.044860976137547935,0.14035031259736475,1236.0,2.6300595455594045,0.5607470799976234,6.039431696350513,-0.017542033804563907,0.159,0.999999999999904,241.63861447744924,0.5761909913853774,116,2026-10-07 19:16:41.340243,40.4,0.09391082153908613,0.26247486793086827,0.11847291820616498
0465,cdot_cos,R,Q-R,117,23,25281,0.10995107379891751,0.1525646379291905,0.12047754625278764,0.9923645819372137,1236.0,2.6946893595666404,0.5619608281043664,6.078536574380257,-0.06110764704133599,0.025,0.9999999999999033,-35.893455153290766,0.5811581216685017,117,2026-10-07 19:16:41.365243,40.4,0.49020467776340376,1.5335735036217368,2.5851925602894354
0465,cdot_cos,S,R-S,118,23,25304,-0.002967073115100511,-0.005259969754507915,-0.11291814691401802,0.010334357419198819,1236.0,2.7067382207404913,0.5619734640463749,6.10459521465537,-0.011556207487350138,0.023,0.999999999999899,3921.467787729232,0.5861252515696028,118,2026-10-07 19:16:41.388243,40.4,0.01373423803845338,0.5107456147082852,0.5238635292978676
0465,cdot_cos,T,S-T,119,23,25595,-0.29431032585260125,0.19406126625655865,-0.2913432527375007,7.730978322481893e-06,1236.0,2.7181836578432215,0.5619734734991042,6.130407671193194,-0.011025204228757657,0.291,0.9999999999998944,56174.597161299745,0.5910924993354005,119,2026-10-07 19:16:41.679244,40.4,0.952978754655573,0.13274035964762176,0.03933139897845416
0465,cdot_cos,P,T-P,120,24,26333,0.04949119450321637,-0.0024978087227429647,0.3438015203558176,0.9999990713949759,1020.0,2.783993110055407,0.5631958016057298,6.169501768506815,-0.06425598062675014,0.738,0.9999999999998939,-43.548680677026645,0.5960599490095534,120,2026-10-07 19:16:42.417243,40.4,0.4367398971416477,0.05582818172265771,0.08917269947450637
0465,cdot_cos,Q,P-Q,121,24,26480,-0.007233463432544906,-0.008639561102409384,-0.05672465793576127,0.0918146863699374,1020.0,2.8005860540658642,0.5633079911485513,6.196388880708676,-0.0164429446023512,0.147,0.999999999999887,426.1808616196147,0.6010271332165665,121,2026-10-07 19:16:42.564243,40.4,0.05459490585720723,0.28127735481375515,0.1128771701391638
0465,cdot_cos,R,Q-R,122,24,26499,0.1207307610847265,0.20280287817741424,0.1279642245172714,0.9943461838102189,1020.0,2.866688652370651,0.5645225781962973,6.2353566746858835,-0.06643306362384935,0.019,0.9999999999998859,-41.15811963767633,0.6059942589591159,122,2026-10-07 19:16:42.583244,40.4,0.4711925113413161,2.058483753895899,3.4790841213045756
0465,cdot_cos,S,R-S,123,24,26522,-0.0013103608213418081,-0.0030515794266442776,-0.1220411219060683,0.007171370255050865,1020.0,2.8788084367139084,0.5645313351820137,6.2609563769354315,-0.012348437462223449,0.023,0.9999999999998803,6176.169279346691,0.6109613871011587,123,2026-10-07 19:16:42.606244,40.4,0.01252691055996164,0.5173597974055641,0.5269471453590097
0465,cdot_cos,T,S-T,124,24,26814,-0.5829907271175442,0.06219199881160016,-0.5816803662962023,6.224849245739782e-11,1020.0,2.890487203051307,0.5645313351820898,6.286355894235178,-0.011948386704984375,0.292,0.9999999999998751,,0.6159286435176442,124,2026-10-07 19:16:42.898243,40.4,0.9670727332958522,0.13500863567058582,0.03999577512807784
0465,cdot_cos,P,T-P,125,25,27353,0.02294596440589799,-0.0011479600112594254,0.6059366915234422,0.9999999999766365,1178.0,2.9576534799455305,0.5657520421401069,6.325301160636696,-0.06961094466097449,0.539,0.9999999999998739,-47.237019152946566,0.6208960216487391,125,2026-10-07 19:16:43.437243,40.4,0.43676727877350413,0.077864300034308,0.12461275861636992
0465,cdot_cos,Q,P-Q,126,25,27501,-0.03461622303606119,-0.02694338268816628,-0.05756218744195918,0.08903196286041559,1178.0,2.974424918488291,0.5658606856437396,6.351771563937532,-0.017630327143626043,0.148,0.9999999999998674,478.45122606758497,0.6258632099630195,126,2026-10-07 19:16:43.585243,40.4,0.05242541669786945,0.28503753137493354,0.11332053069432867
0465,cdot_cos,R,Q-R,127,25,27521,0.11074184349886586,0.14094693492752575,0.14535806653492706,0.997191986125452,1178.0,3.042024589232511,0.5670770996479626,6.390635498312358,-0.07202479803386776,0.02,0.9999999999998657,-44.71707058731738,0.6308303349978138,127,2026-10-07 19:16:43.605243,40.4,0.4699078571484207,1.9991051703126428,3.3799835372109843
0465,cdot_cos,S,R-S,128,25,27543,-0.010775289317887352,-0.07578648498869534,-0.1215171328167532,0.00732367672479517,1178.0,3.054389125300797,0.5670860303851558,6.415847181340877,-0.013348957453704307,0.022,0.9999999999998597,6570.100464354909,0.6357974615812484,128,2026-10-07 19:16:43.627244,40.4,0.012332252262910348,0.591225903467052,0.5620243667402739
0465,cdot_cos,T,S-T,129,25,27833,-0.09608941018014133,0.07306900907198124,-0.08531412086225398,0.030867709647499422,1178.0,3.068038528985061,0.5671236710271735,6.44128783612816,-0.014798697504592758,0.29,0.999999999999854,-38.515284893543395,0.6407647263549198,129,2026-10-07 19:16:43.917243,40.4,0.9066815162204541,0.14111793969873165,0.04706690925608366
0465,cdot_cos,P,T-P,130,26,28531,0.033169926455124746,0.0004400409630464195,0.12925933663526606,0.994632853028736,1236.0,3.1362375303260612,0.5683361272469404,6.4800300399611865,-0.07487978996192685,0.698,0.9999999999998533,-49.55320569751187,0.6457322070690913,130,2026-10-07 19:16:44.615244,40.4,0.44826654031278973,0.0631599380829367,0.09770630564613195
0465,cdot_cos,Q,P-Q,131,26,28681,-0.011859883015494453,-0.011513215907340757,-0.0450298094706192,0.1395293777320678,1236.0,3.1562098025488408,0.5685061482495145,6.506851581008131,-0.02223828932358097,0.15,0.9999999999998451,309.61763453544285,0.6506993997459143,131,2026-10-07 19:16:44.765243,40.4,0.09374696119165893,0.29564427407751115,0.13314848148519687
0465,cdot_cos,R,Q-R,132,26,28710,0.11263559909914582,0.1438650474911037,0.12449548211464027,0.9935011983991766,1236.0,3.2249308125493146,0.5697162921893151,6.545543189147339,-0.07754359113452516,0.029,0.9999999999998433,-45.70142442729461,0.6556665278651326,132,2026-10-07 19:16:44.794244,40.4,0.4900657869371806,1.4045272890442886,2.3696900000163383
0465,cdot_cos,S,R-S,133,26,28730,-0.0021678556894087517,-0.003511850886600915,-0.11480345478855457,0.009583719435738117,1236.0,3.2376723853134095,0.569727961702149,6.57042470745671,-0.014560816560418218,0.02,0.9999999999998365,5397.2068474836915,0.6606336515837434,133,2026-10-07 19:16:44.814244,40.4,0.013226969002000415,0.6260341872063702,0.6370786382047466
0465,cdot_cos,T,S-T,134,26,29029,-0.14920234196037177,0.13517794403517944,-0.14703448627096302,0.002624614344716245,1236.0,3.2499721800375694,0.5697311575220481,6.595116284034749,-0.01411039995277419,0.299,0.9999999999998301,140.93929629077968,0.6656009306072151,134,2026-10-07 19:16:45.113244,40.4,0.968583197975418,0.13726464488539167,0.04113643720454808
0465,cdot_cos,P,T-P,135,27,29767,0.035659256602317904,0.0007857132498777619,0.1848615985626897,0.9994294896546981,1100.0,3.3197566429548737,0.5709476722173674,6.6338138568332,-0.08101347697249145,0.738,0.9999999999998282,-54.99569982765713,0.670568459949642,135,2026-10-07 19:16:45.851244,40.4,0.43787293613281525,0.06048604125311526,0.0945588928418758
0465,cdot_cos,Q,P-Q,136,27,29919,-0.012589435492364168,-0.01508794370975001,-0.04824869209468207,0.1246354708620523,1100.0,3.3392495769271675,0.5710993198635937,6.660106840804858,-0.022935042078673917,0.152,0.9999999999998188,382.98276523948226,0.6755356570474216,136,2026-10-07 19:16:46.003244,40.4,0.0794759186099274,0.29384390027948376,0.12824298665982758
0465,cdot_cos,R,Q-R,137,27,29945,0.10219825868147842,0.16793809489983297,0.11478769417384259,0.9904102349282025,1100.0,3.409085188639837,0.5723039043854118,6.6986470010910795,-0.08321087138480117,0.026,0.9999999999998166,-50.03868820691372,0.6805027816666075,137,2026-10-07 19:16:46.029243,40.4,0.48462763231382233,1.5975233644463218,2.6859850658718956
0465,cdot_cos,S,R-S,138,27,29965,-0.003131362932384335,-0.00708621331516572,-0.10532962161386275,0.013990096486647789,1100.0,3.4223207918783762,0.572320913709518,6.723249976022118,-0.015964525188800854,0.02,0.9999999999998088,3953.49902066327,0.6854699033143471,138,2026-10-07 19:16:46.049243,40.4,0.014813210361538567,0.640384068673927,0.6617801619269725
0465,cdot_cos,T,S-T,139,27,30268,-0.2526097839465072,0.11601247645618157,-0.24947842101412285,4.195259941164634e-05,1100.0,3.434700551386794,0.5723209647157254,6.747566201318828,-0.014988213447287381,0.303,0.999999999999801,19141.0377653258,0.6904371943900096,139,2026-10-07 19:16:46.352243,40.4,0.936937563505253,0.13776272490898453,0.040857292106988886
0465,cdot_cos,P,T-P,140,28,30867,0.028931249956460008,-0.0012484027692288952,0.2815410339029672,0.9999885127089183,1257.0,3.505805003173221,0.5735363172996417,6.786174822432089,-0.0870713722170631,0.599,0.9999999999997992,-59.31049123003823,0.6954046675774668,140,2026-10-07 19:16:46.951244,40.4,0.4369821634254304,0.0755322564124033,0.11870526174695659
0465,cdot_cos,Q,P-Q,141,28,31016,-0.021164668579069172,-0.01727082039956574,-0.05009591853552918,0.11671889048902002,1257.0,3.525188194568853,0.5736781159620992,6.8120519185181685,-0.024043207327416036,0.149,0.9999999999997888,444.49054594263737,0.7003718668820295,141,2026-10-07 19:16:47.100243,40.4,0.07269707571166131,0.30481770607935954,0.1300885328565917
0465,cdot_cos,R,Q-R,142,28,31035,0.11762834186456966,0.13310500722351748,0.13879301044363884,0.9963422317895508,1257.0,3.59664067958487,0.5748880502075687,6.8505835022370665,-0.08970981830089735,0.019,0.9999999999997873,-54.27287575284481,0.705338985802845,142,2026-10-07 19:16:47.119244,40.4,0.4809513679007171,2.223942126615615,3.760657106106157
0465,cdot_cos,S,R-S,143,28,31057,-0.005042722987141608,-0.007084575864494956,-0.12267106485171127,0.006992423973377462,1257.0,3.6096979953802464,0.5748965384886525,6.8747644532168275,-0.01658813089309554,0.022,0.9999999999997783,8614.428137563613,0.710306107237682,143,2026-10-07 19:16:47.141243,40.4,0.01217862724679393,0.5898233519764474,0.5935143543352904
0465,cdot_cos,T,S-T,144,28,31347,-0.13626803220418007,0.14774187106331446,-0.13122530921703845,0.004959381653912442,1257.0,3.6225929070718337,0.5749025587812532,6.898832450050762,-0.01644074651786168,0.29,0.9999999999997693,24.48126445177599,0.7152734007359141,144,2026-10-07 19:16:47.431243,40.4,0.991075482779321,0.1469226487710483,0.04446521272961137
0465,cdot_cos,P,T-P,145,29,32124,0.0396353765865369,0.0016276664020687705,0.17590340879071698,0.999180910450739,1140.0,3.6949131316674544,0.5761150290179888,6.937345414834549,-0.09322332500725627,0.777,0.999999999999768,-63.32739242830178,0.7202410136650336,145,2026-10-07 19:16:48.208243,40.4,0.4388308369697345,0.05937703622061962,0.09307622213078598
0465,cdot_cos,Q,P-Q,146,29,32279,-0.009566699186141074,-0.011363987971685934,-0.049202075772677975,0.12049363606429686,1140.0,3.7148648213586766,0.5762611821313416,6.96299233587064,-0.026040362103736184,0.155,0.999999999999756,459.6752088432622,0.7252082203124519,146,2026-10-07 19:16:48.363244,40.4,0.07577741249751917,0.2979336675337674,0.12872057865304637
0465,cdot_cos,R,Q-R,147,29,32308,0.10802663457848528,0.1760900404146456,0.11759333376462636,0.9914290659345721,1140.0,3.7872725686029223,0.5774632302433526,7.001371588512832,-0.09561001768451391,0.029,0.9999999999997534,-57.87593265663146,0.7301753436074642,147,2026-10-07 19:16:48.392244,40.4,0.4830477277437464,1.4825394861397598,2.496818870491231
0465,cdot_cos,S,R-S,148,29,32329,-0.0013455877820732665,-0.0029223040710591626,-0.10937222236055855,0.011907147972557909,1140.0,3.8008521115547826,0.5774776613999463,7.0253209705436666,-0.018136313573352873,0.021,0.999999999999743,5368.502767468992,0.7351424621028322,148,2026-10-07 19:16:48.413243,40.4,0.013957408305633764,0.6285389232925204,0.6466449024695413
0465,cdot_cos,T,S-T,149,29,32624,-0.3638182310763586,0.14525217523651981,-0.3624726432942853,4.367542199376718e-07,1140.0,3.813671203381208,0.5774776619292787,7.049015204555184,-0.017180246327032835,0.295,0.9999999999997328,1806175.3366353696,0.7401097687852344,149,2026-10-07 19:16:48.708243,40.4,0.945870873656684,0.14649203430329255,0.0434545485641542
0465,cdot_cos,P,T-P,150,30,33264,0.034359724681022934,-0.0002783932088834475,0.3981779557573815,0.999999896778587,1100.0,3.8872824117937252,0.5786891617611647,7.08746790341309,-0.09969673572218449,0.64,0.999999999999731,-68.11102009539484,0.7450773180609166,150,2026-10-07 19:16:49.348243,40.4,0.4370643081960286,0.07391817708228693,0.11501751314455799
0465,cdot_cos,Q,P-Q,151,30,33411,-0.012221869933512963,-0.01372013839654399,-0.0465815946145359,0.13217119837260985,1100.0,3.9082864700465354,0.5788492166306283,7.113020487265575,-0.028793775475947813,0.147,0.9999999999997183,442.99158459762845,0.7500445233893575,151,2026-10-07 19:16:49.495244,40.4,0.08522669714536144,0.3223429182410018,0.1428847500191167
0465,cdot_cos,R,Q-R,152,30,33436,0.11250115769864392,0.17073877830543327,0.12472302763215688,0.9935602841122472,1100.0,3.9820512297565798,0.58005185200423,7.151361775404593,-0.10227076658291391,0.025,0.9999999999997157,-61.09664884287424,0.7550116424628507,152,2026-10-07 19:16:49.520243,40.4,0.4875046430086062,1.748694624040903,2.950590388401775
0465,cdot_cos,S,R-S,153,30,33456,-0.0021415009931350063,-0.004215507691733135,-0.11464265869177893,0.009645577025143051,1100.0,3.9957212012485805,0.5800635226683533,7.1749917773856335,-0.01916253451605427,0.02,0.9999999999997046,7121.122773253911,0.7599787585588749,153,2026-10-07 19:16:49.540244,40.4,0.013075478246805853,0.6677085717812337,0.6834985746000388
0465,cdot_cos,T,S-T,154,30,33743,-0.2610893499764023,0.14667628903056845,-0.25894784898326734,2.8616653597490554e-05,1100.0,4.008759572627829,0.5800635572929348,7.198401694847474,-0.018338347701239256,0.287,0.9999999999996932,23803.516989107888,0.7649460704320439,154,2026-10-07 19:16:49.827244,40.4,0.9560516387655614,0.15308912097936223,0.04542986543292185
0465,cdot_cos,P,T-P,155,31,34364,0.043133748954195035,0.001820660689777688,0.30422309893059735,0.9999954053491575,1096.0,4.0835943566907345,0.5812730134091815,7.236792980228484,-0.10632465678671246,0.621,0.999999999999692,-72.74865776736279,0.7699136328550972,155,2026-10-07 19:16:50.448243,40.4,0.4371298553133194,0.07670817242371472,0.12050689865202148
0465,cdot_cos,Q,P-Q,156,31,34514,-0.006795299780523514,-0.008251853952386196,-0.04992904873471855,0.11741571141522184,1096.0,4.104031122778083,0.5814149594433579,7.261873002779471,-0.02937545287440809,0.15,0.9999999999996779,542.1018231244432,0.7748808447370445,156,2026-10-07 19:16:50.598243,40.4,0.072838764777913,0.31772344031809396,0.13624510724898897
0465,cdot_cos,R,Q-R,157,31,34544,0.1128730617047355,0.19100181943150824,0.11966836148525901,0.9921128484035738,1096.0,4.178911388786163,0.5826138027610005,7.300132544045139,-0.10879661224440018,0.03,0.9999999999996758,-66.24815620289971,0.7798479662065012,157,2026-10-07 19:16:50.628243,40.4,0.4819106182183368,1.4798599610422367,2.4960088669359948
0465,cdot_cos,S,R-S,158,31,34566,-0.0008878908784199855,-0.002035933836546221,-0.1137609525831555,0.009991859203112753,1096.0,4.192822720440617,0.5826258717227798,7.323496167938265,-0.020428852013061556,0.022,0.9999999999996628,7321.9024011583915,0.7848150821758098,158,2026-10-07 19:16:50.650244,40.4,0.013225147547482505,0.6172452625887928,0.6323332570206524
0465,cdot_cos,T,S-T,159,31,34860,-0.4604322611823921,0.10831494362637854,-0.4595443703039721,8.650985698323238e-09,1096.0,4.2060701803400695,0.5826258717332291,7.346635224720783,-0.019517064210231416,0.294,0.9999999999996512,87258198.85606055,0.7897824104654723,159,2026-10-07 19:16:50.944243,40.4,0.9543569968656526,0.15184282036939745,0.04505938741310384
0465,cdot_cos,P,T-P,160,32,35460,0.04613796838176506,0.002793260230463785,0.5065702295641572,0.999999998705883,879.0,4.282106298817823,0.5838332482595835,7.384973948102924,-0.11311886424589596,0.6,0.9999999999996492,-77.52494602349982,0.7947499832221551,160,2026-10-07 19:16:51.544243,40.4,0.437156463719104,0.07942326097275447,0.1267268641295886
0465,cdot_cos,Q,P-Q,161,32,35612,-0.010009664702724094,-0.019363203803445573,-0.056147633084489154,0.09377712004872717,879.0,4.301378093507375,0.5839464212166326,7.409452209230435,-0.028990290581858758,0.152,0.9999999999996344,743.3628656313699,0.7997172012146058,161,2026-10-07 19:16:51.696243,40.4,0.05491565063591662,0.30770256493829823,0.12678812295758027
0465,cdot_cos,R,Q-R,162,32,35638,0.07121521476734452,0.24236592139129057,0.08122487947006861,0.9637881512171018,879.0,4.375647878559065,0.5851090338953594,7.447224980360284,-0.11284916103521592,0.026,0.9999999999996317,-72.129671375334,0.8046843181737825,162,2026-10-07 19:16:51.722244,40.4,0.4756343754717913,1.7507161110600442,2.8565301942957873
0465,cdot_cos,S,R-S,163,32,35659,-0.0007587056502671954,-0.006226290414043294,-0.07197392041761172,0.051771957399030996,879.0,4.392415331282497,0.5851714594477997,7.470971867386574,-0.025743468323568677,0.021,0.9999999999996185,1395.35317360563,0.8096514317291111,163,2026-10-07 19:16:51.743244,40.4,0.03392498131923424,0.7195370609132323,0.79845012968723
0465,cdot_cos,T,S-T,164,32,35958,-0.3363187403009612,-0.07583899571239194,-0.335560034650694,1.2954833420136597e-06,879.0,4.405868435117421,0.5851714610098324,7.493853927003692,-0.020726060745127492,0.299,0.9999999999996055,3212101.4476142963,0.8146187757817508,164,2026-10-07 19:16:52.042243,40.4,0.7849917547894114,0.15162140602500548,0.04499365831078238
0465,cdot_cos,P,T-P,165,33,36339,0.031459961025113704,0.0019027138808542694,0.36777870132607493,0.9999996475157463,896.0,4.4830849320854504,0.5863767010745435,7.532147984602432,-0.12008448752688533,0.381,0.9999999999996035,-82.43870220624684,0.8195861913063293,165,2026-10-07 19:16:52.423244,40.4,0.4371825899011323,0.1302378185508921,0.20266797104469644
0465,cdot_cos,Q,P-Q,166,33,36506,-0.01511782055161867,-0.031895699821772476,-0.046577781576732376,0.1321888688373373,896.0,4.505109652853201,0.586535943386743,7.55698999377033,-0.034630581575781534,0.167,0.9999999999995899,536.6281409182277,0.8245534279841681,166,2026-10-07 19:16:52.590244,40.4,0.08478937262950853,0.2900747120833608,0.13188455549551148
0465,cdot_cos,R,Q-R,167,33,36526,0.06058998055627694,0.23794807951107086,0.07570780110789561,0.9551521571700874,896.0,4.579969885921293,0.5876860349212589,7.594580326808021,-0.11887699185587265,0.02,0.9999999999995878,-73.25191756632537,0.8295205393191013,167,2026-10-07 19:16:52.610244,40.4,0.49229084783718147,2.3355142543802776,3.7430116534046043
0465,cdot_cos,S,R-S,168,33,36548,-0.001376327710486592,-0.013837954247443104,-0.06196630826676353,0.07561745492643535,896.0,4.598530223028412,0.5877770446243954,7.618464262397659,-0.029774665748195074,0.022,0.9999999999995747,979.0420475723226,0.8344876531115123,168,2026-10-07 19:16:52.632244,40.4,0.050159114216797536,0.732467617253157,0.8436516866872281
0465,cdot_cos,T,S-T,169,33,36835,-0.2529880641666472,-0.05730037485287978,-0.25161173645616064,3.848843921056273e-05,896.0,4.612198461080432,0.5877770909457893,7.6411052138462106,-0.022003706627339505,0.287,0.9999999999995615,167761.7718165903,0.8394550001822191,169,2026-10-07 19:16:52.919244,40.4,0.7024606369816457,0.16037813126267855,0.047624522829337594
0465,cdot_cos,P,T-P,170,34,37235,0.03574028949015858,0.0011982586313153169,0.28872835365680577,0.9999914076138664,1179.0,4.6905872703731895,0.5889800680989586,7.679363671442026,-0.12734299114325764,0.4,0.9999999999995605,-87.56549053188287,0.8444224505383089,170,2026-10-07 19:16:53.319244,40.4,0.4372679443294579,0.12596297532624368,0.195972023231894
0465,cdot_cos,Q,P-Q,171,34,37402,-0.010773464414704143,-0.012389597375243122,-0.046513753904862724,0.13248588653731605,1179.0,4.712968841341427,0.5891393675159555,7.704000146256922,-0.03674851331626393,0.167,0.9999999999995454,568.7056458515872,0.8493896940164631,171,2026-10-07 19:16:53.486243,40.4,0.08498711785399579,0.30158629620438576,0.13402138304333736
0465,cdot_cos,R,Q-R,172,34,37421,0.10692980359171748,0.16655432391441607,0.11770326800642163,0.9914667238762946,1179.0,4.791317093305454,0.5903308996677513,7.742120460223764,-0.12990384476103606,0.019,0.9999999999995445,-78.18113116324639,0.8543568036198224,172,2026-10-07 19:16:53.505243,40.4,0.48816105977572843,2.448018585331537,4.123592208633027
0465,cdot_cos,S,R-S,173,34,37444,-0.002749576149154848,-0.0055988446448456165,-0.10967937974087233,0.011762030475608354,1179.0,4.805993547584025,0.5903450287927432,7.764779834011723,-0.024571936082656943,0.023,0.9999999999995305,7454.949173350544,0.8593239176399996,173,2026-10-07 19:16:53.528243,40.4,0.013750567458175553,0.6207178117213737,0.638106707763952
0465,cdot_cos,T,S-T,174,34,37735,-0.2310438279769962,0.15806015413617827,-0.22829425182784135,9.872360290012332e-05,1179.0,4.8198701126446375,0.5903451473837216,7.7871906114170955,-0.023301845960017137,0.291,0.9999999999995163,10709.837629209558,0.8642912814342565,174,2026-10-07 19:16:53.819244,40.4,0.9469528390413468,0.16050719012003759,0.047685790586296566
0465,cdot_cos,P,T-P,175,35,38414,0.03880881025592988,-0.0014216768687249199,0.2698526382329261,0.9999815798430204,859.0,4.899408732233887,0.5915458263379266,7.825419111983566,-0.13473744197248666,0.679,0.9999999999995157,-92.81048495286436,0.8692590138356937,175,2026-10-07 19:16:54.498244,40.4,0.437334302537691,0.07370125422065187,0.11714082413733368
0465,cdot_cos,Q,P-Q,176,35,38561,-0.01566696861029495,-0.02623218372655328,-0.05447577886622483,0.09967674543547471,859.0,4.919956415876283,0.5916654487137616,7.8493328038269885,-0.035162774321423014,0.147,0.9999999999994984,832.4083764098132,0.8742262434101747,176,2026-10-07 19:16:54.645243,40.4,0.05890551432820296,0.33829646085607196,0.13978016083262365
0465,cdot_cos,R,Q-R,177,35,38580,0.08462678937023073,0.2392045920971147,0.10029375798052567,0.9829073752938465,859.0,4.998867891725572,0.5928444554507645,7.887286155635348,-0.1362843373112132,0.019,0.9999999999994961,-85.76843525665342,0.8791933506390064,177,2026-10-07 19:16:54.664243,40.4,0.47616558617403815,2.4982793098734,4.1532355710152355
0465,cdot_cos,S,R-S,178,35,38602,-0.002277809027652726,-0.012171321779391118,-0.08690459839788345,0.029002389753590076,859.0,5.014891029651472,0.5928792279275287,7.909999153241407,-0.027936933317207688,0.022,0.9999999999994813,3115.895503467697,0.8841604615378161,178,2026-10-07 19:16:54.686244,40.4,0.020686260949615672,0.6838703279199645,0.7283244511772596
0465,cdot_cos,T,S-T,179,35,38894,-0.32207572616113705,-0.06853607110012526,-0.3197979171334843,2.4489815806918483e-06,859.0,5.028958186154051,0.5928792308637011,7.932187160101428,-0.024600307846449745,0.292,0.9999999999994654,1136386.0828542532,0.8891278382770698,179,2026-10-07 19:16:54.978244,40.4,0.8731626015549084,0.16222005935501999,0.04817519350198194
0465,cdot_cos,P,T-P,180,36,39273,0.03712214220966859,-0.0005694174470097699,0.35919786837080564,0.9999995014661672,878.0,5.109627544314804,0.5940776110166986,7.970391295725996,-0.14227108230063534,0.379,0.9999999999994642,-98.19152475101562,0.8940953044501355,180,2026-10-07 19:16:55.357243,40.4,0.4373206986877123,0.13543256847648982,0.2128479107143877
0465,cdot_cos,Q,P-Q,181,36,39426,-0.012922141937175285,-0.02510990056205011,-0.05004428414684388,0.11693412292098457,878.0,5.13161607305923,0.5942176697666142,7.994385032164126,-0.03916806084705198,0.153,0.999999999999448,736.1412372720358,0.899062546159682,181,2026-10-07 19:16:55.510243,40.4,0.07191115583960343,0.3294730058475841,0.14371587414657752
0465,cdot_cos,R,Q-R,182,36,39452,0.06927274597561929,0.23822714716698143,0.08219488791279457,0.9651312628498772,878.0,5.210446284104164,0.5953730758911816,8.03202586753989,-0.14167338494847204,0.026,0.9999999999994463,-88.71800306562866,0.9040296597553811,182,2026-10-07 19:16:55.536243,40.4,0.485035749017387,1.861271073238379,3.0319311940359377
0465,cdot_cos,S,R-S,183,36,39474,-0.001365632851702267,-0.011578233195399605,-0.07063837882732156,0.05448571162812028,878.0,5.228402168867626,0.5954382720363944,8.054943591137988,-0.032570578047616566,0.022,0.9999999999994308,1673.4548729022524,0.9089967699853654,183,2026-10-07 19:16:55.558244,40.4,0.035093650914774725,0.7323204716586803,0.8161765801573331
0465,cdot_cos,T,S-T,184,36,39754,-0.2948615212104409,-0.06202550917870707,-0.29349588835873863,7.087052878891901e-06,878.0,5.242668384857146,0.5954382805163533,8.076921752686488,-0.025957685268757566,0.28,0.9999999999994146,779826.0461840209,0.9139641483125368,184,2026-10-07 19:16:55.838243,40.4,0.7751051016739969,0.1715249932775672,0.050950771391145004
0465,cdot_cos,P,T-P,185,37,40151,0.03182156065469891,0.0012526395719516536,0.32668308186513983,0.9999981456908583,1321.0,5.324456165103063,0.5966342512290839,8.115107222167591,-0.15003649308725536,0.397,0.9999999999994144,-103.74736312330471,0.9189316523271238,185,2026-10-07 19:16:56.235244,40.4,0.43736339768888394,0.13507257816248822,0.20601455981339303
0465,cdot_cos,Q,P-Q,186,37,40321,-0.008551944548859113,-0.008751644627505535,-0.04037350520355802,0.1636811502170168,1321.0,5.349916011918162,0.596829900511243,8.139678830314539,-0.04717169828775558,0.17,0.9999999999993983,525.7611664317502,0.9238989186895593,186,2026-10-07 19:16:56.405244,40.4,0.11296848241864274,0.315134474215713,0.14976380479469767
0465,cdot_cos,R,Q-R,187,37,40344,0.10823881396076025,0.14052696845372642,0.11679075850961937,0.9911491071536128,1321.0,5.431601886336406,0.5980139682730944,8.177722286656104,-0.1527191905140778,0.023,0.9999999999993974,-89.13973982476018,0.9288660284281546,187,2026-10-07 19:16:56.428244,40.4,0.5010139448990477,2.1078795413610223,3.5515597573149487
0465,cdot_cos,S,R-S,188,37,40364,-0.0023335994600810457,-0.003721864538460139,-0.1105724134208413,0.01134996779568584,1321.0,5.446878470820769,0.5980275208242323,8.199744510740288,-0.028817514910993228,0.02,0.9999999999993807,9142.313822873166,0.933833135648548,188,2026-10-07 19:16:56.448243,40.4,0.013574982146975027,0.7442553755024894,0.7638292242181599
0465,cdot_cos,T,S-T,189,37,40651,-0.19671842781311094,0.21735888762451727,-0.1943848283530299,0.0003883764264746813,1321.0,5.461372101356505,0.5980279845666316,8.22152978076315,-0.027415373148836044,0.287,0.999999999999364,3023.535833818716,0.9388005353915316,189,2026-10-07 19:16:56.735244,40.4,0.9501414965309827,0.16965482374080817,0.05050045482834976
0465,cdot_cos,P,T-P,190,38,41472,0.025784611093255503,0.0018430662239390164,0.22250303890636644,0.9998752560752008,1055.0,5.544260339647993,0.5992213058913243,8.259700067379695,-0.15803170850291676,0.821,0.999999999999364,-109.45613109505449,0.9437685294290409,190,2026-10-07 19:16:57.556243,40.4,0.4375694708635018,0.06651655118252785,0.10096009536112974
0465,cdot_cos,Q,P-Q,191,38,41637,-0.013235709458152084,-0.019263312932468357,-0.039020320551407583,0.1713029601284783,1055.0,5.570592278398216,0.5994256332798872,8.284231802783866,-0.05069317566190464,0.165,0.9999999999993436,525.3262110182785,0.9487357952660802,191,2026-10-07 19:16:57.721244,40.4,0.12034221124615721,0.329184887947151,0.1595875075771104
0465,cdot_cos,R,Q-R,192,38,41662,0.08894292066495595,0.18943220236409705,0.10217863012310803,0.9841407602674547,1055.0,5.652891352670553,0.6005988286131553,8.322146280947663,-0.15983095051669183,0.025,0.9999999999993415,-93.02609016587974,0.9537029039953343,192,2026-10-07 19:16:57.746243,40.4,0.5051840069380515,1.9735060463335508,3.291962970893465
0465,cdot_cos,S,R-S,193,38,41682,-0.0024980218424378777,-0.007573290644834831,-0.09144094250739382,0.024263626178418155,1055.0,5.669267580714894,0.6006277387927819,8.34419201097465,-0.0320827019984167,0.02,0.9999999999993223,4418.798159275484,0.9586700077802307,193,2026-10-07 19:16:57.766243,40.4,0.018651253100912712,0.7761659687844924,0.8188114022170456
0465,cdot_cos,T,S-T,194,38,41988,-0.2585255583385952,0.06461379259782335,-0.25602753649615734,3.219998166110908e-05,1055.0,5.683937991421932,0.6006277771586858,8.36578167890658,-0.028819642281176318,0.306,0.9999999999993036,85051.03192387352,0.9636374415408333,194,2026-10-07 19:16:58.072243,40.4,0.8929510958006246,0.16121350432007472,0.04794251865045354
0465,cdot_cos,P,T-P,195,39,42527,0.01474109087723032,5.9301998696353494e-05,0.2732666492158255,0.9999839530005409,1237.0,5.767930245358779,0.601818648721875,8.403944993086135,-0.1662671954520571,0.539,0.999999999999302,-115.41761296473564,0.9686051501087258,195,2026-10-07 19:16:58.611244,40.4,0.43750519615870115,0.10217253455610278,0.15582978466947486
0465,cdot_cos,Q,P-Q,196,39,42681,-0.025643555475884858,-0.02340864052572237,-0.04038464635311518,0.16361954518636035,1237.0,5.794079983673411,0.6020133874425927,8.428192591725798,-0.052254030316578895,0.154,0.999999999999281,585.4673621931354,0.97357240953662,196,2026-10-07 19:16:58.765243,40.4,0.11282674752272856,0.3579101930850821,0.1698034955495575
0465,cdot_cos,R,Q-R,197,39,42710,0.1024088038612049,0.13930011377038518,0.12805235933708975,0.9943661660402764,1237.0,5.878166584828985,0.6031961779625403,8.4662670300391,-0.16945723169919055,0.029,0.999999999999279,-99.09041322701933,0.9785395214885072,197,2026-10-07 19:16:58.794244,40.4,0.5007547445971589,1.7219279822812548,2.899537970881842
0465,cdot_cos,S,R-S,198,39,42732,-0.005424328124678285,-0.009510920272649452,-0.1078331319858832,0.012661356409141589,1237.0,5.893951806645724,0.6032112308001915,8.487939617826502,-0.03208327070742144,0.022,0.9999999999992581,9126.117226239521,0.9835066258227058,198,2026-10-07 19:16:58.816243,40.4,0.013817848469990122,0.7111740837990801,0.7175100825790618
0465,cdot_cos,T,S-T,199,39,43028,-0.1213698753182811,0.10180942156673659,-0.11594554719360281,0.009155524598672818,1237.0,5.909458244516144,0.603222115501603,8.509500346119518,-0.03160012413726654,0.296,0.9999999999992377,44.387673293744626,0.9884740625752075,199,2026-10-07 19:16:59.112243,40.4,0.9848269009199963,0.169701460248186,0.052386614427095156
0465,cdot_cos,P,T-P,200,40,43764,0.03653048818902742,-0.0013967482370691065,0.15790036350730852,0.9983063507707802,1080.0,5.99441507111265,0.6044083538374163,8.547630272374494,-0.17442493619963736,0.736,0.9999999999992365,-120.40144695243303,0.9934420418383707,200,2026-10-07 19:16:59.848243,40.4,0.44094614486307615,0.07402623663431358,0.11543047091916568
0465,cdot_cos,Q,P-Q,201,40,43914,-0.01087857392120554,-0.01234574112260943,-0.047409062110232957,0.12838367300094108,1080.0,6.018424864841854,0.6045608170166863,8.57113459640197,-0.04973914333633423,0.15,0.9999999999992121,817.8092143973436,0.9984093011789975,201,2026-10-07 19:16:59.998244,40.4,0.08152919220012095,0.3638115230156025,0.1600652915280243
0465,cdot_cos,R,Q-R,202,40,43936,0.11608377098750285,0.1807890335042252,0.1269623449087084,0.9941140204557982,1080.0,6.103558528017331,0.6057406957533757,8.60919864654776,-0.17778213721269923,0.022,0.9999999999992086,-108.52216409597527,1.0033764017860403,202,2026-10-07 19:17:00.020243,40.4,0.48664314838793565,2.290975107332177,3.869711962521687
0465,cdot_cos,S,R-S,203,40,43956,-0.002621511983484403,-0.005378098327694437,-0.11870528297098724,0.008197510837347065,1080.0,6.1192277695644695,0.605750419986624,8.630620767877426,-0.03299344729526457,0.02,0.9999999999991855,14889.471099715971,1.0083435006872266,203,2026-10-07 19:17:00.040244,40.4,0.012420493733424675,0.7680665689920652,0.7834620773569334
0465,cdot_cos,T,S-T,204,40,44245,-0.374947060285617,0.1175424267656446,-0.37232554830213255,2.933344401999003e-07,1080.0,6.134281190777013,0.6057504203345883,8.651852326854526,-0.03177643653043436,0.289,0.9999999999991633,3497517.041599178,1.0133109419766435,204,2026-10-07 19:17:00.329243,40.4,0.9624249806435276,0.17506786543926536,0.052087962673162416
0465,cdot_cos,P,T-P,205,41,44844,0.02389390582256957,0.0001949914795377929,0.39884096610818653,0.9999998995067355,1155.0,6.220416995788365,0.6069360320895967,8.690007424662797,-0.18313292105331755,0.599,0.9999999999991603,-127.66108625652778,1.018278784917623,205,2026-10-07 19:17:00.928244,40.4,0.4375850016776422,0.09548309522648298,0.14379934058656332
0465,cdot_cos,Q,P-Q,206,41,44996,-0.013019069372466031,-0.014608905683761029,-0.0369129751950356,0.18372905458175198,1155.0,6.24866993885834,0.6071537269214227,8.714301587705227,-0.060612767587142805,0.152,0.9999999999991366,562.8069000926498,1.0232460526185618,206,2026-10-07 19:17:01.080243,40.4,0.13247533018997404,0.3757162538856431,0.18587462546036296
0465,cdot_cos,R,Q-R,207,41,45024,0.10314991003584335,0.15714607189690305,0.11616897940830939,0.990926000807847,1155.0,6.3346347369696,0.6083271082965584,8.752309265642834,-0.1859175744506994,0.028,0.999999999999133,-106.78949702014508,1.0282131591161168,207,2026-10-07 19:17:01.108243,40.4,0.5096758057004788,1.8249027363132735,3.070171361116441
0465,cdot_cos,S,R-S,208,41,45050,-0.0035963425580360434,-0.007341264501193704,-0.1067462525938794,0.013222187573007733,1155.0,6.350864492091883,0.608342756606623,8.773650307202743,-0.03538494850205006,0.026,0.9999999999991086,9619.736912682025,1.0331802638468612,208,2026-10-07 19:17:01.134243,40.4,0.014205261455854351,0.6059179858549731,0.6242213508570374
0465,cdot_cos,T,S-T,209,41,45344,-0.19630089761918362,0.12397960882760142,-0.1927045550611476,0.0004156446973437318,1155.0,6.366142472234059,0.6083432485138306,8.794722620757035,-0.03339255909873853,0.294,0.9999999999990841,4050.335860895046,1.0381477263556933,209,2026-10-07 19:17:01.428244,40.4,0.9420794465952113,0.17425345912625467,0.051965918850937515
0465,cdot_cos,P,T-P,210,42,45999,0.023302740338760904,0.0002902993224256849,0.21960363795794452,0.9998597560605925,1238.0,6.453325526058121,0.6095259235186149,8.832876244088625,-0.1918805098106191,0.655,0.9999999999990816,-134.0080326976939,1.0431156787911522,210,2026-10-07 19:17:02.083244,40.4,0.4378091842079103,0.08947788638326853,0.13310389896803373
0465,cdot_cos,Q,P-Q,211,42,46149,-0.010469788766747938,-0.010020940696649076,-0.03377252910550884,0.20352446801478372,1238.0,6.483358503396141,0.6097665034681772,8.857376903046559,-0.06668895607668279,0.15,0.9999999999990553,520.3740127209855,1.048082949444302,211,2026-10-07 19:17:02.233243,40.4,0.15301096927773136,0.39096169884602777,0.20021984892013123
0465,cdot_cos,R,Q-R,212,42,46176,0.11726802954938723,0.14548343356700905,0.12773781831613518,0.9942945285996582,1238.0,6.570614035711929,0.6109410586815666,8.895442971186622,-0.19529663755370835,0.027,0.9999999999990514,-109.49479429400832,1.0530500524360835,212,2026-10-07 19:17:02.260243,40.4,0.517614350173957,1.9129984961847426,3.231686382066246
0465,cdot_cos,S,R-S,213,42,46194,-0.002567170708086686,-0.003930798249696417,-0.1198352002574739,0.007834583795327308,1238.0,6.586660422190117,0.6109503085446293,8.916533088879412,-0.036199175788256426,0.018,0.999999999999025,17199.98022529046,1.058017143768908,213,2026-10-07 19:17:02.278244,40.4,0.01233816993194276,0.8756920932832597,0.8914659154548589
0465,cdot_cos,T,S-T,214,42,46483,-0.19156549266805378,0.18608384542473966,-0.1889983219599671,0.0004827483415494677,1238.0,6.602138951070127,0.6109508784964865,8.93744772522043,-0.03500178712344674,0.289,0.9999999999989988,2100.8593086344167,1.0629846142958428,214,2026-10-07 19:17:02.567244,40.4,0.9663691663841585,0.17942827226937674,0.05355892346024184
0465,cdot_cos,P,T-P,215,43,47237,0.029095239729141922,-0.0005122366005966448,0.2206607323971957,0.9998656185256926,1101.0,6.690369963561817,0.6121307066753845,8.975605093077395,-0.2008640284793479,0.754,0.9999999999989955,-140.58169174330942,1.06795274491781,215,2026-10-07 19:17:03.321243,40.4,0.43790912134238974,0.07683976072590866,0.11701725794653826
0465,cdot_cos,Q,P-Q,216,43,47388,-0.010904847968062308,-0.01278165241342575,-0.04000008769720423,0.16575676815818544,1101.0,6.718013310244797,0.6123261708871581,8.999327543462833,-0.06346887390556011,0.151,0.9999999999989654,702.91719045175,1.0729200220737694,216,2026-10-07 19:17:03.472243,40.4,0.11477698039893444,0.38332885115115795,0.18306852107934046
0465,cdot_cos,R,Q-R,217,43,47415,0.10855881826713697,0.17237421947516107,0.11946366623519927,0.9920478745048902,1101.0,6.806135276609466,0.6134952590841065,9.037357063900847,-0.20384709026504544,0.027,0.9999999999989604,-120.07495818186143,1.0778871222490354,217,2026-10-07 19:17:03.499244,40.4,0.5022563208117036,1.9371851914852616,3.2637765320247887
0465,cdot_cos,S,R-S,218,43,47433,-0.002334521843149929,-0.004832832862391668,-0.1108933401102869,0.011205398671562885,1101.0,6.822621310585001,0.6135084567503165,9.05835137632924,-0.03843063029805846,0.018,0.9999999999989309,12533.765995816319,1.0828542102161614,218,2026-10-07 19:17:03.517244,40.4,0.013510515958864251,0.8921439466705996,0.9158907764186017
0465,cdot_cos,T,S-T,219,43,47737,-0.2813829710970091,0.13803459899947193,-0.2790484492538592,1.270429980806754e-05,1101.0,6.838252458689608,0.6135084717132869,9.079103839119231,-0.036523672726316694,0.304,0.9999999999989021,127445.12075059034,1.0878217167134472,219,2026-10-07 19:17:03.821243,40.4,0.9491280573803439,0.1725339707544574,0.051418250344101156
0465,cdot_cos,P,T-P,220,44,48338,0.013981261132897443,0.0006127436846747338,0.29536423222990654,0.9999934281918742,1201.0,6.927521964803711,0.6146855857564997,9.117268359861756,-0.209950265232174,0.601,0.9999999999988978,-147.33202233533547,1.0927896653791926,220,2026-10-07 19:17:04.422244,40.4,0.43778097586809894,0.10345529495724022,0.148534951936944
0465,cdot_cos,Q,P-Q,221,44,48496,-0.011636563221105073,-0.012701603852965189,-0.025617824354002516,0.26212361523202593,1201.0,6.962605723228211,0.6149939159552742,9.14254995217497,-0.08323292900959678,0.158,0.9999999999988693,410.9793225776265,1.0977569593431933,221,2026-10-07 19:17:04.580243,40.4,0.2181783672787662,0.3931854543730854,0.22204910395252786
0465,cdot_cos,R,Q-R,222,44,48522,0.10815150434739024,0.15877358260214525,0.1197880675684953,0.9921506008974722,1201.0,7.051768568385606,0.6161601228899158,9.180587263229285,-0.21317960822947432,0.026,0.9999999999988638,-111.42677629490164,1.102724056113976,222,2026-10-07 19:17:04.606244,40.4,0.5435876572132974,2.035749818180939,3.429340198361369
0465,cdot_cos,S,R-S,223,44,48545,-0.0027254522915782986,-0.005175456647745695,-0.11087695663896853,0.01121273470333281,1201.0,7.068464713773619,0.6161732951091711,9.20143771354286,-0.040219871714763857,0.023,0.9999999999988326,13130.645122387134,1.1076911492493602,223,2026-10-07 19:17:04.629244,40.4,0.013563739626979971,0.7073148448629959,0.7259193646962273
0465,cdot_cos,T,S-T,224,44,48837,-0.22443629427035164,0.17183771950940915,-0.22171084197877333,0.00012880037605533855,1201.0,7.084305051249304,0.6161734464171023,9.222047906896277,-0.038246210411171676,0.292,0.999999999998802,13044.004290744233,1.112658654428393,224,2026-10-07 19:17:04.921243,40.4,0.9497047796318805,0.1817467842282449,0.0542477310811116
0465,cdot_cos,P,T-P,225,45,49539,0.021267834624307452,0.001377167855767545,0.2457041288946591,0.9999511372725162,1173.0,7.174604835762914,0.6173474566737369,9.260220229068137,-0.2194075914926996,0.702,0.9999999999987977,-154.30987937092897,1.1176267967873483,225,2026-10-07 19:17:05.623244,40.4,0.4379352557809042,0.0869896709739054,0.12863217167180974
0465,cdot_cos,Q,P-Q,226,45,49703,-0.011080875952082443,-0.0124425647849058,-0.0323487105763899,0.21300807580579348,1173.0,7.206438549296667,0.6175973662584986,9.284533111427837,-0.0779917070443221,0.164,0.9999999999987645,565.8681902226255,1.122594106457885,226,2026-10-07 19:17:05.787244,40.4,0.16312851704324402,0.3719751270807592,0.19410800935215092
0465,cdot_cos,R,Q-R,227,45,49721,0.10861509116313703,0.16386616694985356,0.11969596711521947,0.9921215705214755,1173.0,7.296612677445403,0.6187605417652647,9.322576519216145,-0.22253899214023526,0.018,0.9999999999987572,-124.26953994052265,1.1275611878426683,227,2026-10-07 19:17:05.805243,40.4,0.5222875968139514,2.973477930396065,5.009673786040904
0465,cdot_cos,S,R-S,228,45,49743,-0.0029854872768925946,-0.005848620589123784,-0.11160057844002963,0.010893202190841738,1173.0,7.3134837547909255,0.6187733055585879,9.343280966654593,-0.04194259555411208,0.022,0.9999999999987237,14149.116333502854,1.1325282765328066,228,2026-10-07 19:17:05.827244,40.4,0.013490099235921994,0.7477522864675371,0.7668671520691849
0465,cdot_cos,T,S-T,229,45,50035,-0.22562745523331137,0.1508225172992446,-0.22264196795641877,0.00012404581820538383,1173.0,7.329513778049975,0.6187734509047284,9.36375037739412,-0.039941419391914944,0.292,0.9999999999986902,13768.347449136014,1.1374957971959874,229,2026-10-07 19:17:06.119244,40.4,0.9511316618426907,0.18380793145707594,0.05489733992825194
0465,cdot_cos,P,T-P,230,46,50712,0.022972767103608425,-0.00010387594260563583,0.2486002223369198,0.9999565323011579,1120.0,7.420827586761858,0.6199444200235913,9.401931775128322,-0.22891946421778075,0.677,0.999999999998685,-161.38601930798242,1.1424639428021477,230,2026-10-07 19:17:06.796243,40.4,0.4380063109331472,0.0896328545393509,0.13488007195255947
0465,cdot_cos,Q,P-Q,231,46,50861,-0.013805183993191037,-0.014811341433770612,-0.03677795109679946,0.18454856346198828,1120.0,7.450876663096256,0.6201603780219674,9.425631342099223,-0.07593474884456038,0.149,0.9999999999986483,708.400321004813,1.147431234864902,231,2026-10-07 19:17:06.945244,40.4,0.1333622023604971,0.40733556291523393,0.20167165325099565
0465,cdot_cos,R,Q-R,232,46,50883,0.11399005701108565,0.16617686755106595,0.1277952410042767,0.9943076739919496,1120.0,7.5422135845105975,0.621323092462261,9.463721111602696,-0.2324171380689158,0.022,0.9999999999986414,-134.58368091209326,1.152398319867432,232,2026-10-07 19:17:06.967244,40.4,0.5100316537149693,2.4599276782490964,4.151678246106425
0465,cdot_cos,S,R-S,233,46,50904,-0.0031140729348778633,-0.005873334350515147,-0.11710412994596352,0.008740518287133488,1120.0,7.559113480939216,0.6213333072124438,9.484251028142717,-0.0433137145855869,0.021,0.9999999999986049,18512.780058146243,1.1573654041713384,233,2026-10-07 19:17:06.988243,40.4,0.012703194558230713,0.7882725662776014,0.8047569727913756
0465,cdot_cos,T,S-T,234,46,51195,-0.24856944278971313,0.1457234368140061,-0.24545536985483526,4.935624279913672e-05,1120.0,7.575321032294257,0.6213333648931217,9.504582565150848,-0.04163033099804924,0.291,0.9999999999985687,29184.531957757838,1.162332938927515,234,2026-10-07 19:17:07.279244,40.4,0.9603701758815382,0.18646228160872458,0.055696052766461765
0465,cdot_cos,P,T-P,235,47,51832,0.01976972429256951,-7.748686485869331e-05,0.2683391670822826,0.9999804184337531,1196.0,7.667634528835494,0.6225012959235104,9.54277407617647,-0.238525278161841,0.637,0.9999999999985624,-168.58439585962756,1.1673010595058824,235,2026-10-07 19:17:07.916243,40.4,0.4380300146954055,0.09776923051671024,0.1449191468465264
0465,cdot_cos,Q,P-Q,236,47,51982,-0.01317963501005623,-0.012443916445993533,-0.03294935930262574,0.20896852500257004,1196.0,7.699879031972546,0.6227451824898582,9.566803423606435,-0.08397477643305686,0.15,0.9999999999985253,633.6982968893868,1.1722683595952303,236,2026-10-07 19:17:08.066243,40.4,0.15874762950602372,0.4155272836301579,0.21496335424701013
0465,cdot_cos,R,Q-R,237,47,52003,0.11997766710874651,0.15024875347505437,0.13315730211880275,0.9954112805718304,1196.0,7.7922927139245415,0.6239060693306301,9.604922342690804,-0.2423306781201142,0.021,0.9999999999985173,-136.4094209059749,1.177235440398667,237,2026-10-07 19:17:08.087244,40.4,0.5202372595382605,2.6036435125451405,4.400651521523611
0465,cdot_cos,S,R-S,238,47,52023,-0.003569025334796476,-0.005613859047106657,-0.12354669244354298,0.006751029310272522,1196.0,7.8092320594994415,0.6239139378000084,9.62528592416842,-0.04473218713811383,0.02,0.9999999999984781,25112.697461521144,1.182202520443287,238,2026-10-07 19:17:08.107244,40.4,0.012065959177051873,0.8354338300122555,0.8469672787450033
0465,cdot_cos,T,S-T,239,47,52312,-0.1707692004748653,0.1410795345301391,-0.16720017514006882,0.0011638153587294336,1196.0,7.825710067125032,0.6239152942451489,9.645506860074715,-0.043607061586906526,0.289,0.9999999999984397,829.4663142488265,1.1871700681987822,239,2026-10-07 19:17:08.396243,40.4,0.9745285600967244,0.18990943274883584,0.05701732742418738
0465,cdot_cos,P,T-P,240,48,53028,0.03826669670208935,0.0018846475238308226,0.20903589717695464,0.9997850844042112,1041.0,7.918999711628269,0.6250798396588411,9.68370593152268,-0.24830568509928488,0.716,0.9999999999984337,-175.77556109502686,1.1921383682841837,240,2026-10-07 19:17:09.112243,40.4,0.43850610633041864,0.08351724759789042,0.13029279958552648
0465,cdot_cos,Q,P-Q,241,48,53180,-0.009360821127216807,-0.01244271206580519,-0.04762751782930615,0.12739931044630987,1041.0,7.945306765685211,0.625228130220414,9.706162003445401,-0.07054126128007975,0.152,0.9999999999983894,1198.7575064361436,1.197105677696215,241,2026-10-07 19:17:09.264243,40.4,0.08045909873387797,0.3920515840005511,0.1730727240588297
0465,cdot_cos,R,Q-R,242,48,53207,0.10166426287013727,0.19361441737377436,0.11102508399735408,0.9888534200834019,1041.0,8.038183393164436,0.626378337277533,9.74417151760913,-0.25060578620661056,0.027,0.9999999999983803,-156.54966104759598,1.2020727660221338,242,2026-10-07 19:17:09.291244,40.4,0.48747463099405197,2.0496008998308652,3.439875091823164
0465,cdot_cos,S,R-S,243,48,53227,-0.0008599243359433579,-0.002259756529495598,-0.10252418720608063,0.015642814304206987,1041.0,8.055985214276077,0.6263965211316339,9.764566783058312,-0.04836573009785168,0.02,0.9999999999983387,11121.95769865321,1.207039842762724,243,2026-10-07 19:17:09.311244,40.4,0.015275970004346006,0.8590195259547961,0.8900910555820651
0465,cdot_cos,T,S-T,244,48,53528,-0.4631764734990568,0.0552332180379735,-0.46231654916311343,7.734394829518268e-09,1041.0,8.072544174202628,0.6263965211406246,9.784637827483282,-0.04508505636600362,0.301,0.9999999999982966,364896481.7988193,1.2120074274147015,244,2026-10-07 19:17:09.612243,40.4,0.9298180826106909,0.1841082393765554,0.05501315590216127
0465,cdot_cos,P,T-P,245,49,54069,0.014898579466062038,0.0006082717897837892,0.4780750529651188,0.9999999959080006,1200.0,8.166818374380764,0.627558219328393,9.822851474534042,-0.2581181262175864,0.541,0.9999999999982889,-183.38073700607666,1.216975453303788,245,2026-10-07 19:17:10.153243,40.4,0.438089657520652,0.12220463957436323,0.17425915005200704
0465,cdot_cos,Q,P-Q,246,49,54222,-0.009295985271050475,-0.009740831028493855,-0.02419456473711251,0.2733959832894897,1200.0,8.204769594222089,0.6278755673465201,9.847855538744428,-0.1047183167429645,0.153,0.9999999999982502,483.3803922266228,1.221942771949218,246,2026-10-07 19:17:10.306243,40.4,0.2311056305944542,0.43179853238670585,0.24804718850539356
0465,cdot_cos,R,Q-R,247,49,54249,0.11339305073640053,0.15908124621012953,0.12268903600745101,0.993012615466231,1200.0,8.298948725291096,0.6290272911694461,9.885952042636362,-0.2616327875019577,0.027,0.9999999999982419,-136.24314061711286,1.2269098587299265,247,2026-10-07 19:17:10.333244,40.4,0.5489484229789229,2.068745636718994,3.4881159655187695
0465,cdot_cos,S,R-S,248,49,54272,-0.0013754571586731689,-0.002500350875999281,-0.1147685078950737,0.00959712986066311,1200.0,8.316481858604915,0.6290384150594102,9.906119032452924,-0.049036760248681616,0.023,0.9999999999981969,19111.662191945954,1.231876939052647,248,2026-10-07 19:17:10.356243,40.4,0.013096085038092883,0.7452900653713604,0.7623101440790824
0465,cdot_cos,T,S-T,249,49,54568,-0.3390228550218276,0.19402335851085462,-0.33764739786315445,1.1907156269702079e-06,1200.0,8.333232068298178,0.6290384164395425,9.926070948790695,-0.04694373857615034,0.296,0.9999999999981535,1516536.935788721,1.2368445332037235,249,2026-10-07 19:17:10.652243,40.4,0.956393588265798,0.1891979816188986,0.05658854626102596
0465,cdot_cos,P,T-P,250,50,55269,0.018501424594201572,0.0007693981005332513,0.3575242796160292,0.999999466593175,1036.0,8.428487063723303,0.6301967489459391,9.96429790945088,-0.2684092211984145,0.701,0.9999999999981465,-191.1933589010675,1.2418128996743816,250,2026-10-07 19:17:11.353244,40.4,0.43818948275931807,0.0928152332119645,0.13588444425837987
0465,cdot_cos,Q,P-Q,251,50,55420,-0.011532735407947109,-0.015064725952680408,-0.03003416000214868,0.22910353403477596,1036.0,8.463359025261353,0.63046191676586,9.988408281645395,-0.0989955991532034,0.151,0.999999999998101,638.892087643723,1.246780221035768,251,2026-10-07 19:17:11.504243,40.4,0.1806263436872117,0.4297177260003785,0.23094014263609236
0465,cdot_cos,R,Q-R,252,50,55447,0.10212676722096188,0.1918164031795278,0.11365950262890899,0.9899675160405184,1036.0,8.558261816975417,0.6316068130458997,10.026460474962928,-0.27113307800192177,0.027,0.999999999998091,-150.3520291311932,1.2517473049911962,252,2026-10-07 19:17:11.531244,40.4,0.5299980869063574,2.0934294102849917,3.514918211632013
0465,cdot_cos,S,R-S,253,50,55468,-0.0015897799538566538,-0.004278413392710364,-0.10371654717481854,0.014918115257502066,1036.0,8.576404213416742,0.6316240545302851,10.046608766124013,-0.05217527398978239,0.021,0.9999999999980438,12699.475237600449,1.2567143783074135,253,2026-10-07 19:17:11.552243,40.4,0.015046922758728714,0.8351295306185946,0.8639236400631048
0465,cdot_cos,T,S-T,254,50,55767,-0.299166683272177,0.08038710785749355,-0.2975769033183203,6.009837164271767e-06,1036.0,8.593337257261398,0.6316240614760354,10.066444223312283,-0.048797014674539146,0.299,0.9999999999979966,486377.88076477376,1.2616819955642757,254,2026-10-07 19:17:11.851244,40.4,0.9331112366934978,0.18921780595787735,0.05663225366105609
0465,cdot_cos,P,T-P,255,51,56305,0.024837831201561255,2.7511184837513423e-05,0.32400451447373824,0.9999979337691399,1098.0,8.689556461379553,0.6327790317849504,10.104684222764261,-0.27874171638847733,0.538,0.9999999999979887,-199.09143978770845,1.2666500881246539,255,2026-10-07 19:17:12.389244,40.4,0.4382620574645899,0.11855293687891374,0.17884610430883804
0465,cdot_cos,Q,P-Q,256,51,56454,-0.012664733047705535,-0.014504792694833369,-0.03750256424926679,0.18018367179592013,1098.0,8.72090021734311,0.6329869774552518,10.127805561747026,-0.091449596855734,0.149,0.9999999999979401,900.6781399262487,1.27161741304457,256,2026-10-07 19:17:12.538244,40.4,0.12898791264861786,0.42746310599300935,0.21036077827890148
0465,cdot_cos,R,Q-R,257,51,56478,0.10789830283964187,0.16703924447958232,0.1205630358873474,0.9923907071942737,1098.0,8.81694046696547,0.6341313830987372,10.16591345173747,-0.2818889082423038,0.024,0.999999999997931,-166.40892368074103,1.2765844893168028,257,2026-10-07 19:17:12.562243,40.4,0.5088597463869369,2.376310081434019,4.001677067598353
0465,cdot_cos,S,R-S,258,51,56498,-0.0032250880200165523,-0.006557165542857447,-0.11112339085965843,0.011102888532153138,1098.0,8.834963101251942,0.6341441781994069,10.185877781674103,-0.05324174954201695,0.02,0.9999999999978809,17869.89915918904,1.2815515585496087,258,2026-10-07 19:17:12.582243,40.4,0.013643272455717597,0.8786684166197212,0.9011317143236219
0465,cdot_cos,T,S-T,259,51,56785,-0.2100530947097257,0.10395473372925194,-0.20682800668970913,0.00023496207027257247,1098.0,8.852087203630258,0.6341444489704431,10.20560308844656,-0.05068805344771785,0.287,0.9999999999978313,9431.201101217059,1.2865191699416725,259,2026-10-07 19:17:12.869244,40.4,0.9508674264151169,0.19910211773158773,0.059665861945353345
0465,cdot_cos,P,T-P,260,52,57403,0.02580607540156203,0.00032948324384441606,0.2358591701112877,0.9999272719345491,1038.0,8.949247716829873,0.6352959985487575,10.243854454580966,-0.28907011297836194,0.618,0.9999999999978241,-207.00981010263968,1.2914874625364963,260,2026-10-07 19:17:13.487243,40.4,0.4383878087955852,0.10532561818320443,0.15721765889905331
0465,cdot_cos,Q,P-Q,261,52,57551,-0.008941375272389345,-0.011387398956563696,-0.03474745067395138,0.19721427500554176,1038.0,8.9822696677047,0.6355229348333099,10.267202134184172,-0.0989385452385882,0.148,0.9999999999977723,837.8191619501828,1.296454792293671,261,2026-10-07 19:17:13.635243,40.4,0.14635592229190683,0.43924401620457004,0.2231212896947685
0465,cdot_cos,R,Q-R,262,52,57579,0.11221768547427868,0.19921856033413035,0.12115906074666803,0.9925704009852888,1038.0,9.079263945626426,0.6366641783613871,10.305325023512955,-0.29232335995265984,0.028,0.9999999999977628,-169.45096288071903,1.3014218745069588,262,2026-10-07 19:17:13.663244,40.4,0.5160538437330714,2.055615463038071,3.4640813543473925
0465,cdot_cos,S,R-S,263,52,57597,-0.0013858010729170481,-0.0033320357967878676,-0.11360348654719574,0.010054985131859935,1038.0,9.097384133634831,0.6366757315971421,10.325160279571623,-0.054958354874843726,0.018,0.9999999999977099,20545.32687742782,1.3063889368084325,263,2026-10-07 19:17:13.681243,40.4,0.013313221479122459,0.9833071261818501,1.0066771115780546
0465,cdot_cos,T,S-T,264,52,57883,-0.3673312949907115,0.11373696991678597,-0.36594549391779446,3.7958080652403787e-07,1038.0,9.114663002168973,0.6366757320332797,10.344771208046344,-0.05250870562799088,0.286,0.9999999999976574,5616689.348792253,1.3113565635206934,264,2026-10-07 19:17:13.967244,40.4,0.9544192394562413,0.20172290428716008,0.06041562424525043
0465,cdot_cos,P,T-P,265,53,58441,0.030250292130710926,0.0006159190108600992,0.39758158712142244,0.9999998942614422,922.0,9.212769634887087,0.6378239479499368,10.38303690144167,-0.2996157886987191,0.558,0.9999999999976499,-215.20959558733713,1.3163247713421693,265,2026-10-07 19:17:14.525243,40.4,0.4383460844922375,0.11579657019593402,0.17581833820450524
0465,cdot_cos,Q,P-Q,266,53,58591,-0.00903755010769466,-0.014906054139569927,-0.03928784223840559,0.16977413892367116,922.0,9.243891974507635,0.6380187296373067,10.405786444233867,-0.09569499742780874,0.15,0.9999999999975955,1046.9197285661467,1.3212921127247723,266,2026-10-07 19:17:14.675244,40.4,0.11872502707383355,0.4273703516157864,0.20748226413698964
0465,cdot_cos,R,Q-R,267,53,58617,0.09040619297551467,0.22986860729552308,0.09944374308320933,0.9823207668753174,922.0,9.340980740371823,0.6391448534828742,10.443728949078658,-0.30019599456816215,0.026,0.9999999999975848,-181.5972532197734,1.326259188880667,267,2026-10-07 19:17:14.701244,40.4,0.505996798978512,2.240786844727684,3.734183302468749
0465,cdot_cos,S,R-S,268,53,58636,-0.0012524002597914894,-0.005118298212482608,-0.09165859323530616,0.024056319183713898,922.0,9.360412890433475,0.6391724123074681,10.463719342853981,-0.06045845928229447,0.019,0.9999999999975304,8699.120474777284,1.3312262509056727,268,2026-10-07 19:17:14.720243,40.4,0.0189618431340369,0.9705052480285117,1.0227447400869532
0465,cdot_cos,T,S-T,269,53,58924,-0.38498383055626423,-0.007005574954255599,-0.3837314302964727,1.8502961029867308e-07,922.0,9.377859939796906,0.6391724125194338,10.48322299652791,-0.0543893473840638,0.288,0.9999999999974751,28632523.26303558,1.33619389977237,269,2026-10-07 19:17:15.008243,40.4,0.8944141036918192,0.20222482703740238,0.06058003251191436
0465,cdot_cos,P,T-P,270,54,59363,0.0146350979855954,0.0006681642075700211,0.39961892854185965,0.9999999026160876,1059.0,9.476894390807018,0.6403171956930326,10.52150142629152,-0.3102173818961091,0.439,0.9999999999974668,-223.47291645440106,1.341161884533844,270,2026-10-07 19:17:15.447244,40.4,0.43837812721591357,0.1546648091906139,0.22559100457884382
0465,cdot_cos,Q,P-Q,271,54,59528,-0.01456337608099759,-0.020164319026575925,-0.02919847406659299,0.23512082444872776,1059.0,9.513655642266265,0.6405861269354562,10.545395293850131,-0.11594297974928176,0.165,0.9999999999974162,722.3943205556404,1.34612926783654,271,2026-10-07 19:17:15.612243,40.4,0.18719527081346138,0.4097931779517608,0.2227954633893732
0465,cdot_cos,R,Q-R,272,54,59547,0.09451373309947478,0.18744749788334628,0.10907710918047236,0.9879517591837348,1059.0,9.6121261395311,0.6417151797366435,10.583454754691555,-0.31234901509636676,0.019,0.9999999999974072,-173.95646611084595,1.3510963272676093,272,2026-10-07 19:17:15.631244,40.4,0.533229630894235,3.095886706915822,5.182657750780762
0465,cdot_cos,S,R-S,273,54,59570,-0.0037541666009605888,-0.010640231403650571,-0.09826789970043537,0.018523404123173066,1059.0,9.631299337129066,0.6417363337315031,10.603241268227247,-0.061190052389277334,0.023,0.9999999999973505,11872.88568302512,1.3560633967946174,273,2026-10-07 19:17:15.654243,40.4,0.016497081584129446,0.800262084746474,0.8336172868681201
0465,cdot_cos,T,S-T,274,54,59861,-0.21621774976092267,0.06274605681237362,-0.21246358315996208,0.00018712833267327925,1059.0,9.648938195429437,0.641736547431945,10.622646876615361,-0.05640098317276713,0.291,0.9999999999972937,22410.198004175134,1.3610310720811387,274,2026-10-07 19:17:15.945244,40.4,0.9185939487532891,0.20205331768052456,0.06061463333460839
0465,cdot_cos,P,T-P,275,55,60422,0.01456988654258719,0.0006639400503355767,0.23078763630350987,0.9999107357757694,995.0,9.748894368019132,0.6428776391007633,10.660936750448617,-0.3211088463544098,0.561,0.9999999999972861,-231.97773712234172,1.3659993662525518,275,2026-10-07 19:17:16.506243,40.4,0.43851749920044136,0.1228129024027527,0.1781749957035548
0465,cdot_cos,Q,P-Q,276,55,60587,-0.013433356921101234,-0.020696976040021693,-0.028003243463688425,0.2439155465937322,995.0,9.786734271925326,0.6431557488129593,10.684923608327889,-0.12238170800776571,0.165,0.9999999999972328,714.563820074694,1.37096675850034,276,2026-10-07 19:17:16.671244,40.4,0.19714211706333842,0.4147319154836325,0.22933275094663208
0465,cdot_cos,R,Q-R,277,55,60605,0.08778169669297554,0.20551919662995422,0.10121505361407677,0.9835215837676996,995.0,9.88575590012873,0.6442761686933337,10.72291047321807,-0.32204642810552175,0.018,0.9999999999972224,-178.20526357586735,1.3759338129428995,277,2026-10-07 19:17:16.689243,40.4,0.537951228336686,3.3040310826227706,5.501201566855802
0465,cdot_cos,S,R-S,278,55,60628,-0.0025963252634718698,-0.009518823080002632,-0.09037802195644741,0.02530131313811646,995.0,9.905679390899746,0.6443049709654923,10.742728657342122,-0.06518632278391563,0.023,0.9999999999971632,8918.050072820457,1.3809008801459877,278,2026-10-07 19:17:16.712243,40.4,0.01944046116456532,0.8201050423240993,0.8662387291745781
0465,cdot_cos,T,S-T,279,55,60922,-0.27265034311383834,0.029281544753227428,-0.2700540178503665,1.8270906129450444e-05,995.0,9.923480732075639,0.644304991764178,10.762033080095673,-0.058354029866442614,0.294,0.9999999999971032,328496.3784875183,1.3858685816369325,279,2026-10-07 19:17:17.006243,40.4,0.8895109332538491,0.201848028858132,0.06054877950984106
0465,cdot_cos,P,T-P,280,56,61417,0.03291032090663742,0.00038339158631266965,0.30556066402047577,0.9999956470430248,980.0,10.024366031868327,0.6454425190849362,10.800337388713196,-0.33220960342618855,0.495,0.9999999999970959,-240.74637027373203,1.3908367611911236,280,2026-10-07 19:17:17.501244,40.4,0.4385218030176086,0.13329824511426513,0.20380868644987543
0465,cdot_cos,Q,P-Q,281,56,61569,-0.008422640367974982,-0.012478882988359963,-0.041332961274612404,0.1584439606873282,980.0,10.055445994738761,0.6456226037440872,10.822625855724864,-0.10299808559899551,0.152,0.999999999997035,1272.7986876162774,1.395804131865605,281,2026-10-07 19:17:17.653243,40.4,0.10802464276355088,0.43133863689574126,0.20447343993706665
0465,cdot_cos,R,Q-R,282,56,61595,0.09533241984716598,0.21040317594118454,0.10375506021514096,0.9851047327173342,980.0,10.155492977484633,0.6467413290603987,10.860652793055904,-0.3332406365212809,0.026,0.9999999999970255,-205.80793834308133,1.4007712032822706,282,2026-10-07 19:17:17.679244,40.4,0.5011149360410542,2.302414317414437,3.8479608748412004
0465,cdot_cos,S,R-S,283,56,61614,-0.0007404931161544768,-0.002408320689839556,-0.09607291296332046,0.020206337984716997,980.0,10.175171539244312,0.6467642594374728,10.880277943799003,-0.06593257978300882,0.019,0.9999999999969634,11657.377280545988,1.4057382589366505,283,2026-10-07 19:17:17.698244,40.4,0.01734825113520771,0.9905250391108192,1.0357137768252382
0465,cdot_cos,T,S-T,284,56,61901,-0.3409029910195059,0.05171047019941397,-0.3401624979033514,1.075670907593776e-06,980.0,10.193132928970844,0.6467642606581382,10.899484077058064,-0.060290655952047176,0.287,0.9999999999969015,4622007.044576727,1.4107059628062355,284,2026-10-07 19:17:17.985244,40.4,0.9106663055176812,0.20861958417869042,0.06258323946526693
0465,cdot_cos,P,T-P,285,57,62397,0.024316332861852464,0.0004723452877395572,0.36521932388135836,0.9999996091183763,1080.0,10.29491918056288,0.6478982256289139,10.937800270179746,-0.34316959856807094,0.496,0.9999999999968937,-249.4600361618977,1.4156741799395538,285,2026-10-07 19:17:18.481244,40.4,0.43853644280697385,0.13785811745777257,0.20521421691942882
0465,cdot_cos,Q,P-Q,286,57,62564,-0.009776504278916418,-0.01327432371890351,-0.034092837140768883,0.20143483878459142,1080.0,10.329888181488954,0.6481264446433975,10.960832717767342,-0.11864890020031252,0.167,0.9999999999968336,983.7948817530615,1.4206415958406005,286,2026-10-07 19:17:18.648243,40.4,0.15072298415208674,0.4076618407284718,0.20939521512618975
0465,cdot_cos,R,Q-R,287,57,62583,0.09957386507356566,0.19177910603281345,0.10935036935248209,0.9880824603595832,1080.0,10.43107823536619,0.6492449282128692,10.998926734997804,-0.34509757303592437,0.019,0.9999999999968238,-202.46043752129847,1.4256086481810273,287,2026-10-07 19:17:18.667244,40.4,0.5188256526860433,3.1764090733212145,5.325792309328206
0465,cdot_cos,S,R-S,288,57,62605,-0.002230914565970839,-0.0059998641310612996,-0.1018047796395365,0.016096703807214417,1080.0,10.45059172627516,0.6492631357343079,11.018380913500474,-0.06693401148656442,0.022,0.999999999996759,15277.39854569134,1.4305757091082059,288,2026-10-07 19:17:18.689243,40.4,0.0156734356366977,0.8555167922473492,0.886976859498648
0465,cdot_cos,T,S-T,289,57,62897,-0.2691290457557018,0.10728928545778912,-0.26689813118973094,2.075537610066655e-05,1080.0,10.468720974225073,0.6492631592111292,11.037493830835876,-0.062297969275922876,0.292,0.9999999999966938,197473.1654831169,1.4355434447756736,289,2026-10-07 19:17:18.981244,40.4,0.9282843064240008,0.20687311441679807,0.06208646558189421
0465,cdot_cos,P,T-P,290,58,63477,0.026454247529860978,0.0021452761742151113,0.29558329328556276,0.9999934860958304,916.0,10.57140562509457,0.6503934315271431,11.075821504630936,-0.3543672543377693,0.58,0.9999999999966863,-258.40612118314334,1.4405119094895937,290,2026-10-07 19:17:19.561243,40.4,0.43858597564392293,0.11799437417122217,0.1770425014991327
0465,cdot_cos,Q,P-Q,291,58,63629,-0.009674332551711169,-0.017457346303830452,-0.036128580081572145,0.1885293325181015,916.0,10.605594448263691,0.6506063336554578,11.098533891559013,-0.1187206082583088,0.152,0.9999999999966213,1106.830861414091,1.4454792961882086,291,2026-10-07 19:17:19.713243,40.4,0.1373965392985308,0.44367768128566143,0.2249264682178997
0465,cdot_cos,R,Q-R,292,58,63657,0.0779083413956386,0.2325899155333745,0.08758267394734977,0.9717591926223044,916.0,10.706283640205411,0.6517027665740591,11.136323150047941,-0.3513565997719467,0.028,0.99999999999661,-212.17530736892718,1.4504463686032598,292,2026-10-07 19:17:19.741244,40.4,0.5157629947296944,2.18462142444596,3.5960425693471545
0465,cdot_cos,S,R-S,293,58,63680,-0.0012785019690761154,-0.007373176138055765,-0.07918684336471471,0.03919777988187473,916.0,10.727933248032665,0.6517469597043946,11.156132328878156,-0.07597592855244645,0.023,0.9999999999965428,6231.300410930504,1.4554134293258412,293,2026-10-07 19:17:19.764243,40.4,0.0266603484152866,0.8682805659422221,0.9412872968371064
0465,cdot_cos,T,S-T,294,58,63975,-0.3925875713190377,-0.04405066694445086,-0.39130906934996157,1.3623472252140386e-07,916.0,10.746224546238754,0.6517469598579865,11.175153844562955,-0.06431009392736935,0.295,0.9999999999964742,75953441.1431028,1.4603811918490213,294,2026-10-07 19:17:20.059244,40.4,0.8341018641793189,0.20655375127986383,0.062004400698606
0465,cdot_cos,P,T-P,295,59,64393,0.02059015652603866,0.00027976021364291563,0.4131777278450764,0.9999999436892434,1139.0,10.849799961287784,0.6528735146591513,11.213492615511598,-0.36567159598025856,0.418,0.9999999999964655,-267.5071836197238,1.46534927831339,295,2026-10-07 19:17:20.477243,40.4,0.43861573951305005,0.1670188953177332,0.24778807427997823
0465,cdot_cos,Q,P-Q,296,59,64547,-0.01267922403333927,-0.014620699032945118,-0.03326938055937793,0.20683941671219744,1139.0,10.885852342724379,0.6531063175649371,11.236488280424133,-0.12806518475337528,0.154,0.9999999999964015,1020.633356894384,1.4703166794604845,296,2026-10-07 19:17:20.631244,40.4,0.1563973746502763,0.4521880482287556,0.2341063729648965
0465,cdot_cos,R,Q-R,297,59,64573,0.10422992170513173,0.1635003140294837,0.116909145738471,0.9911909665027124,1139.0,10.989073880142241,0.6542209098181603,11.274661486877076,-0.36845459409321807,0.026,0.9999999999963924,-215.67475338598675,1.4752837456406416,297,2026-10-07 19:17:20.657243,40.4,0.5207807547391301,2.361899408754198,3.9700591314562566
0465,cdot_cos,S,R-S,298,59,64595,-0.00298384912886212,-0.006416673260056961,-0.10721377083399386,0.012978004753116756,1139.0,11.008671111979597,0.6542354923621002,11.293878145155565,-0.07034478479887797,0.022,0.9999999999963214,20442.92206642871,1.4802508023569143,298,2026-10-07 19:17:20.679244,40.4,0.014438773281186304,0.8663561865130247,0.8907832653343465
0465,cdot_cos,T,S-T,299,59,64892,-0.1800336268262862,0.10568073705759368,-0.17704977769742408,0.0007820488324595914,1139.0,11.027193552348814,0.654236371090492,11.312826887394243,-0.06660193302792898,0.297,0.9999999999962508,4259.395514875152,1.4852185912667144,299,2026-10-07 19:17:20.976243,40.4,0.9453525574068826,0.2070082681294458,0.06236511908827429
0465,cdot_cos,P,T-P,300,60,65532,0.02787745403226327,0.00020425607296790097,0.20791108085854948,0.9997750950291944,960.0,11.131634023248488,0.6553588790569099,11.351171618925122,-0.37705592936903043,0.64,0.9999999999962432,-276.57175327834267,1.490187304081069,300,2026-10-07 19:17:21.616243,40.4,0.4389528598617443,0.10801784583177598,0.1631882357807396
0465,cdot_cos,Q,P-Q,301,60,65682,-0.010107503260325126,-0.01486576417686175,-0.0379849572925884,0.1773227744902538,960.0,11.165456395013488,0.6555577896363114,11.373526364250516,-0.12283546541872685,0.15,0.9999999999961706,1278.064066352157,1.495154701773713,301,2026-10-07 19:17:21.766243,40.4,0.12623607628024897,0.4591125402025753,0.22548247843333277
0465,cdot_cos,R,Q-R,302,60,65707,0.10147705579594217,0.22025220160698022,0.1115845590562673,0.9890998225009668,960.0,11.26936778530926,0.6566663040650347,11.411667643849789,-0.3791323522522918,0.025,0.9999999999961594,-231.20753342719345,1.5001217620821916,302,2026-10-07 19:17:21.791244,40.4,0.5086429348094335,2.477614010552216,4.156455611830907
0465,cdot_cos,S,R-S,303,60,65725,-0.0015257487544500245,-0.004882801358854112,-0.1030028045503922,0.015347845899738737,960.0,11.289337095541098,0.6566834914552762,11.430844657482812,-0.0732609423258094,0.018,0.9999999999960838,17796.268405443876,1.5050888043841837,303,2026-10-07 19:17:21.809243,40.4,0.015373727738990293,1.0717504170217516,1.109406123991007
0465,cdot_cos,T,S-T,304,60,66032,-0.4163413975460716,-0.036522810247821905,-0.4148156487916215,5.2705171046585104e-08,960.0,11.307950800322043,0.6566834915142977,11.449691850355439,-0.06840446794794816,0.307,0.9999999999960085,82283049.32092439,1.5100566399033248,304,2026-10-07 19:17:22.116243,40.4,0.931465198967272,0.20186685139471647,0.060630960198517686
0465,cdot_cos,P,T-P,305,61,66492,0.024804208641562166,0.0013071731437207718,0.44114560618763377,0.9999999818079747,878.0,11.413283342297454,0.6578024617994047,11.488050465653327,-0.38860707312666926,0.46,0.9999999999959993,-286.15827376336887,1.5150249028219482,305,2026-10-07 19:17:22.576244,40.4,0.43868430965382,0.153225743104011,0.22898378690306734
0465,cdot_cos,Q,P-Q,306,61,66646,-0.010302139386753163,-0.02088887940285446,-0.03510634802831533,0.19492878378666076,878.0,11.448918483977733,0.6580203774881369,11.510680534257807,-0.1322452992765026,0.154,0.9999999999959276,1176.4264213450879,1.5199923203424865,306,2026-10-07 19:17:22.730243,40.4,0.14391503015120471,0.4463921403675037,0.23139702389791655
0465,cdot_cos,R,Q-R,307,61,66673,0.06562289645735704,0.24058241738567326,0.0759250358441102,0.955526604403349,878.0,11.550772121530645,0.6590876184249777,11.548173195571291,-0.3796892364723495,0.027,0.9999999999959139,-231.85386603359996,1.524959384543782,307,2026-10-07 19:17:22.757244,40.4,0.5211584190240943,2.336880207912977,3.7723569464041478
0465,cdot_cos,S,R-S,308,61,66698,-0.0009622870158707693,-0.009413535822940008,-0.06658518347322781,0.06356355329563304,878.0,11.575110015205034,0.659158556404109,11.568210920167754,-0.09121535007769682,0.025,0.9999999999958393,4066.5647644174705,1.5299264443156932,308,2026-10-07 19:17:22.782243,40.4,0.042317330928177375,0.8622662720686236,0.9735157469755507
0465,cdot_cos,T,S-T,309,61,66990,-0.35043224000500306,-0.07684726968732425,-0.3494699529891323,7.38542757190751e-07,878.0,11.593885435134077,0.6591585572282935,11.586975238932466,-0.07049912003637221,0.292,0.9999999999957614,25135427.905844796,1.534894259418373,309,2026-10-07 19:17:23.074244,40.4,0.7453876186612549,0.21400328679675598,0.06429938331863841
0465,cdot_cos,P,T-P,310,62,67370,0.03251379501307767,0.000791032191038704,0.3829460350180807,0.999999809005271,1176.0,11.70008793469434,0.6602736336877982,11.625342552769121,-0.4002905353329812,0.38,0.9999999999957523,-295.7567729867564,1.5398623296357958,310,2026-10-07 19:17:23.454243,40.4,0.43872603686427125,0.18046054916218807,0.27948026200069226
0465,cdot_cos,Q,P-Q,311,62,67523,-0.01283075334538277,-0.013828937716892805,-0.04534454835846044,0.13800973467490343,1176.0,11.73103545249734,0.6604273860279269,11.646790000320756,-0.11730616761053034,0.153,0.9999999999956761,1840.5207197858417,1.5448297540534672,311,2026-10-07 19:17:23.607244,40.4,0.08960383916918796,0.44721303292428066,0.20227135818954162
0465,cdot_cos,R,Q-R,312,62,67550,0.10715092055269701,0.1557129651991487,0.11998167389807977,0.9922112806967933,1176.0,11.83693512276917,0.6615317807059131,11.685007345277693,-0.40311520423645236,0.027,0.9999999999956665,-258.79247910455763,1.5497968174301455,312,2026-10-07 19:17:23.634243,40.4,0.4921356519424946,2.3304235697250237,3.922210010067778
0465,cdot_cos,S,R-S,313,62,67572,-0.003630836697957806,-0.006987020321294905,-0.11078175725065481,0.011255456213642458,1176.0,11.85687832526249,0.6615442986879749,11.703939764318292,-0.07631943133563651,0.022,0.999999999995586,26106.106502404797,1.5547638674767634,313,2026-10-07 19:17:23.656243,40.4,0.013815734317380198,0.8873880577322928,0.9065092042418758
0465,cdot_cos,T,S-T,314,62,67850,-0.15734513242401119,0.11304674010418389,-0.15371429572605338,0.0020050933642687804,1176.0,11.87598019730939,0.6615465286691701,11.722660712979904,-0.07322002693147657,0.278,0.9999999999955062,1389.8791662042981,1.5597316628197322,314,2026-10-07 19:17:23.934243,40.4,0.9585533970549455,0.2267612690503577,0.06871176995287631
0465,cdot_cos,P,T-P,315,63,68546,0.016605392628134763,-0.0006551194538355993,0.17395052505214595,0.9991137290806005,1021.0,11.98295759085449,0.6626568070881186,11.761018366474016,-0.41157358165278685,0.696,0.9999999999954987,-304.74658333154775,1.5647006872661653,315,2026-10-07 19:17:24.630244,40.4,0.4395088790206397,0.10477656194285424,0.15370315164525758
0465,cdot_cos,Q,P-Q,316,63,68697,-0.014016971464123208,-0.017289039583499366,-0.03062236409225797,0.224933590626853,1021.0,12.021829171533843,0.6629065208641404,11.784111959146054,-0.15041000698827992,0.151,0.9999999999954196,1045.8516899833385,1.5696681127843106,316,2026-10-07 19:17:24.781244,40.4,0.17616320564596305,0.4824652621533377,0.2574276866182372
0465,cdot_cos,R,Q-R,317,63,68716,0.1089070225459188,0.1918700517709395,0.122923994010042,0.9930781711104621,1021.0,12.128662100024798,0.6640079153132669,11.8223528775648,-0.4152189073569179,0.019,0.9999999999954073,-240.43057469433967,1.574635148773987,317,2026-10-07 19:17:24.800243,40.4,0.5284762956840887,3.339188640294734,5.622785710050219
0465,cdot_cos,S,R-S,318,63,68737,-0.0033162960735041457,-0.008079858007018534,-0.11222331861942295,0.01062543777100054,1021.0,12.148718339865043,0.6640196900691022,11.841195357527774,-0.07835931278775235,0.021,0.9999999999953221,28608.626733269648,1.579602191919599,318,2026-10-07 19:17:24.821243,40.4,0.013583363525043428,0.9319739148602867,0.9550590400117017
0465,cdot_cos,T,S-T,319,63,69026,-0.33630747459622645,0.09054649246858001,-0.3329911785227223,1.4371550626677747e-06,1021.0,12.16780500444893,0.6640196916616956,11.859798952845612,-0.07469144295621105,0.289,0.9999999999952367,2303079.903147226,1.584570038406773,319,2026-10-07 19:17:25.110244,40.4,0.9520792881949345,0.21972374266019998,0.06604382208957199
0465,cdot_cos,P,T-P,320,64,69567,0.02025157236660623,-0.00034542368484696763,0.3565590469628327,0.9999994453818911,1157.0,12.275718663122639,0.6651269437426905,11.898180940366688,-0.42380753598212206,0.541,0.9999999999952267,-315.2995591683225,1.5895386496464536,320,2026-10-07 19:17:25.651244,40.4,0.43877832969412306,0.13338164665631053,0.1994707184356918
0465,cdot_cos,Q,P-Q,321,64,69715,-0.01505359975590346,-0.015024416926690078,-0.03530517212250969,0.1936713202751992,1157.0,12.312123946131058,0.6653411773391672,11.920596519733033,-0.14377241223155962,0.148,0.9999999999951437,1307.1484975097226,1.5945060745309079,321,2026-10-07 19:17:25.799244,40.4,0.1425921605687869,0.48731019371325623,0.24598164194877514
0465,cdot_cos,R,Q-R,322,64,69740,0.11532881589075501,0.15551135022911847,0.13038241564665848,0.9948697099799075,1157.0,12.419962480461763,0.6664405978669551,11.958878511975541,-0.4276741750534848,0.025,0.9999999999951318,-258.2285446253728,1.5994731260451323,322,2026-10-07 19:17:25.824243,40.4,0.5148770062494229,2.5566206235737354,4.313541373228205
0465,cdot_cos,S,R-S,323,64,69758,-0.0037128455105941505,-0.006367640393911585,-0.11904166140134917,0.008087757652079919,1157.0,12.439954977309744,0.6664495281740166,11.977594254866437,-0.07969664648769119,0.018,0.9999999999950423,38965.908581774216,1.6044401572226203,323,2026-10-07 19:17:25.842243,40.4,0.012698445808037424,1.0916028236636561,1.1106942693323143
0465,cdot_cos,T,S-T,324,64,70045,-0.18316765441388957,0.1331754471187527,-0.17945480890329543,0.0007096886393216924,1157.0,12.459260182113654,0.6664503117894071,11.996135140670757,-0.0770784416490567,0.287,0.9999999999949528,3341.1860850267535,1.6094080178504029,324,2026-10-07 19:17:26.129244,40.4,0.966602381086317,0.22306657712549663,0.06726552196484306
0465,cdot_cos,P,T-P,325,65,70724,0.018596993247223467,-0.0009437346723682674,0.20176464766111304,0.9997117205069844,998.0,12.56799519257978,0.6675532468082144,12.034517263879358,-0.435646550271176,0.679,0.9999999999949429,-325.1035668537074,1.614377099293908,325,2026-10-07 19:17:26.808243,40.4,0.43908109626426084,0.10875267973345308,0.16013992704878513
0465,cdot_cos,Q,P-Q,326,65,70873,-0.012900764571057393,-0.01632944885943893,-0.03149775781828086,0.21882798411910265,998.0,12.606946321191684,0.6677944251320201,12.057373419989375,-0.15692140687343403,0.149,0.999999999994855,1155.680738631435,1.6193445342773973,326,2026-10-07 19:17:26.957243,40.4,0.1692787452608372,0.4949664391887202,0.2614169705496926
0465,cdot_cos,R,Q-R,327,65,70894,0.11114008212937267,0.20309762956563465,0.12404084670043006,0.9933815275168875,998.0,12.715495191458018,0.6688881598988208,12.095630455860057,-0.43913970220765464,0.021,0.9999999999948401,-258.03174947044806,1.624311569506996,327,2026-10-07 19:17:26.978244,40.4,0.525890762719147,3.0683465343439256,5.1689938222064
0465,cdot_cos,S,R-S,328,65,70914,-0.0027527862352498766,-0.007091906169486731,-0.11389286836462255,0.00993927812256328,998.0,12.735816875634129,0.6688990940727023,12.114309155322639,-0.08262954156329724,0.02,0.9999999999947462,32605.12998117802,1.6292786027810842,328,2026-10-07 19:17:26.998244,40.4,0.013372424650370807,0.9930257326159264,1.0160842088055233
0465,cdot_cos,T,S-T,329,65,71204,-0.3780640388558657,0.025439408007904604,-0.3753112526206158,2.60002428425782e-07,998.0,12.755216220762655,0.6688990943587279,12.13276198400489,-0.07900235295866034,0.29,0.9999999999946508,12681345.336835464,1.6342464922070037,329,2026-10-07 19:17:27.288243,40.4,0.9551256157476375,0.22242092581569825,0.06689429354664342
0465,cdot_cos,P,T-P,330,66,71722,0.026450688719814073,0.00041587984746908457,0.4045147275756798,0.9999999200924163,1059.0,12.864821012607234,0.6699982580848539,12.171154548203091,-0.44786052527778314,0.518,0.9999999999946384,-335.58073611029874,1.6392151137550268,330,2026-10-07 19:17:27.806243,40.4,0.4388487123284952,0.14012297020576228,0.2115922622482208
0465,cdot_cos,Q,P-Q,331,66,71878,-0.011428077884520025,-0.015240027975228082,-0.0378787666043341,0.1779494788917176,1059.0,12.900383617895825,0.67019365957888,12.193137644285914,-0.14609336087284253,0.156,0.999999999994546,1544.3442022232512,1.6441825798033685,331,2026-10-07 19:17:27.962244,40.4,0.1267450695619994,0.4628066087175359,0.22796541851661117
0465,cdot_cos,R,Q-R,332,66,71904,0.09640820583115518,0.1834583173567874,0.1078362837156752,0.9873402352488804,1059.0,13.009216674527105,0.6712767618654417,12.231277602439937,-0.4488457346103315,0.026,0.9999999999945304,-279.5233446497174,1.6491496285862945,332,2026-10-07 19:17:27.988243,40.4,0.5094043371801417,2.501062323751443,4.185886793510764
0465,cdot_cos,S,R-S,333,66,71925,-0.0023763970633486316,-0.006556219211888686,-0.09878460289450382,0.018147683996523084,1059.0,13.0304388587309,0.6712966527023754,12.250047275784123,-0.08796063824606049,0.021,0.9999999999944325,18143.283642009177,1.6541166623603036,333,2026-10-07 19:17:28.009243,40.4,0.01652630116066608,0.9708201769358804,1.0105802001807227
0465,cdot_cos,T,S-T,334,66,72222,-0.2682248764337053,0.09792367155841643,-0.26584847937035666,2.1654436155850873e-05,1059.0,13.049991121958412,0.6712966764364344,12.26842732845839,-0.081166144726353,0.297,0.9999999999943342,286276.08556062443,1.6590845952095536,334,2026-10-07 19:17:28.306243,40.4,0.9196970738249763,0.2188362489146837,0.06583253611956835
0465,cdot_cos,P,T-P,335,67,72781,0.024123957897636356,3.88643911479373e-05,0.2923488343313416,0.9999925768000245,1037.0,13.160427590586222,0.6723917710662418,12.306823465065234,-0.4599463574139303,0.559,0.9999999999943214,-345.88811083312345,1.6640533915630766,335,2026-10-07 19:17:28.865243,40.4,0.4388791096369708,0.13165851845278667,0.19756076677604706
0465,cdot_cos,Q,P-Q,336,67,72930,-0.012075841731415933,-0.015500089595463082,-0.03619979962905229,0.1880895449004814,1037.0,13.197185345588627,0.672597539337329,12.32895095868789,-0.15389914790376164,0.149,0.9999999999942251,1487.339169897908,1.6690208431052713,336,2026-10-07 19:17:29.014244,40.4,0.13688394096890896,0.49252089534412846,0.24669634229802143
0465,cdot_cos,R,Q-R,337,67,72958,0.10505666189393609,0.18945432643252882,0.11713250362535202,0.9912694077756979,1037.0,13.307198817398772,0.6736808815208535,12.367171637559121,-0.46238507736708356,0.028,0.9999999999942094,-284.7539163108354,1.6739878958602412,337,2026-10-07 19:17:29.042243,40.4,0.5131626735368963,2.3377824513241787,3.929052564648039
