record_id,input,event,transition,event_index,k,peak,value_cos,value_sin,value_return,x_input,rr,knowledge,decision,decision_norm,entropy,delta_t,cosine_similarity,delta_h_over_delta_d,frobenius_norm,matrix_size,timestamp,scale,P,zdot,zdot_back
0164,cdot_cos,Q,P-Q,1,0,1319,-0.02461170818116137,-0.04712193823661756,-0.09256849132125222,0.08995272591143252,801.0,0.0004468079206214877,0.5001117019782971,0.5001117019782971,,,1.0,,0.004967141530112327,1,2026-10-07 21:31:17.403244,25.0,,,
0164,cdot_cos,R,Q-R,2,0,1350,0.07738931854409914,0.32967740226798753,0.10200102672526051,0.9275752390274659,801.0,0.007147725841657982,0.5012635486633974,0.7088937088430425,-9.177347867062057e-06,,1.0,,0.009934283060224654,2,2026-10-07 21:31:17.434243,25.0,,,
0164,cdot_cos,S,R-S,3,0,1396,0.0006572087386025862,-0.007295962464068817,-0.07673210980549655,0.128050951850158,801.0,0.009855806634663749,0.5014225593149854,0.8684893487947737,-8.303894228317989e-06,0.046,1.0,0.005493051125954734,0.014901424596238196,3,2026-10-07 21:31:17.480243,25.0,0.9001570539013636,0.04638366547660823,0.05887132158708189
0164,cdot_cos,T,S-T,4,0,1626,-0.22569439636757468,-0.06017848238665835,-0.22635160510617727,0.00347461778499807,801.0,0.011415023065505939,0.5014268740095282,1.0028537480194804,-5.98097308873787e-06,0.23,1.0,0.5383744124870105,0.01986856616236984,4,2026-10-07 21:31:17.710243,25.0,0.6781511019998433,0.030449795197443594,0.006779201873226915
0164,cdot_cos,P,T-P,5,1,1985,0.07179278301679122,0.0004961199657953594,0.2974871793843659,0.9994114026681574,840.0,0.023862712425487802,0.5026679070342603,1.1239996102397385,-7.91884109726192e-05,0.359,1.0,-0.058989113444168066,0.0248357078057995,5,2026-10-07 21:31:18.069243,25.0,0.3967409971818527,0.02201509554476806,0.03467322941499126
0164,cdot_cos,Q,P-Q,6,1,2119,-0.021295803048817268,-0.03519747090449,-0.09308858606560849,0.08889399561230144,840.0,0.027221861666649402,0.5027782910239531,1.2315502667667226,-3.0944980884600235e-05,0.134,1.0,0.4370509729019292,0.029802849402333118,6,2026-10-07 21:31:18.203244,25.0,0.21034491966169502,0.06774167389085575,0.025068277919116415
0164,cdot_cos,R,Q-R,7,1,2151,0.10569667103982094,0.34096859931605417,0.1269924740886382,0.9598753222157138,840.0,0.042017481028237144,0.5039701953192961,1.3333798050194818,-0.0001847324777144191,0.032,1.0000000000000002,-0.12902671584513717,0.03476999093494058,7,2026-10-07 21:31:18.235244,25.0,0.4349659186037773,0.2910974788831901,0.4623631050496169
0164,cdot_cos,S,R-S,8,1,2195,-7.2081602049647145e-06,-0.0022969325800823253,-0.10570387920002591,0.06644675928800484,840.0,0.04585210031517357,0.5040527026224285,1.425676336416433,-6.0759868942083224e-05,0.044,1.0,1.5025652768382207,0.039737132507017596,8,2026-10-07 21:31:18.279244,25.0,0.12998061989599616,0.07527102060478243,0.08715043833946418
0164,cdot_cos,T,S-T,9,1,2425,-0.3020145693696614,-0.023893247868461167,-0.3020073612094565,0.0005257367713110212,840.0,0.048641330841458,0.5040533554317684,1.5121600663183619,-4.7527179113217247e-05,0.23,1.0000000000000002,20.27037454844354,0.04470427438697856,9,2026-10-07 21:31:18.509243,25.0,0.756976074268348,0.04592780746508842,0.01212708924471491
0164,cdot_cos,P,T-P,10,2,2825,0.0823655703239349,-0.005503903646870495,0.3843801396935963,0.9999329163747114,857.0,0.06697889174911424,0.5052949483592402,1.597882927051999,-0.00038230608924081706,0.4,1.0,-0.2696366117430417,0.04967141673420218,10,2026-10-07 21:31:18.909244,25.0,0.4165774361045472,0.02832943996815329,0.04584390226914061
0164,cdot_cos,Q,P-Q,11,2,2955,-0.024843194473331293,-0.03491934155103582,-0.1072087647972662,0.06415072019486079,857.0,0.07130488281598063,0.505374600717089,1.676137929281669,-0.00010786764870406845,0.13,1.0000000000000002,3.445452814563624,0.05463855851663907,11,2026-10-07 21:31:19.039244,25.0,0.07853471341291884,0.09363722837306244,0.03327685436051068
0164,cdot_cos,R,Q-R,12,2,2985,0.12925848055023775,0.3147232237783092,0.15410167502356906,0.9792154521983009,857.0,0.09132457112611048,0.5065904014718945,1.754880628110507,-0.0005870371814744543,0.03,0.9999999999999997,-0.39411846955714874,0.05960570001754775,12,2026-10-07 21:31:19.069243,25.0,0.44208604749115216,0.40711548294201977,0.6673229436709949
0164,cdot_cos,S,R-S,13,2,3035,-0.0001435895982271578,-0.003931954751140433,-0.12940207014846491,0.037867762210902295,857.0,0.09573181179250181,0.5066374168774737,1.8267071847827125,-0.0001486439755540314,0.05,1.0,9.324458664559483,0.06457284165085599,13,2026-10-07 21:31:19.119244,25.0,0.05237722732416974,0.08023448560578711,0.08814481332782675
0164,cdot_cos,T,S-T,14,2,3263,-0.3579343648066953,0.016397569011827765,-0.3577907752084682,0.00013040053714739172,857.0,0.09934801968668919,0.5066375787784185,1.895664239233179,-0.00012719609290629796,0.228,1.0000000000000002,132.47533956387002,0.06953998412064415,14,2026-10-07 21:31:19.347244,25.0,0.844829363252983,0.05776307018327945,0.015860560939418303
0164,cdot_cos,P,T-P,15,3,3682,0.04290627216192782,-0.0024639848013834776,0.40084063696862315,0.9999555462119424,800.0,0.12207177179607724,0.5078790466476103,1.9670070898389125,-0.0009071376159655155,0.419,0.9999999999999998,-0.628241408750257,0.07450712781314002,15,2026-10-07 21:31:19.766243,25.0,0.4232539080993038,0.03384446280739738,0.05423329859042495
0164,cdot_cos,Q,P-Q,16,3,3814,-0.05357204901187131,-0.07435707882620626,-0.09647832117379913,0.08226537029617582,800.0,0.1277096795192882,0.5079811768845897,2.03192470802799,-0.0002538937610932044,0.132,1.0,6.396184657873037,0.07947426993078176,16,2026-10-07 21:31:19.898243,25.0,0.07631373443402982,0.11203037270945386,0.04271142214553748
0164,cdot_cos,R,Q-R,17,3,3842,0.09627111180589809,0.3036405351625137,0.1498431608177694,0.9769344415763709,800.0,0.15164779019137306,0.5091939613389294,2.099460487096317,-0.0012055572641509866,0.028,0.9999999999999997,-0.784693025749506,0.08444141136228422,17,2026-10-07 21:31:19.926244,25.0,0.4541184650796999,0.5738231780198138,0.8549325240030311
0164,cdot_cos,S,R-S,18,3,3894,0.03569696044485503,-0.08433466472261537,-0.06057415136104306,0.18029445867136928,800.0,0.15984377748839776,0.5094177708048172,2.16127656173475,-0.00046023327780853713,0.052,1.0,3.3301718646517675,0.08940855308327825,18,2026-10-07 21:31:19.978244,25.0,0.19800791551542518,0.12371746001931347,0.15761514032739804
0164,cdot_cos,T,S-T,19,3,4122,-0.13620634127060247,-0.02811584650913167,-0.17190330171545748,0.0134188844848776,800.0,0.16451440603338166,0.5094344282571653,2.220573191758339,-0.00027310527575493554,0.228,0.9999999999999997,11.233890882152771,0.09437569652478495,19,2026-10-07 21:31:20.206244,25.0,0.5039963103520458,0.06802018920638601,0.02048521291659606
0164,cdot_cos,P,T-P,20,4,4482,0.06593612721758758,0.0007142835509848171,0.20214246848819006,0.9936539832761604,779.0,0.19086098376650978,0.5106678339999907,2.2837759823980894,-0.0016877121284761497,0.36,1.0,-1.1469111936196736,0.0993428416390098,20,2026-10-07 21:31:20.566243,25.0,0.4324968749117282,0.04624028073107583,0.07318493814757812
0164,cdot_cos,Q,P-Q,21,4,4617,-0.022802256548107358,-0.045187105851676075,-0.08873838376569494,0.09810501570438789,779.0,0.19780740815975625,0.5107896032828062,2.3407320226120136,-0.0004866568121540335,0.135,1.0000000000000002,9.863368565141633,0.10430998434482318,21,2026-10-07 21:31:20.701244,25.0,0.08475658328899438,0.12175975254930814,0.0514549955055294
0164,cdot_cos,R,Q-R,22,4,4647,0.07129017523622666,0.33612627057268046,0.09409243178433402,0.9131177266395892,779.0,0.22373611695482298,0.5119229141118603,2.4011313057401624,-0.001969975589783306,0.03,0.9999999999999998,-1.3088366753428968,0.10927712574375356,22,2026-10-07 21:31:20.731244,25.0,0.4709689907544224,0.5738255260093611,0.864290293168891
0164,cdot_cos,S,R-S,23,4,4692,0.0005626324458144215,-0.004259792309533187,-0.07072754279041224,0.14576774263672973,779.0,0.23223693972031792,0.512103821866447,2.4559636537152914,-0.0006986024737554349,0.045,1.0,7.027742502982172,0.11424426746347545,23,2026-10-07 21:31:20.776243,25.0,0.16204509171734327,0.15169172823282046,0.18890717256655415
0164,cdot_cos,T,S-T,24,4,4923,-0.20103738394570925,-0.07338649823861744,-0.20160001639152367,0.006432105848071473,779.0,0.23738837249577682,0.5121118044777455,2.5088252261298645,-0.00043602277445307827,0.231,1.0,32.89396031981844,0.11921141221721089,24,2026-10-07 21:31:21.007244,25.0,0.5475970569533587,0.07539693981495385,0.022300574785536376
0164,cdot_cos,P,T-P,25,5,5261,0.04811307994766862,-0.003057721044779291,0.24915046389337786,0.998031988325271,780.0,0.2670703259148266,0.5133503418857764,2.566751711666986,-0.0026983166653783783,0.338,0.9999999999999997,-1.8265850318739911,0.12417855917123578,25,2026-10-07 21:31:21.345243,25.0,0.4323977751145794,0.05582769771625943,0.08781643023387507
0164,cdot_cos,Q,P-Q,26,5,5388,-0.03579962610526259,-0.05395781726298896,-0.08391270605293122,0.10930911495181307,780.0,0.2751278961519682,0.5134859825888127,2.6182750482674364,-0.0007872826533303768,0.127,0.9999999999999996,14.088942104176045,0.12914570242936088,26,2026-10-07 21:31:21.472243,25.0,0.08826780888518074,0.15117391885916992,0.06344543493812282
0164,cdot_cos,R,Q-R,27,5,5418,0.10679025218008066,0.31695342374192853,0.14258987828534325,0.9724749269656877,780.0,0.30546850130505576,0.5146926282703622,2.674421350780155,-0.0031740075464225907,0.03,0.9999999999999999,-1.9779832054985265,0.13411284378056135,27,2026-10-07 21:31:21.502244,25.0,0.4714418915802349,0.6285437999510923,1.0113535051029188
0164,cdot_cos,S,R-S,28,5,5473,0.0015784822076149946,-0.011945051531673802,-0.10521176997246566,0.06721399990166498,780.0,0.31284052414903374,0.5147760211513179,2.7239386692210545,-0.0008212915698768474,0.055,0.9999999999999996,28.21243191964066,0.13907998583545853,28,2026-10-07 21:31:21.557244,25.0,0.057002864884210754,0.1191948131471968,0.13403677898141775
0164,cdot_cos,T,S-T,29,5,5681,-0.19356232140746193,-0.04227355670184589,-0.19514080361507694,0.007550816629349609,780.0,0.3185799307512474,0.514785389451132,2.7722041661575263,-0.0006529655443228775,0.208,0.9999999999999998,17.967617272680144,0.14404713163008107,29,2026-10-07 21:31:21.765243,25.0,0.7727598162297585,0.09219494991242827,0.027593300972181108
0164,cdot_cos,P,T-P,30,6,6041,0.06862572546319243,-0.00846714462871331,0.26218804687065433,0.9985786150529269,821.0,0.3511936233126039,0.5160242320738918,2.8263811257471887,-0.00393519470756523,0.36,0.9999999999999999,-2.649431899534008,0.14901428176153123,30,2026-10-07 21:31:22.125243,25.0,0.4342780274330179,0.056542561218499925,0.09059359044821247
0164,cdot_cos,Q,P-Q,31,6,6156,-0.027536040782602758,-0.035287375518698726,-0.09616176624579519,0.08286482876768411,821.0,0.35929057482856736,0.5161270260381934,2.873673668258556,-0.0010363548205612862,0.115,0.9999999999999996,28.200487321409646,0.153981425451984,31,2026-10-07 21:31:22.240243,25.0,0.060983618463869425,0.18064355353950373,0.07040827405185615
0164,cdot_cos,R,Q-R,32,6,6188,0.14234295543830022,0.32141430533898113,0.16987899622090297,0.9858943657577044,821.0,0.39274164062668976,0.5173499225913193,2.926573114564486,-0.00453114245953254,0.032,0.9999999999999994,-2.857794986859724,0.15894856679496458,32,2026-10-07 21:31:22.272243,25.0,0.46241996584346456,0.6300712459924194,1.045345806191325
0164,cdot_cos,S,R-S,33,6,6232,-0.000314469142009206,-0.0028339983529974957,-0.14265742458030942,0.027479908039192372,821.0,0.3996151345720822,0.5173840055704884,2.9721448388715745,-0.0009809741948379612,0.044,0.9999999999999998,104.1624984448638,0.16391570866355434,33,2026-10-07 21:31:22.316243,25.0,0.026808853462601895,0.14651034803955357,0.1562157714861918
0164,cdot_cos,T,S-T,34,6,6462,-0.3198384732193259,-0.010033978630266492,-0.3195240040773167,0.0003393632389960005,821.0,0.4056345512541705,0.5173844264773713,3.0168437086567805,-0.0008730602169609431,0.23,0.9999999999999997,256.384445729927,0.16888285685547066,34,2026-10-07 21:31:22.546243,25.0,0.8837294827857305,0.08983850606951811,0.02617137687864467
0164,cdot_cos,P,T-P,35,7,6862,0.07046690496142019,-0.0034869261821548372,0.39030537818074607,0.9999421520362742,859.0,0.44094084736406053,0.5186245293237761,3.0682241010007374,-0.005382689846163564,0.4,0.9999999999999996,-3.6364964746886517,0.17385001162860805,35,2026-10-07 21:31:22.946244,25.0,0.43266036141026676,0.05527342818384344,0.08826574027472514
0164,cdot_cos,Q,P-Q,36,7,6995,-0.022483498771879884,-0.032981735812386614,-0.09295040373330007,0.08917418433395881,859.0,0.4498532938012452,0.5187351099640878,3.112410670232825,-0.001429712292661103,0.133,0.9999999999999996,35.74746485787448,0.1788171567537927,36,2026-10-07 21:31:23.079243,25.0,0.0629838935106189,0.16727505577301854,0.0670108754675541
0164,cdot_cos,R,Q-R,37,7,7025,0.11987200841706654,0.3201767925830492,0.1423555071889464,0.9723176541512338,859.0,0.48543601219968346,0.5199407131587498,3.16267589923692,-0.005992090122881962,0.03,0.9999999999999992,-3.7843113309764616,0.1837842978764649,37,2026-10-07 21:31:23.109244,25.0,0.46701212010544224,0.7258511163617171,1.1860906132812747
0164,cdot_cos,S,R-S,38,7,7072,-0.0001285597602997921,-0.003096537216127006,-0.12000056817736633,0.04742523147280339,859.0,0.49340436078294825,0.5199995111721667,3.205492279545807,-0.0014043305919056754,0.047,0.9999999999999993,78.02575740862089,0.18875143990179732,38,2026-10-07 21:31:23.156243,25.0,0.03812573508789541,0.15340338030321382,0.1695393315588252
0164,cdot_cos,T,S-T,39,7,7300,-0.3959118015195884,-0.007731704464990201,-0.3957832417592886,5.044476967267451e-05,859.0,0.49985592994818556,0.5199995737135223,3.247396308599921,-0.0011537655964869392,0.228,0.999999999999999,4006.388937609432,0.19371859010866355,39,2026-10-07 21:31:23.384243,25.0,0.804791942500896,0.097004802004492,0.028296355987882955
0164,cdot_cos,P,T-P,40,8,7721,0.08353266453495527,-0.006000171086086803,0.47944446605454366,0.9999937698981781,818.0,0.5376385504969966,0.5212392389028362,3.296606414978287,-0.007056316715681593,0.421,0.9999999999999989,-4.761407491374123,0.1986857500190451,40,2026-10-07 21:31:23.805243,25.0,0.43322770706143576,0.05536844579851517,0.08974494192116637
0164,cdot_cos,Q,P-Q,41,8,7852,-0.021262840605159657,-0.03411806777954938,-0.10479550514011493,0.06786940220627753,818.0,0.5464761613105353,0.5213233654560432,3.338098293810847,-0.0017246623108418849,0.131,0.9999999999999988,63.376593971714094,0.20365289606841028,41,2026-10-07 21:31:23.936243,25.0,0.045437417942108295,0.17773641908555338,0.06746267796594452
0164,cdot_cos,R,Q-R,42,8,7882,0.11294587223894172,0.35657567807261853,0.13420871284410138,0.9662752851538525,818.0,0.5842054922974116,0.522520964791909,3.3863229002840236,-0.007677538812445909,0.03,0.999999999999999,-4.970674518035092,0.2086200370012242,42,2026-10-07 21:31:23.966244,25.0,0.4605367573082913,0.774556992365516,1.2576443662292085
0164,cdot_cos,S,R-S,43,8,7931,9.770372768812443e-05,-0.002357313859638737,-0.1128481685112536,0.056189037824936956,818.0,0.5929495808524663,0.5225905975223557,3.426855734712111,-0.0018524450272874643,0.049,0.9999999999999987,83.65453641973913,0.21358717918771747,43,2026-10-07 21:31:24.015244,25.0,0.04308659287722221,0.15933107090407464,0.17845078683785118
0164,cdot_cos,T,S-T,44,8,8161,-0.30708803524970835,-0.041256996686847014,-0.3071857389773965,0.0004619261596215643,818.0,0.5998199372460109,0.5225911699645391,3.466477677472669,-0.0014747990738269911,0.23,0.9999999999999986,659.7102107250198,0.21855433184756454,44,2026-10-07 21:31:24.245243,25.0,0.7740908488583793,0.10209883871998426,0.02987111475454177
0164,cdot_cos,P,T-P,45,9,8539,0.06123498206933006,4.107839796249849e-05,0.3683230173190384,0.9998997832938037,800.0,0.6399150466636591,0.5238301545545541,3.5139595235676406,-0.008943699258448201,0.378,0.9999999999999984,-6.0282430022243,0.2235214940494732,45,2026-10-07 21:31:24.623244,25.0,0.433830274744418,0.0666787558110286,0.10607171803610624
0164,cdot_cos,Q,P-Q,46,9,8674,-0.028344134476214866,-0.051607401631215896,-0.08957911654554493,0.09626095092628599,800.0,0.6502290766391485,0.5239494171097886,3.5535978662433036,-0.0023941624978523848,0.135,0.9999999999999979,54.91695819962879,0.228488641567281,46,2026-10-07 21:31:24.758244,25.0,0.0648532991045968,0.1826643356423068,0.07640022204066273
0164,cdot_cos,R,Q-R,47,9,8704,0.08101055183527418,0.3096816758531175,0.10935468631148905,0.9389957350239013,800.0,0.6892344172870819,0.5251126410200093,3.5999909195318023,-0.009398154543215465,0.03,0.9999999999999977,-6.021189887709636,0.23345578234737988,47,2026-10-07 21:31:24.788243,25.0,0.4746147538960295,0.8468409950760258,1.3001780215977792
0164,cdot_cos,S,R-S,48,9,8751,0.005358196377332344,-0.029365649323115077,-0.07565235545794184,0.13109530306288164,800.0,0.7010395363437101,0.5252750199337641,3.6392121164109703,-0.002952188837777473,0.047,0.9999999999999981,39.69706137566119,0.23842292453601296,48,2026-10-07 21:31:24.835244,25.0,0.11265186636924655,0.20989587479496474,0.2511727458857059
0164,cdot_cos,T,S-T,49,9,8979,-0.15243120508460956,-0.04363014830897714,-0.1577894014619419,0.018988790838619284,800.0,0.7089646295178086,0.525298539626437,3.677089804344871,-0.002010000091140736,0.228,0.999999999999998,40.05956879371626,0.24339007989542044,49,2026-10-07 21:31:25.063244,25.0,0.6257836347835992,0.10981779605054333,0.03475918058815135
0164,cdot_cos,P,T-P,50,10,9339,0.06084921503816993,-0.00020156373670459195,0.21328042012277948,0.9951889176334469,799.0,0.7511164513427578,0.5265310302801598,3.723136650347398,-0.011067597549249637,0.36,0.9999999999999978,-7.349019183837355,0.24835724590135733,50,2026-10-07 21:31:25.423244,25.0,0.44114186667259325,0.0743379421025382,0.11708839395819237
0164,cdot_cos,Q,P-Q,51,10,9471,-0.022832019353770848,-0.039335784942997026,-0.08368123439194078,0.10987379571474011,799.0,0.7624879478316361,0.5266670838231059,3.761155320316858,-0.003095119555183705,0.132,0.9999999999999976,58.59809176174311,0.2533243946929298,51,2026-10-07 21:31:25.555244,25.0,0.07609122669278812,0.19980347812878074,0.08614770067332009
0164,cdot_cos,R,Q-R,52,10,9501,0.09287596508304734,0.3226857237184719,0.11570798443681818,0.9474843704835129,799.0,0.803864569568756,0.5278401598756763,3.8063095608194435,-0.011651465570968416,0.03,0.9999999999999973,-7.293939721159642,0.2582915353512717,52,2026-10-07 21:31:25.585243,25.0,0.47981343894467626,0.8723057814596424,1.3792207245706622
0164,cdot_cos,S,R-S,53,10,9550,0.0005266388484018522,-0.006027718613008686,-0.09234932623464548,0.09040226286758352,799.0,0.8148262947192146,0.5279520706432336,3.8435491282060052,-0.003189833111017984,0.049,0.9999999999999971,75.61053010938404,0.2632586778893645,53,2026-10-07 21:31:25.634243,25.0,0.07046154779540098,0.19104240587723612,0.22370867653997303
0164,cdot_cos,T,S-T,54,10,9778,-0.23178934519089,-0.04640792797270542,-0.23231598403929185,0.002994737098865362,799.0,0.8225867253447251,0.5279557778401158,3.8796668256612237,-0.0022843825650362883,0.228,0.9999999999999969,244.24128923835823,0.2682258363589934,54,2026-10-07 21:31:25.862243,25.0,0.6727607250138908,0.11439142877675045,0.03403697642767746
0164,cdot_cos,P,T-P,55,11,10138,0.07574869907661615,-0.005151438208607946,0.30753804426750614,0.9995421225971038,819.0,0.8669887862414128,0.5291929402113823,3.924599925085306,-0.013482868086806016,0.36,0.9999999999999968,-9.051750830657664,0.27319300771977645,55,2026-10-07 21:31:26.222244,25.0,0.4358001698758005,0.07549553700388915,0.12333905804635485
0164,cdot_cos,Q,P-Q,56,11,10267,-0.03669741510236036,-0.05217318567458376,-0.11244611417897651,0.0567244637236389,819.0,0.8769435119875253,0.5292631391210272,3.960642717538353,-0.003119990840736024,0.129,0.9999999999999964,147.62162686704502,0.2781601577700788,56,2026-10-07 21:31:26.351244,25.0,0.036100637107073424,0.21121862798380758,0.0771684166365306
0164,cdot_cos,R,Q-R,57,11,10297,0.11861730188947399,0.3165107843441949,0.15531471699183436,0.9798237774069645,819.0,0.9214831922612352,0.5304755272031655,4.005002454181288,-0.014391563135413265,0.03,0.9999999999999963,-9.297000243352294,0.28312729826794597,57,2026-10-07 21:31:26.381243,25.0,0.4569382800595849,0.9077354771949394,1.4846560091236638
0164,cdot_cos,S,R-S,58,11,10350,0.0005040536150469373,-0.009930587024868496,-0.11811324827442705,0.04960287127293438,819.0,0.9314076406192217,0.5305368940310493,4.04044866129262,-0.0033038308967864812,0.053,0.999999999999996,180.6795726775609,0.28809444141844964,58,2026-10-07 21:31:26.434243,25.0,0.03487367865351308,0.16964749368362356,0.1872537426035179
0164,cdot_cos,T,S-T,59,11,10560,-0.2556014272653714,-0.022950483602022478,-0.25610548088041835,0.0016544397751785667,819.0,0.9394658265916993,0.5305389408265165,4.075146982306231,-0.0027085888450319325,0.21,0.9999999999999952,290.8165770766749,0.29306160126224906,59,2026-10-07 21:31:26.644243,25.0,0.8027106647877943,0.12964604724916087,0.038372314154655474
0164,cdot_cos,P,T-P,60,12,10957,0.07342002378370868,-0.00932070435338582,0.3290214510490801,0.9997323429253827,802.0,0.9858589804638692,0.5317755725092896,4.119115930056696,-0.016042974669469082,0.397,0.9999999999999957,-10.78282726392328,0.2980287824162498,60,2026-10-07 21:31:27.041243,25.0,0.4355408575729639,0.0722168825961456,0.11685932965282093
0164,cdot_cos,Q,P-Q,61,12,11085,-0.029264635801731397,-0.040815306574130315,-0.10268465958544008,0.07128496650234506,802.0,0.9968060313730389,0.5318637346333198,4.153988627903898,-0.003898196151508976,0.128,0.9999999999999951,137.7550580995867,0.3029959339204634,61,2026-10-07 21:31:27.169244,25.0,0.0443569104937578,0.2247141429781922,0.08552383522788826
0164,cdot_cos,R,Q-R,62,12,11111,0.13278797351161123,0.3415565061818118,0.16205260931334262,0.9828980890531179,802.0,1.0433858010662864,0.533079134745322,4.197469374135595,-0.01706270372244042,0.026,0.9999999999999951,-10.831418757437152,0.30796307372048903,62,2026-10-07 21:31:27.195244,25.0,0.46230195493414217,1.0837404292959874,1.7915296035864428
0164,cdot_cos,S,R-S,63,12,11169,0.0005382392961752058,-0.0061927553012479375,-0.132249734215436,0.03535762541564908,802.0,1.0531605336964303,0.533122848898201,4.231531499127441,-0.003679457673046881,0.058,0.9999999999999947,306.1536177177323,0.31293021773777546,63,2026-10-07 21:31:27.253243,25.0,0.026323645474848494,0.15606718256416605,0.16852987293351437
0164,cdot_cos,T,S-T,64,12,11378,-0.3723937816804466,-0.05055966721009592,-0.3729320209766218,8.93106479657393e-05,802.0,1.0614895942437297,0.5331229593161523,4.264983745495334,-0.003162343113339828,0.209,0.9999999999999943,4683.247189081815,0.3178973806564279,64,2026-10-07 21:31:27.462244,25.0,0.8491473102784598,0.135491410113481,0.03985196434114559
0164,cdot_cos,P,T-P,65,13,11759,0.060919352236474725,0.0007117899431483714,0.43331313391692133,0.9999802596953001,797.0,1.1097959431238653,0.5343590647815103,4.308140586909525,-0.01882565213703514,0.381,0.9999999999999939,-12.671498883114067,0.32286456659455304,65,2026-10-07 21:31:27.843244,25.0,0.43516958850701465,0.07978967300849275,0.1267883172706972
0164,cdot_cos,Q,P-Q,66,13,11901,-0.027482094210783937,-0.05243903211508832,-0.08840144644725867,0.09885285185848133,797.0,1.1222893250762012,0.5344812370775917,4.342146183715613,-0.005005010531076989,0.142,0.9999999999999932,113.12418649113901,0.32783172171878455,66,2026-10-07 21:31:27.985244,25.0,0.06320567775137796,0.20805126720948713,0.08798156304461865
0164,cdot_cos,R,Q-R,67,13,11930,0.08094487377906294,0.34585150436884976,0.10842696798984688,0.9376535735301056,797.0,1.1688825030113597,0.5356398759018586,4.38440143390597,-0.019153685631486728,0.029,0.9999999999999931,-12.211462971959094,0.3327988616262009,67,2026-10-07 21:31:28.014244,25.0,0.47773837003461045,1.0389260251673655,1.6066613081089134
0164,cdot_cos,S,R-S,68,13,11988,0.0017870491304538736,-0.0074595494709899625,-0.07915782464860907,0.12143128069727792,797.0,1.1825470345359084,0.535789898119306,4.418236777419435,-0.005764748529119528,0.058,0.9999999999999926,89.24636184010345,0.33776600600934303,68,2026-10-07 21:31:28.072243,25.0,0.09802296021930021,0.19262656506806164,0.2355953711129089
0164,cdot_cos,T,S-T,69,13,12198,-0.3107272210532149,-0.08155989542273963,-0.31251427018366873,0.00040433728128307523,797.0,1.1912271845592548,0.5357903976468017,4.450609395264126,-0.003696751256658179,0.21,0.9999999999999921,4139.906792437096,0.3427331726541376,69,2026-10-07 21:31:28.282243,25.0,0.571546539657942,0.1400855325531279,0.04133404773022111
0164,cdot_cos,P,T-P,70,14,12556,0.06607863261033332,0.0012606304464420925,0.3768058536635482,0.999918932418565,780.0,1.241382958208222,0.5370254981115328,4.493077774500522,-0.021882148887804424,0.358,0.9999999999999922,-14.723820572042158,0.3477003624478763,70,2026-10-07 21:31:28.640243,25.0,0.4355869412178942,0.08809472198294713,0.14009992639376337
0164,cdot_cos,Q,P-Q,71,14,12692,-0.022894173312063195,-0.04582040602126597,-0.08897280592239652,0.09758769137172232,780.0,1.254303005499045,0.5371460144020015,4.526072879191765,-0.005782757065191223,0.136,0.9999999999999912,133.58685170277334,0.35266751888654524,71,2026-10-07 21:31:28.776243,25.0,0.0617887530633913,0.22136310273740736,0.09500034772663864
0164,cdot_cos,R,Q-R,72,14,12722,0.07123119804111744,0.34259657055915155,0.09412537135318064,0.9131830349011649,780.0,1.301593722152797,0.5382735410676384,4.56740256850502,-0.021669631893823954,0.03,0.9999999999999908,-14.090021382917127,0.357634658749145,72,2026-10-07 21:31:28.806243,25.0,0.48039814909513834,1.041900091464195,1.5763572217917319
0164,cdot_cos,S,R-S,73,14,12768,0.0007252762424269588,-0.005360396448247307,-0.07050592179869047,0.1464590009749866,780.0,1.3168170109868966,0.5384543410091299,4.600556022903814,-0.007145857569994265,0.046,0.9999999999999905,80.33063619385976,0.362601801580681,73,2026-10-07 21:31:28.852243,25.0,0.13101091423962968,0.26469278218958,0.33094106161086384
0164,cdot_cos,T,S-T,74,14,12996,-0.22803205484720698,-0.08003007248737504,-0.22875733108963395,0.00327246711022553,780.0,1.3259454581142383,0.5384583806718528,4.631994251142247,-0.0043247657457505615,0.228,0.9999999999999903,698.3483567229616,0.3675689752176599,74,2026-10-07 21:31:29.080243,25.0,0.5208407754359132,0.1338607266610274,0.040037048804129914
0164,cdot_cos,P,T-P,75,15,13336,0.05798243408911786,-0.0008555317756728672,0.28601448893632486,0.9992160352462867,779.0,1.3778575023443251,0.5396916137326853,4.673866603998635,-0.025152564358550844,0.34,0.9999999999999896,-16.888777372495362,0.37253616927113326,75,2026-10-07 21:31:29.420243,25.0,0.43689663064652723,0.09515422619459661,0.1526824830296673
0164,cdot_cos,Q,P-Q,76,15,13468,-0.03758479330492129,-0.061085166210944855,-0.09556722739403914,0.08400145278952353,779.0,1.390650331926564,0.5397952664495657,4.705826174440993,-0.0063465406668388935,0.132,0.9999999999999888,181.4330029902805,0.3775033272926792,76,2026-10-07 21:31:29.552243,25.0,0.05165373289927272,0.24118325710155472,0.09691537562302134
0164,cdot_cos,R,Q-R,77,15,13497,0.08760644257281355,0.3144242059471574,0.12519123587773484,0.9581045989895707,779.0,1.4415298822191356,0.540977263930853,4.747056371718553,-0.02581201448858074,0.029,0.9999999999999886,-16.46828705636637,0.3824704668044599,77,2026-10-07 21:31:29.581243,25.0,0.47042226548731153,1.1171380593753382,1.754467251467987
0164,cdot_cos,S,R-S,78,15,13547,0.0016767060142724927,-0.012454166315313417,-0.08592973655854107,0.10449548356554576,779.0,1.4554443393703336,0.5411061506053939,4.778920272234065,-0.00722021530384988,0.05,0.999999999999988,144.24919605500796,0.3874376106514866,78,2026-10-07 21:31:29.631244,25.0,0.07615651475801151,0.2408465882749633,0.2782891430239598
0164,cdot_cos,T,S-T,79,15,13757,-0.1545938177788896,-0.043719987003572366,-0.15627052379316209,0.019709212282304496,779.0,1.465614541046632,0.5411304596987279,4.80967287935135,-0.005321151576968371,0.21,0.9999999999999868,78.12153669380751,0.3924047854752296,79,2026-10-07 21:31:29.841243,25.0,0.6998497478029688,0.151309673454931,0.04842953179189686
0164,cdot_cos,P,T-P,80,16,14115,0.045792045873625335,-0.002586102372257439,0.20038586365251493,0.9933709759315534,801.0,1.5189944022214046,0.5423554148876039,4.8509744609116785,-0.028524742047718325,0.358,0.999999999999987,-18.94239942935484,0.3973719906599106,80,2026-10-07 21:31:30.199244,25.0,0.443323789199898,0.09474680409947416,0.14910575747143204
0164,cdot_cos,Q,P-Q,81,16,14245,-0.03713788887682968,-0.05570931692168094,-0.08292993475045501,0.11172425728634545,801.0,1.5334532527818554,0.5424931536258656,4.882438558694327,-0.007901661039945808,0.13,0.9999999999999856,149.72607755840644,0.4023391506533607,81,2026-10-07 21:31:30.329243,25.0,0.07353691043156647,0.26035390520321355,0.11122192738808323
0164,cdot_cos,R,Q-R,82,16,14275,0.1073234110688659,0.31397806968536085,0.1444612999456956,0.9736999536448577,801.0,1.5866864175742401,0.5436932978804391,4.923352391488375,-0.029724303672077262,0.03,0.9999999999999857,-18.183349667317184,0.407306290170375,82,2026-10-07 21:31:30.359244,25.0,0.47990441120473404,1.0976243115180861,1.774438826412824
0164,cdot_cos,S,R-S,83,16,14327,0.0012158476487360713,-0.013434787372557839,-0.10610756342012984,0.06582346246649247,801.0,1.5993107114729406,0.543774411144326,4.954020837551697,-0.007197727927363385,0.052,0.9999999999999849,277.71753552063115,0.4122734348087727,83,2026-10-07 21:31:30.411244,25.0,0.04373184626840352,0.21800984639008814,0.24277488266731648
0164,cdot_cos,T,S-T,84,16,14535,-0.18367503284788889,-0.03179512899039794,-0.18489088049662497,0.009734739069796633,801.0,1.6093594415988093,0.5437864069200544,4.983884928041151,-0.005770020668295647,0.208,0.9999999999999838,119.01750177657253,0.417240613684076,84,2026-10-07 21:31:30.619244,25.0,0.7808006741955473,0.15702614114960403,0.048311202528214955
0164,cdot_cos,P,T-P,85,17,14916,0.07455124187916315,-0.005856055327830377,0.25822627472705206,0.9984308594675834,798.0,1.6646335861911759,0.5450164658299745,5.02480373305242,-0.03237051613125927,0.381,0.9999999999999835,-21.625383344193743,0.422207832484919,85,2026-10-07 21:31:31.000243,25.0,0.4396612494370241,0.08897398863388406,0.1450764949930881
0164,cdot_cos,Q,P-Q,86,17,15044,-0.03555921598789982,-0.05324547362034172,-0.11011045786706297,0.05993088336001058,798.0,1.677157620937829,0.5450902828814286,5.0549595477434455,-0.007486205974846804,0.128,0.9999999999999822,337.1078858643682,0.42717499436453127,86,2026-10-07 21:31:31.128243,25.0,0.036007732480005626,0.2634317091062266,0.09784402145822726
0164,cdot_cos,R,Q-R,87,17,15075,0.11168232638202813,0.32870576285738273,0.14724154236992795,0.9754224817571052,798.0,1.7320721037223699,0.5462914328444753,5.095467493200429,-0.03347257116954513,0.031,0.9999999999999821,-21.634571863768656,0.43214213383162536,87,2026-10-07 21:31:31.159244,25.0,0.46008314989993726,1.0900330670835154,1.771434928533578
0164,cdot_cos,S,R-S,88,17,15126,0.0007886581043625707,-0.009448836835488644,-0.11089366827766556,0.05883720648962709,798.0,1.744739671097007,0.5463638687795256,5.125347627799522,-0.007874238314570575,0.051,0.9999999999999809,353.3927302411387,0.43710927854175713,88,2026-10-07 21:31:31.210243,25.0,0.03873946686757099,0.22181052033565676,0.2483836740124909
0164,cdot_cos,T,S-T,89,17,15336,-0.2583845780458643,-0.04468190607779,-0.25917323615022686,0.0015324851743103382,798.0,1.7546967767966068,0.5463657554335775,5.1544044565575,-0.006229670470705607,0.21,0.9999999999999801,871.6848975204583,0.44207646239952375,89,2026-10-07 21:31:31.420243,25.0,0.7679815724613283,0.15928755728526348,0.04741478904571408
0164,cdot_cos,P,T-P,90,18,15714,0.08355120559467784,-0.007245302500957508,0.3419357836405421,0.9998061815047421,759.0,1.8116404451568175,0.5475963380431071,5.1949552415385165,-0.03629100826559769,0.378,0.99999999999998,-24.42854105209662,0.4470436896587642,90,2026-10-07 21:31:31.798244,25.0,0.4367731996062646,0.09206030257448361,0.1506446252915627
0164,cdot_cos,Q,P-Q,91,18,15843,-0.030026730972846097,-0.04937843448164126,-0.11357793656752393,0.05522931193847165,759.0,1.8242943655429165,0.5476642986331527,5.224384703665778,-0.00822168863517075,0.129,0.9999999999999778,413.0234833396145,0.45201085417478787,91,2026-10-07 21:31:31.927244,25.0,0.03290739978541825,0.2665685398436704,0.09809240609379004
0164,cdot_cos,R,Q-R,92,18,15871,0.10651499584948293,0.3698436564583324,0.136541726822329,0.9681251222897833,759.0,1.8804151284364845,0.54885530189966,5.264435391840911,-0.037136073727043584,0.028,0.9999999999999772,-24.277334836087654,0.45697799256196925,92,2026-10-07 21:31:31.955244,25.0,0.4590452861132435,1.2417218793615887,2.004312960484573
0164,cdot_cos,S,R-S,93,18,15926,0.0013564197829987893,-0.007456655199970836,-0.10515857606648414,0.06729742440155188,759.0,1.8938307907871654,0.5489380716419671,5.293767327583373,-0.009043704847220288,0.055,0.9999999999999765,339.40384610133924,0.46194513867347164,93,2026-10-07 21:31:32.010243,25.0,0.044766737408320455,0.21460264928850992,0.24392113364874407
0164,cdot_cos,T,S-T,94,18,16136,-0.2866048055892357,-0.08916912082350548,-0.28796122537223445,0.0007467518189248471,759.0,1.9040214198582206,0.5489389900639485,5.322161248221865,-0.0069126244770672494,0.21,0.9999999999999749,2320.3716953191124,0.46691232731047466,94,2026-10-07 21:31:32.220243,25.0,0.7347035658241966,0.16355902209066941,0.04852680510026271
0164,cdot_cos,P,T-P,95,19,16473,0.050523911786197015,-0.003606575460196536,0.3371287173754327,0.9997814370580828,720.0,1.9625255800652466,0.550168308919026,5.362377654921377,-0.040383150841387105,0.337,0.9999999999999744,-27.226887659028133,0.4718795526819234,95,2026-10-07 21:31:32.557244,25.0,0.43656236299026047,0.10438002427645904,0.17360284927900882
0164,cdot_cos,Q,P-Q,96,19,16602,-0.08616301740461618,-0.10597484303153974,-0.1366869291908132,0.03176304834222589,720.0,1.974373556220554,0.5502073544102339,5.390909401923505,-0.008326869216171004,0.129,0.9999999999999728,820.9982928505541,0.47684671982583954,96,2026-10-07 21:31:32.686244,25.0,0.021285269559534557,0.27254758438147064,0.0918447763977319
0164,cdot_cos,R,Q-R,97,19,16629,0.08267693085970833,0.35881204340322387,0.16883994826432452,0.9855285265149505,720.0,2.032842856835666,0.5514185293646228,5.430843011491129,-0.04180593306852717,0.027,0.9999999999999727,-27.641806603613333,0.4818138576477609,97,2026-10-07 21:31:32.713243,25.0,0.448960273062394,1.4434311063671652,2.165529652411556
0164,cdot_cos,S,R-S,98,19,16685,0.022970864936539697,-0.04860157491463674,-0.05970606592316863,0.1835240630857452,720.0,2.052318835964381,0.551644006158172,5.460997372804693,-0.014194986228535867,0.056,0.9999999999999716,122.45582529965762,0.48678100465866314,98,2026-10-07 21:31:32.769243,25.0,0.14297011397237977,0.26958415415197023,0.3477853415841947
0164,cdot_cos,T,S-T,99,19,16895,-0.18475486769875232,-0.09745972814585188,-0.207725732635292,0.005523837471258085,720.0,2.0630362821006867,0.5516507923900473,5.488856411286526,-0.007869077497078436,0.21,0.9999999999999697,932.1680790854073,0.49174819878094655,99,2026-10-07 21:31:32.979244,25.0,0.4475824207824264,0.16830324469515864,0.051035457791932214
0164,cdot_cos,P,T-P,100,20,17193,0.06564375671736955,-0.0014050711163765954,0.2503986244161219,0.9980923346180944,741.0,2.1230061987363475,0.5528766663617851,5.528767010770585,-0.04476485791346043,0.298,0.9999999999999697,-30.097531448586686,0.49671542153314097,100,2026-10-07 21:31:33.277244,25.0,0.4385799938675189,0.12525231656895972,0.20124133099215058
0164,cdot_cos,Q,P-Q,101,20,17321,-0.030992678609146486,-0.0546875162717047,-0.09663643532651603,0.08196743097007861,741.0,2.1376866627757867,0.5529773118008079,5.557353576981144,-0.011153249878361096,0.128,0.9999999999999677,333.96056852108404,0.5016825915084498,101,2026-10-07 21:31:33.405244,25.0,0.04911378063406225,0.28619471724247375,0.11469112530811815
0164,cdot_cos,R,Q-R,102,20,17351,0.0935058256369982,0.3756092101279732,0.1244985042461447,0.9574038981835712,741.0,2.196272046350421,0.5541525567289254,5.596666865323924,-0.045251627790704824,0.03,0.9999999999999675,-29.013848174577994,0.5066497301684288,102,2026-10-07 21:31:33.435244,25.0,0.47070288279809536,1.232113900247489,1.9528461191544721
0164,cdot_cos,S,R-S,103,20,17405,0.0015831335650085183,-0.007014542689278233,-0.09192269207198969,0.09128315278234964,741.0,2.211613496790636,0.5542645784181179,5.625171487762231,-0.012051345688733072,0.054,0.9999999999999656,296.3736963910961,0.5116168772824329,103,2026-10-07 21:31:33.489243,25.0,0.063615223245608,0.24220775092147567,0.2841009340780588
0164,cdot_cos,T,S-T,104,20,17614,-0.244759254468056,-0.09579948985612802,-0.24634238803306452,0.0021108327006785273,741.0,2.22243048344994,0.5542671687438144,5.652438604909422,-0.00854760830374374,0.209,0.9999999999999639,1352.6242625516984,0.5165840767077976,104,2026-10-07 21:31:33.698244,25.0,0.6637109701869321,0.17309240355141653,0.05175591703016361
0164,cdot_cos,P,T-P,105,21,17934,0.06565844846350058,-0.0011830101026210516,0.31041770293155657,0.999573913742734,819.0,2.283966121475128,0.5554934704578386,5.692114648121947,-0.04939213044277198,0.32,0.9999999999999639,-33.307074166108194,0.5215513155620203,105,2026-10-07 21:31:34.018244,25.0,0.4373839246321207,0.12070243015891505,0.19229886882871222
0164,cdot_cos,Q,P-Q,106,21,18064,-0.02445604789649105,-0.037578271564114446,-0.09011449635999164,0.0951028452045301,819.0,2.299680038751646,0.5556101099862729,5.720356630943112,-0.012828456248559404,0.13,0.9999999999999619,313.4758403520111,0.5265184892540313,106,2026-10-07 21:31:34.148243,25.0,0.05783271622504572,0.29447031471892493,0.120876286742444
0164,cdot_cos,R,Q-R,107,21,18094,0.11991537191962806,0.3360585986318094,0.14437141981611912,0.9736423503015816,819.0,2.3605284033020486,0.5568038855081379,5.759624624373898,-0.050477401491460995,0.03,0.9999999999999616,-31.537709186803728,0.5314856277288535,107,2026-10-07 21:31:34.178244,25.0,0.47432742021125235,1.2386457172563001,2.028278818346759
0164,cdot_cos,S,R-S,108,21,18144,0.00021286015175725365,-0.005235581727122732,-0.1197025117678708,0.04776299445167209,819.0,2.373998781787024,0.5568624305914018,5.787084584211112,-0.011352393719004612,0.05,0.9999999999999598,668.288532378488,0.5364527739910092,108,2026-10-07 21:31:34.228243,25.0,0.031859795299995546,0.24527742026323462,0.26940756969950463
0164,cdot_cos,T,S-T,109,21,18354,-0.25311865240434456,-0.020011418302915692,-0.2533315125561018,0.0017730351574188543,819.0,2.385056145328372,0.5568646038437343,5.813837600176529,-0.009367051412350365,0.21,0.9999999999999578,913.5351091224447,0.5414199795370369,109,2026-10-07 21:31:34.438244,25.0,0.8090055130259289,0.17632393609313626,0.05265411210165824
0164,cdot_cos,P,T-P,110,22,18753,0.07915519731478456,-0.0028418206053621776,0.3322738497191291,0.9997532396743091,799.0,2.448054834946141,0.5580896766414841,5.853294382751657,-0.054167769883515446,0.399,0.9999999999999579,-36.56984185221674,0.5463872577646282,110,2026-10-07 21:31:34.837244,25.0,0.4373273226895341,0.09748106240959593,0.15789145267611276
0164,cdot_cos,Q,P-Q,111,22,18900,-0.02401463371471317,-0.047857248860154356,-0.10316983102949773,0.07048613002880208,799.0,2.4628460331312296,0.5581760221001061,5.880749818394246,-0.012921993617558572,0.147,0.9999999999999551,477.6832148930908,0.5513544409027148,111,2026-10-07 21:31:34.984244,25.0,0.04109351245898985,0.2525130446767441,0.100620395816929
0164,cdot_cos,R,Q-R,112,22,18926,0.07385177048780747,0.33611668822710994,0.09786640420252064,0.9203168674362909,799.0,2.522293670081104,0.5593030849530525,5.919108012279964,-0.05269187943049182,0.026,0.9999999999999546,-35.28630697832507,0.5563215772409503,112,2026-10-07 21:31:35.010243,25.0,0.47012197745762097,1.503450984001466,2.286447574995162
0164,cdot_cos,S,R-S,113,22,18983,0.0018932252526029588,-0.007743679634204736,-0.07195854523520451,0.1419772682619189,799.0,2.541025484299306,0.5594769028115767,5.94732158754667,-0.016862056099389226,0.057,0.9999999999999526,206.1343042384261,0.5612887264972436,113,2026-10-07 21:31:35.067244,25.0,0.1194474599962829,0.265270295839604,0.3286283196175794
0164,cdot_cos,T,S-T,114,22,19193,-0.20620143838652633,-0.05708097334051795,-0.2080946636391293,0.005473401407223742,799.0,2.5525344838068187,0.5594836034159716,5.973650751006481,-0.010422045851474087,0.21,0.9999999999999504,961.1088594967537,0.5662559378146712,114,2026-10-07 21:31:35.277244,25.0,0.5390635088356666,0.1806458064261131,0.0548047595595849
0164,cdot_cos,P,T-P,115,23,19552,0.05615722129670378,0.0004010878935720352,0.26235865968323013,0.9985846562413045,819.0,2.6168967229982734,0.5607057178033128,6.0128995058303545,-0.059116535526593225,0.359,0.9999999999999503,-39.84446151645195,0.5712232120110419,115,2026-10-07 21:31:35.636243,25.0,0.4388035886208631,0.11429144937443696,0.17928200331881525
0164,cdot_cos,Q,P-Q,116,23,19699,-0.024066984364436928,-0.04452698353925594,-0.0802242056611407,0.11861567309059469,819.0,2.6345957444576644,0.5608508365777934,6.040548977914796,-0.016513379947048937,0.147,0.9999999999999474,293.5743891995598,0.5761903989731751,116,2026-10-07 21:31:35.783243,25.0,0.07578026632845691,0.2698600106778763,0.12040150652646982
0164,cdot_cos,R,Q-R,117,23,19725,0.08347716411689501,0.32487718035938523,0.10754414848133194,0.9363508164272829,819.0,2.696235566137569,0.5619960353722321,6.078917186526478,-0.05834614137362751,0.026,0.9999999999999469,-36.52882069884154,0.5811575347915459,117,2026-10-07 21:31:35.809243,25.0,0.48822660360091047,1.5244194699198457,2.370762372304022
0164,cdot_cos,S,R-S,118,23,19783,0.0013171146114514354,-0.006539406729770621,-0.08216004950544357,0.11364870240812472,819.0,2.7138655568934964,0.5621349881071478,6.106349603192426,-0.016934909002052398,0.058,0.9999999999999449,298.02387406549235,0.586124685137113,118,2026-10-07 21:31:35.867244,25.0,0.08669858822306246,0.2520119792247571,0.3039653578608175
0164,cdot_cos,T,S-T,119,23,19991,-0.24044564038448196,-0.053179508605976235,-0.2417627549959334,0.0023662757939068536,819.0,2.725468955727641,0.562137881133833,6.13220094058117,-0.011206132629224876,0.208,0.9999999999999419,1980.2017043631015,0.5910919018627622,119,2026-10-07 21:31:36.075244,25.0,0.5997646385110595,0.18611701954167337,0.05578557131800196
0164,cdot_cos,P,T-P,120,24,20371,0.07853062654659208,-0.006630418187646633,0.31897626693107406,0.9996559593617466,839.0,2.7912902370228325,0.5633596876906577,6.171296831938201,-0.06443242659658552,0.38,0.999999999999942,-43.5636015129012,0.5960591974340408,120,2026-10-07 21:31:36.455244,25.0,0.4377622598652225,0.10616800606670508,0.17321389814524135
0164,cdot_cos,Q,P-Q,121,24,20500,-0.03176967343883775,-0.04346816737340018,-0.11030029998542984,0.05966405246483059,839.0,2.8061566403383367,0.5634325865479187,6.197759156890962,-0.014765008737051617,0.129,0.9999999999999385,681.3195669404051,0.6010263799794044,121,2026-10-07 21:31:36.584243,25.0,0.0346014496665165,0.3110383352330604,0.11524343655429574
0164,cdot_cos,R,Q-R,122,24,20530,0.12553456346598196,0.3108090923930833,0.1573042369048197,0.9807839422558042,839.0,2.871538127512962,0.564630534950867,6.236548820467984,-0.06582542839177527,0.03,0.9999999999999375,-42.6232211079025,0.6059935171012841,122,2026-10-07 21:31:36.614244,25.0,0.46038395504686125,1.3236529728994177,2.179382905820848
0164,cdot_cos,S,R-S,123,24,20582,7.424737011421511e-05,-0.007753486108959203,-0.12546031609586775,0.04162620840348679,839.0,2.8855758187123017,0.5646813614165068,6.2626199754350855,-0.014330315961713108,0.052,0.9999999999999347,1013.1554846837543,0.6109606652019915,123,2026-10-07 21:31:36.666244,25.0,0.027503590125877445,0.2480963291284051,0.2699555999873004
0164,cdot_cos,T,S-T,124,24,20792,-0.27424040723424825,0.005495036182638418,-0.27431465460436244,0.0010500505560482527,839.0,2.8973401457423162,0.5646826435324857,6.288040525210519,-0.012063377976928169,0.21,0.9999999999999324,1768.1224025110644,0.615927889039586,124,2026-10-07 21:31:36.876243,25.0,0.828681823707322,0.1879622560127446,0.056020604904831
0164,cdot_cos,P,T-P,125,25,21210,0.05722735408429648,0.0007216936260789134,0.3314677613185447,0.9997482177287607,879.0,2.9645199662376545,0.5659029452636738,6.326988027860281,-0.06978267493629288,0.418,0.9999999999999318,-47.299201078053386,0.6208952157582354,125,2026-10-07 21:31:37.294244,25.0,0.4373028396253272,0.10108600169480894,0.1607172739122924
0164,cdot_cos,Q,P-Q,126,25,21359,-0.03132139799022581,-0.05030247149310779,-0.08854875207452229,0.09852528295229722,879.0,2.9818480431591765,0.5660231631266376,6.3535950667526775,-0.01825775783623062,0.149,0.9999999999999278,428.5961822128041,0.6258624114166658,126,2026-10-07 21:31:37.443244,25.0,0.059481883130481805,0.2788709643890448,0.11629581826524867
0164,cdot_cos,R,Q-R,127,25,21386,0.10027172336831197,0.2959349028188009,0.1315931213585378,0.9640781991635842,879.0,3.04762351362559,0.5671990930283362,6.392009992051235,-0.07022818306517313,0.027,0.9999999999999271,-44.19517281929301,0.6308295463497462,127,2026-10-07 21:31:37.470243,25.0,0.4771032510516173,1.5200386211246346,2.436128535793085
0164,cdot_cos,S,R-S,128,25,21441,0.0009636133491632976,-0.011579869950834801,-0.09930811001914867,0.07707971280171946,879.0,3.0639301286999068,0.5672930781555463,6.418189359790793,-0.017646611038727146,0.055,0.9999999999999243,559.4669453271476,0.6357966962349153,128,2026-10-07 21:31:37.525243,25.0,0.05080817444372892,0.2648684628110288,0.29648391044212663
0164,cdot_cos,T,S-T,129,25,21651,-0.16465983904310474,-0.0006794772835420342,-0.16562345239226806,0.01566424525980872,879.0,3.076759044534803,0.5673121773505081,6.443428563421916,-0.01394917078666568,0.21,0.9999999999999212,193.59141887699096,0.6407639265714636,129,2026-10-07 21:31:37.735244,25.0,0.7671559018590703,0.1933677449434026,0.06109007540426764
0164,cdot_cos,P,T-P,130,26,22089,0.07228746012249339,-0.005202427696351228,0.23694729916559815,0.9973318081266903,841.0,3.145144581576136,0.5685277958518324,6.482215091506661,-0.07528987834516196,0.438,0.9999999999999208,-50.46049191557153,0.6457312787495322,130,2026-10-07 21:31:38.173243,25.0,0.4427601206233495,0.09721174384771442,0.15613136310806594
0164,cdot_cos,Q,P-Q,131,26,22221,-0.0239935007900904,-0.03656816396660638,-0.09628096091258379,0.08263864543364724,841.0,3.161916532145401,0.5686284848519441,6.508251433265208,-0.01871695627908711,0.132,0.9999999999999163,561.8580182876007,0.6506984693032276,131,2026-10-07 21:31:38.305243,25.0,0.04867697054681592,0.3191679973439017,0.12706023158534052
0164,cdot_cos,R,Q-R,132,26,22251,0.11719498223823661,0.32580921879550784,0.141188483028327,0.9715214472388328,841.0,3.229404932874926,0.5698117834618428,6.546639943525285,-0.0762700903849731,0.03,0.9999999999999156,-48.63787857471662,0.6556656050898838,132,2026-10-07 21:31:38.335244,25.0,0.47020035870998245,1.3767492780250172,2.249613357650837
0164,cdot_cos,S,R-S,133,26,22301,4.301035885171639e-05,-0.004938474948876589,-0.11715197187938489,0.05074813492081211,841.0,3.244521488826902,0.5698735721410655,6.5721036133872355,-0.017303732741065562,0.05,0.9999999999999117,954.3229987388785,0.6606327525365026,133,2026-10-07 21:31:38.385243,25.0,0.03311646426653786,0.27351165276706446,0.30233111903951837
0164,cdot_cos,T,S-T,134,26,22530,-0.2745265932328829,-0.011408303086344298,-0.27456960359173466,0.0010433860673736103,841.0,3.2567560981516324,0.5698748424988551,6.596779209094931,-0.014063962142345603,0.229,0.9999999999999079,2550.2819954891,0.6656000000857502,134,2026-10-07 21:31:38.614244,25.0,0.7942478319912565,0.1791764612567169,0.05342624159270973
0164,cdot_cos,P,T-P,135,27,22930,0.05732496554860606,-0.00011907331652228335,0.331851558781489,0.9997506214111951,819.0,3.326584308082478,0.5710916474960731,6.635486335679143,-0.08122543725464734,0.4,0.9999999999999072,-55.19493695855504,0.6705673464664919,135,2026-10-07 21:31:39.014244,25.0,0.4374238099426497,0.10994691437557158,0.17457052482711455
0164,cdot_cos,Q,P-Q,136,27,23072,-0.030269785527525742,-0.053875949836609004,-0.08759475107613181,0.10066397266529173,819.0,3.3447136296520896,0.5712141191170367,6.661445187870873,-0.02136858844254836,0.142,0.9999999999999027,488.7405616187868,0.6755345463920026,136,2026-10-07 21:31:39.156243,25.0,0.060739525162715954,0.3012833454943542,0.12767127865923555
0164,cdot_cos,R,Q-R,137,27,23101,0.08648956651481482,0.3148094023085692,0.11675935204234056,0.948776935080294,819.0,3.4121487782028748,0.5723680067795235,6.699396868227364,-0.08044914946640451,0.029,0.9999999999999021,-51.201310963433244,0.6805016809439401,137,2026-10-07 21:31:39.185244,25.0,0.47980096802171046,1.485096041332156,2.3253499500270736
0164,cdot_cos,S,R-S,138,27,23160,0.001808668283615002,-0.009436362059023385,-0.08468089823119981,0.1074533044941009,819.0,3.4308492000493547,0.5724986404307025,6.725337361957588,-0.02259198079581303,0.059,0.9999999999998977,442.89636053494786,0.6854688340216192,138,2026-10-07 21:31:39.244244,25.0,0.07723053091888679,0.26617951511587,0.31695630248271034
0164,cdot_cos,T,S-T,139,27,23370,-0.208871858144723,-0.039551599527602996,-0.210680526428338,0.005132518034176355,819.0,3.4435579609865474,0.5725048799075255,6.749734108556621,-0.015423870089581973,0.21,0.9999999999998932,1148.8320110142226,0.6904360780202232,139,2026-10-07 21:31:39.454243,25.0,0.6282975730378553,0.19941656554221823,0.0605179092247274
0164,cdot_cos,P,T-P,140,28,23749,0.05003884389509749,-0.001109770783537096,0.2589107020398205,0.9984574390711445,818.0,3.5146041575770863,0.5737182391928095,6.788326910850001,-0.08721181128139843,0.379,0.9999999999998931,-59.16462012734704,0.6954034269473469,140,2026-10-07 21:31:39.833244,25.0,0.43904879972229666,0.11800410951712277,0.18745698308849315
0164,cdot_cos,Q,P-Q,141,28,23880,-0.038056625107761456,-0.05567523526805526,-0.08809546900285894,0.09953636507418927,818.0,3.5330050760005265,0.5738391507688386,6.8139636122529,-0.022876499718409177,0.131,0.9999999999998879,532.0856255111404,0.7003706243896177,141,2026-10-07 21:31:39.964243,25.0,0.060067385282630247,0.3374327093294392,0.140465026133131
0164,cdot_cos,R,Q-R,142,28,23909,0.10302092954701875,0.3034790084375672,0.1410775546547802,0.9714446189871867,818.0,3.6030115274213994,0.5750187453088004,6.852140422567506,-0.08806233833911349,0.029,0.9999999999998869,-55.26122443972839,0.705337758457186,142,2026-10-07 21:31:39.993243,25.0,0.47700714992443793,1.4984435307396367,2.414015566236997
0164,cdot_cos,S,R-S,143,28,23959,0.0003837437825425161,-0.008839055646788885,-0.10263718576447622,0.07136357972575093,818.0,3.6199148007834254,0.5751053663471459,6.877261183344741,-0.021520740093303393,0.05,0.9999999999998821,768.1921103318487,0.7103049065920638,143,2026-10-07 21:31:40.043243,25.0,0.045412160067882595,0.2966724762965445,0.33806546724052033
0164,cdot_cos,T,S-T,144,28,24187,-0.24496665915790755,-0.028472357829039643,-0.24535040294045007,0.0021637203857176675,818.0,3.632678775051054,0.5751079925966719,6.901297175828097,-0.016317430398693735,0.228,0.9999999999998777,1981.270112825861,0.7152721696936514,144,2026-10-07 21:31:40.271244,25.0,0.7269624459580339,0.1867355769140655,0.05598234327907206
0164,cdot_cos,P,T-P,145,29,24567,0.0824223592180131,-0.00268751655119183,0.32738901837592066,0.9997211967721522,840.0,3.7050662238562393,0.5763209639944108,6.939824706471916,-0.09355603282146432,0.38,0.9999999999998772,-63.67718362259059,0.7202395342070088,145,2026-10-07 21:31:40.651244,25.0,0.4379780208479129,0.11727262377195323,0.19049328632943535
0164,cdot_cos,Q,P-Q,146,29,24702,-0.023310790290856205,-0.038507475224692694,-0.1057331495088693,0.06640138159329156,840.0,3.7218059691177383,0.5764014970369549,6.964687180237418,-0.021896709043353443,0.135,0.9999999999998714,889.8126969298851,0.7252067382423755,146,2026-10-07 21:31:40.786243,25.0,0.0379074725208648,0.32339724370569856,0.12399811304814086
0164,cdot_cos,R,Q-R,147,29,24733,0.10448781168561135,0.33719119810483716,0.12779860197646756,0.9606443628531507,840.0,3.792383479656778,0.5775661313140351,7.002618607118912,-0.0933369147807967,0.031,0.9999999999998701,-61.34132160058423,0.7301738730592534,147,2026-10-07 21:31:40.817244,25.0,0.46514718096257146,1.4127128350786466,2.276693888356116
0164,cdot_cos,S,R-S,148,29,24778,2.6864042298069885e-05,-0.0029741714746265124,-0.10446094764331328,0.068400447472351,840.0,3.8093941648926144,0.5776490236687886,7.027405094059743,-0.022757211836937078,0.045,0.9999999999998652,851.4621541852405,0.7351410180804017,148,2026-10-07 21:31:40.862243,25.0,0.04498521662722758,0.33187957452188105,0.37801522746303307
0164,cdot_cos,T,S-T,149,29,25008,-0.3461781096286894,-0.019623567347237122,-0.34620497367098746,0.0001742013823197708,840.0,3.822252641363747,0.5776492347723929,7.051108937150069,-0.017269899429175367,0.23,0.9999999999998601,25993.456738962723,0.7401082907890201,149,2026-10-07 21:31:41.092243,25.0,0.7277930617015476,0.1880337507294979,0.05590641943970785
0164,cdot_cos,P,T-P,150,30,25407,0.05249507331373024,0.00012947665570159253,0.3986731829424196,0.9999530710829169,860.0,3.8958896902281834,0.5788605447192052,7.089566310529432,-0.09994326970366824,0.399,0.9999999999998593,-68.25121059400033,0.7450756836529967,150,2026-10-07 21:31:41.491244,25.0,0.4372706332815851,0.11170639987754438,0.18455400717903817
0164,cdot_cos,Q,P-Q,151,30,25541,-0.07298458872071649,-0.08482540143684482,-0.12547966203444672,0.04160691826618478,860.0,3.9113943484660276,0.5789109254989515,7.113778119370329,-0.021285920425051865,0.134,0.999999999999853,1561.257084045387,0.7500428909835943,151,2026-10-07 21:31:41.625243,25.0,0.024840598585763946,0.33168224985304684,0.11570640476003129
0164,cdot_cos,R,Q-R,152,30,25574,0.10086619372657377,0.2938852658140774,0.17385078244729024,0.9872106362801516,860.0,3.9847805331888,0.5801058299879194,7.152026599205873,-0.10181755308788641,0.033,0.9999999999998518,-67.39587423627167,0.7550100266241523,152,2026-10-07 21:31:41.658243,25.0,0.4534181267904803,1.3789002771048855,2.22382377947795
0164,cdot_cos,S,R-S,153,30,25618,-0.00031718751331545885,-0.009863252089921216,-0.10118338123988922,0.07381004391615846,860.0,4.00240176675495,0.5801951309862023,7.176619024617683,-0.02472839843200202,0.044,0.9999999999998465,863.2507602166971,0.7599771709491578,153,2026-10-07 21:31:41.702244,25.0,0.04427061294330946,0.3609818459580638,0.4004825810488656
0164,cdot_cos,T,S-T,154,30,25847,-0.16113185780347794,-0.008131702494519612,-0.16081467029016247,0.017629987284320484,860.0,4.01654693563311,0.5802164603074198,7.200298521664304,-0.01992900256644299,0.229,0.9999999999998408,225.013999115509,0.7649444514808478,154,2026-10-07 21:31:41.931243,25.0,0.785979404341268,0.1938557208129786,0.06176929641117699
0164,cdot_cos,P,T-P,155,31,26267,0.0643644407203817,0.0003985302340155882,0.22549629852385963,0.9964505521584155,859.0,4.091187686887294,0.581421508612971,7.238641064637113,-0.10623999471747124,0.42,0.9999999999998401,-71.62450812421677,0.7699118765251881,155,2026-10-07 21:31:42.351244,25.0,0.4437849180786541,0.11086269753453165,0.17771607441472542
0164,cdot_cos,Q,P-Q,156,31,26414,-0.03040559032218662,-0.05023118388985946,-0.09477003104256831,0.0855477325153943,859.0,4.109671601562116,0.5815249199152763,7.263245684475125,-0.026609442651432492,0.147,0.9999999999998336,770.037223116622,0.7748790978740091,156,2026-10-07 21:31:42.498244,25.0,0.05015849160967591,0.3111480901006344,0.1257409161552511
0164,cdot_cos,R,Q-R,157,31,26441,0.09831805243698234,0.3057898160437365,0.12872364275916898,0.9615094289871917,859.0,4.182665225376881,0.5826867112276406,7.301045360382653,-0.1061704592846626,0.027,0.9999999999998319,-68.48133204862914,0.7798462282350531,157,2026-10-07 21:31:42.525243,25.0,0.47266397227684076,1.6915998523073095,2.7034675486949853
0164,cdot_cos,S,R-S,158,31,26495,0.001130330616086075,-0.010458470512990738,-0.09718772182089627,0.08093629727557297,859.0,4.201017993586711,0.5827844648259002,7.325488929117644,-0.02698667685439369,0.054,0.9999999999998257,810.034452337956,0.7848133802924308,158,2026-10-07 21:31:42.579243,25.0,0.05317427493067051,0.29757560300528413,0.339866077959817
0164,cdot_cos,T,S-T,159,31,26706,-0.1908112531604676,-0.007471890450615631,-0.19194158377655368,0.008174403010906193,859.0,4.2148033905014515,0.582794337380803,7.34875878343706,-0.020348192801279596,0.211,0.9999999999998197,672.41804360319,0.78978065545776,159,2026-10-07 21:31:42.790244,25.0,0.7216287961970494,0.2126421011451019,0.0653336346670169
0164,cdot_cos,P,T-P,160,32,27126,0.06163958092738145,0.000533046027184275,0.2524508340878491,0.9981875666240667,859.0,4.290752960269944,0.5839993874034667,7.387074723844752,-0.11320846785637065,0.42,0.9999999999998189,-77.05926999597003,0.7947480985531697,160,2026-10-07 21:31:43.210243,25.0,0.44031755695173364,0.11394756614667025,0.18083230897260102
0164,cdot_cos,Q,P-Q,161,32,27273,-0.025718887712183922,-0.0428470229177813,-0.08735846863956537,0.10120000613685365,859.0,4.3105193460646545,0.5841215041116002,7.411672969211167,-0.02979230821598935,0.147,0.9999999999998114,683.0855573763934,0.7997153248427807,161,2026-10-07 21:31:43.357243,25.0,0.060814764279969374,0.31870077180281575,0.13446520948782703
0164,cdot_cos,R,Q-R,162,32,27300,0.09935943026317115,0.31265935340596684,0.12507831797535507,0.957991138724544,859.0,4.384450987179972,0.5852769857745419,7.449361865576981,-0.1125544158933597,0.027,0.9999999999998098,-71.62563486007393,0.80468245431204,162,2026-10-07 21:31:43.384243,25.0,0.479358027270919,1.7106418492283526,2.7382089301969352
0164,cdot_cos,S,R-S,163,32,27356,0.00043541381824611334,-0.003996846027948793,-0.09892401644492503,0.07776558824091352,859.0,4.4028940059229855,0.5853707418173613,7.473515343545496,-0.028374301003766075,0.056,0.9999999999998039,897.8633521445017,0.8096496084905567,163,2026-10-07 21:31:43.440243,25.0,0.05146912485966178,0.2853697229712658,0.3293396204109606
0164,cdot_cos,T,S-T,164,32,27565,-0.3018483952048013,-0.008515364707022301,-0.3022838090230474,0.0005221177192789883,859.0,4.4164123961527535,0.5853713712740126,7.496413249483946,-0.020873473133020147,0.209,0.9999999999997969,11916.35334151796,0.8146168901784817,164,2026-10-07 21:31:43.649244,25.0,0.698131792573364,0.21713111693785347,0.064681292965397
0164,cdot_cos,P,T-P,165,33,27985,0.06841062448047229,-0.005793554968320454,0.3702590196852736,0.9999045178251672,878.0,4.493654812803008,0.5865763262796994,7.53471141084108,-0.12039299204114753,0.42,0.999999999999796,-82.59189632679148,0.819584351874719,165,2026-10-07 21:31:44.069243,25.0,0.4375246677338396,0.11380005994697108,0.18391051583393994
0164,cdot_cos,Q,P-Q,166,33,28113,-0.03250873407807221,-0.04028329729198518,-0.1009193585585445,0.07426254396351273,878.0,4.512004446508209,0.586665776693927,7.558661982987256,-0.028905438330441728,0.128,0.9999999999997877,1022.7739524807743,0.8245515669106974,166,2026-10-07 21:31:44.197243,25.0,0.04221145268596139,0.3720519722771598,0.14335651332188226
0164,cdot_cos,R,Q-R,167,33,28143,0.1392690620931173,0.294026191140639,0.1717777961711895,0.9865395134081237,878.0,4.588900117705961,0.5878535344372198,7.596744090057664,-0.12230709874064036,0.03,0.9999999999997862,-78.63696190375437,0.829518698161565,167,2026-10-07 21:31:44.227243,25.0,0.4659555290942838,1.541983823601667,2.5631890399250663
0164,cdot_cos,S,R-S,168,33,28195,-0.00035067903893810324,-0.0050029146727986595,-0.13961974113205539,0.029583932321806356,878.0,4.604523475924309,0.5878891366950529,7.619916339541738,-0.025101848039086043,0.052,0.9999999999997788,2730.311407693857,0.8344858494333539,168,2026-10-07 21:31:44.279244,25.0,0.02080766115059687,0.28230378539399853,0.30044919650669305
0164,cdot_cos,T,S-T,169,33,28423,-0.28482066304739195,0.04523126182664548,-0.28446998400845386,0.0008148025574255905,878.0,4.618259711386937,0.5878901172417058,7.642573765217577,-0.02214029779415262,0.228,0.9999999999997715,3020.305292211136,0.839453156060338,169,2026-10-07 21:31:44.507244,25.0,0.8747974621926052,0.20204789464355954,0.060246646765911446
0164,cdot_cos,P,T-P,170,34,28863,0.06790219887747481,-0.003080223630199425,0.3527228619248668,0.9998519883499474,899.0,4.696657315881772,0.589092827509294,7.68083306236812,-0.1275127866884287,0.44,0.9999999999997703,-87.61252957919596,0.8444206542965499,170,2026-10-07 21:31:44.947244,25.0,0.4376358886875065,0.11094084173912364,0.17817637385189852
0164,cdot_cos,Q,P-Q,171,34,28998,-0.027824206271941685,-0.040364284189475824,-0.0957264051494165,0.08369576010943187,899.0,4.715887652117366,0.58919345609249,7.704706642397233,-0.031603394754531014,0.135,0.9999999999997611,953.1028748279067,0.8493878796912804,171,2026-10-07 21:31:45.082243,25.0,0.04808517716854363,0.3576209471131534,0.14244693507846998
0164,cdot_cos,R,Q-R,172,34,29030,0.11982299157097463,0.30229843126740724,0.14764719784291633,0.9756644372788953,899.0,4.793214971602324,0.5903659584988393,7.742579437648328,-0.12827272789938396,0.032,0.9999999999997599,-82.44702323966833,0.8543550118387695,172,2026-10-07 21:31:45.114244,25.0,0.4706580628795713,1.4739096943730545,2.4164787339049365
0164,cdot_cos,S,R-S,173,34,29074,-0.00030061588085775567,-0.003172791085632192,-0.12012360745183238,0.047286463962848795,899.0,4.810217872557241,0.5904227589128996,7.765801405525913,-0.02848347464370144,0.044,0.999999999999752,1756.840243272316,0.8593221558421147,173,2026-10-07 21:31:45.158243,25.0,0.0300946244331816,0.3516603769023135,0.38642956715721644
0164,cdot_cos,T,S-T,174,34,29304,-0.27951426912181027,0.03022617959178302,-0.2792136532409525,0.0009291216461879094,899.0,4.824161084769727,0.5904238749479587,7.788228299780838,-0.02343309475693369,0.23,0.9999999999997441,4525.287844574615,0.8642894735945278,174,2026-10-07 21:31:45.388243,25.0,0.8061194194948708,0.20319510985772288,0.06062266179341768
0164,cdot_cos,P,T-P,175,35,29762,0.03462792242848935,-0.0023036986892981267,0.3141421915502996,0.9996117818299027,861.0,4.903687623091794,0.5916240389866474,7.8264529440395485,-0.13482777212125818,0.458,0.9999999999997423,-92.8162099291296,0.8692570090824537,175,2026-10-07 21:31:45.846244,25.0,0.4377095166546421,0.11307341501263747,0.1736387299608438
0164,cdot_cos,Q,P-Q,176,35,29893,-0.03393812898010696,-0.04527701939509103,-0.06856605140859631,0.15262604992247308,861.0,4.927736332921303,0.5918071907035232,7.851212310433721,-0.04120010371322888,0.131,0.9999999999997333,511.2027886232388,0.8742242351721689,176,2026-10-07 21:31:45.977243,25.0,0.10305313985420728,0.3932016708838276,0.18357793762984323
0164,cdot_cos,R,Q-R,177,35,29923,0.12947653270627998,0.30853744825520263,0.16341466168638694,0.9834611592005146,861.0,5.006706460863357,0.5929867336124027,7.889178124774531,-0.1365854329612992,0.03,0.999999999999732,-80.86634960882955,0.8791913645360563,177,2026-10-07 21:31:46.007244,25.0,0.49740209698316845,1.5930747209389327,2.632337598068446
0164,cdot_cos,S,R-S,178,35,29973,-0.00023209028934273164,-0.007534345564004746,-0.12970862299562272,0.03758952691017942,861.0,5.023320816177639,0.593031796539227,7.9120337599916954,-0.029011394160338135,0.05,0.9999999999997231,2387.1960030573773,0.8841585143045775,178,2026-10-07 21:31:46.057244,25.0,0.024526705472990486,0.31005075572241303,0.3322871062856514
0164,cdot_cos,T,S-T,179,35,30201,-0.2160691564297281,0.011153458543571151,-0.21583706614038536,0.0045145425396370415,861.0,5.037711536435598,0.5930372085398358,7.934299857542303,-0.025206135398925838,0.228,0.999999999999714,703.1149913848327,0.889125839982606,179,2026-10-07 21:31:46.285243,25.0,0.8598772981503667,0.20822859792689355,0.0631171941138541
0164,cdot_cos,P,T-P,180,36,30623,0.03276568142811986,0.0019606192776199416,0.24883483785784796,0.9980164289287119,859.0,5.118273056832303,0.5942330668527406,7.9724760289970105,-0.1423074506744904,0.422,0.999999999999713,-97.92239934438292,0.8940933618838833,180,2026-10-07 21:31:46.707244,25.0,0.4391670103940888,0.12613280857313627,0.1909040767694425
0164,cdot_cos,Q,P-Q,181,36,30770,-0.029251228433667426,-0.05113089879729057,-0.06201690986178728,0.1750252188159912,859.0,5.144167626871325,0.5944426734880017,7.997411233949456,-0.04621320654930504,0.147,0.9999999999997031,458.4503921140708,0.8990606090092375,181,2026-10-07 21:31:46.854244,25.0,0.12500924377001868,0.3527482300339993,0.17615353768042377
0164,cdot_cos,R,Q-R,182,36,30801,0.08805785616625766,0.30442582170275057,0.11730908459992509,0.9494407453832847,859.0,5.2219810364622985,0.5955791028276205,8.034804407859571,-0.1401488045469474,0.031,0.9999999999997009,-82.65854701459408,0.9040277385409519,182,2026-10-07 21:31:46.885243,25.0,0.5115775210228761,1.5963027789026192,2.5101099868055967
0164,cdot_cos,S,R-S,183,36,30853,0.00090103413266133,-0.008475576026997955,-0.08715682203359633,0.1016594660169748,859.0,5.243138399163287,0.5957007232280791,8.058493054102785,-0.03846638114293492,0.052,0.9999999999996919,836.0638759664813,0.9089948906811661,183,2026-10-07 21:31:46.937243,25.0,0.07111832943199276,0.34254458616246064,0.40687235963440177
0164,cdot_cos,T,S-T,184,36,31062,-0.24040573726101988,-0.020966875081482973,-0.2413067713936812,0.0023933397746583956,859.0,5.257605673423194,0.595703586360869,8.080519639735362,-0.026392554951147028,0.209,0.9999999999996824,4216.998329442617,0.9139622069696048,184,2026-10-07 21:31:47.146244,25.0,0.6328822378394113,0.23026972113106328,0.06922140794213882
0164,cdot_cos,P,T-P,185,37,31482,0.054083702159937616,-0.00014941378272237063,0.2944894394209575,0.9993656251686943,859.0,5.339391142596072,0.5968985477750364,8.118701118491131,-0.1504244094454757,0.42,0.9999999999996811,-103.79569835796514,0.9189297484692616,185,2026-10-07 21:31:47.566243,25.0,0.4384339689718187,0.1250934383492711,0.1947273075544701
0164,cdot_cos,Q,P-Q,186,37,31628,-0.021567222981208375,-0.03505699606660201,-0.07565092514114599,0.13109937627711576,859.0,5.362684161636582,0.5970552209437094,8.142750873717647,-0.04326117676064113,0.146,0.9999999999996704,683.9922469970022,0.9238970004209807,186,2026-10-07 21:31:47.712243,25.0,0.08398454694816149,0.35271680547522183,0.159541226304865
0164,cdot_cos,R,Q-R,187,37,31654,0.1070520305173266,0.32545286920829664,0.12861925349853498,0.9614127288987573,859.0,5.442384449794837,0.598203571192138,8.180314141156709,-0.14930933685372816,0.026,0.9999999999996687,-92.34827112913544,0.9288641238044223,187,2026-10-07 21:31:47.738244,25.0,0.4915173396035032,1.8972594329507837,3.065395698394403
0164,cdot_cos,S,R-S,188,37,31712,0.00038547384379316755,-0.0036389318488539188,-0.10666655667353343,0.06496933617591984,859.0,5.461341652150023,0.5982811344908121,8.203220962972717,-0.035836141162668235,0.058,0.9999999999996582,1462.9753714805206,0.9338312830569133,188,2026-10-07 21:31:47.796243,25.0,0.042153156214793874,0.2888381364720157,0.32684831646872886
0164,cdot_cos,T,S-T,189,37,31922,-0.29495449830727033,-0.0044357365793300605,-0.2953399721510635,0.0006210366045119835,859.0,5.47588967362559,0.598281875888347,8.225019304993273,-0.027585645250184625,0.21,0.9999999999996482,11128.30232618954,0.9387986097705461,189,2026-10-07 21:31:48.006243,25.0,0.7414952182818259,0.23208283344105174,0.06927629274079787
0164,cdot_cos,P,T-P,190,38,32341,0.0660889095827578,-0.0032195924319093393,0.36104340789002815,0.9998797821954291,878.0,5.558816442195265,0.5994749536900777,8.263195422633972,-0.1584895764978121,0.419,0.9999999999996467,-109.71952630225223,0.9437661715073952,190,2026-10-07 21:31:48.425244,25.0,0.4378203433343645,0.12440786194924237,0.19791591544074985
0164,cdot_cos,Q,P-Q,191,38,32475,-0.022765376697055202,-0.0345300508953092,-0.08885428627981301,0.09784893650903365,878.0,5.5801434619390555,0.5995916460334728,8.286525022543527,-0.04114130168876211,0.134,0.9999999999996348,1005.6210321508872,0.9487334156471146,191,2026-10-07 21:31:48.559244,25.0,0.0577101132340515,0.38339421879114893,0.15915686375963373
0164,cdot_cos,R,Q-R,192,38,32507,0.11773918072944296,0.3200246767685174,0.14050455742649817,0.9710445508379535,878.0,5.6615660928312925,0.600749076695486,8.32422704482217,-0.1583656533366806,0.032,0.9999999999996326,-101.27980491204393,0.9537005448865411,192,2026-10-07 21:31:48.591244,25.0,0.47701219175655835,1.5560771341010804,2.544457215382406
0164,cdot_cos,S,R-S,193,38,32551,-0.0001419437085549004,-0.0019878857782138393,-0.11788112443799786,0.049877159431595305,878.0,5.679732398521525,0.6008084972151317,8.34670205818268,-0.03564439750700836,0.044,0.9999999999996215,2065.3009526241904,0.9586676887445703,193,2026-10-07 21:31:48.635243,25.0,0.031970792289317804,0.3738243125832193,0.41287058386891234
0164,cdot_cos,T,S-T,194,38,32781,-0.303796832005182,0.013262995803312085,-0.30365488829662707,0.0005045332225261478,878.0,5.694462632338616,0.6008090982692101,8.368306074357346,-0.02898624705658688,0.23,0.9999999999996105,11077.456571252837,0.9636350480914351,194,2026-10-07 21:31:48.865243,25.0,0.7947717378200694,0.2146553562887114,0.06404449485691806
0164,cdot_cos,P,T-P,195,39,33219,0.053839205837993724,-0.006495157504894226,0.3576360378431757,0.9998690941061594,859.0,5.778473862414332,0.6019996507364034,8.406471396179226,-0.1665850741973096,0.438,0.999999999999609,-115.57560958662809,0.9686026534258334,195,2026-10-07 21:31:49.303244,25.0,0.4377981437652723,0.12250692908910363,0.1918064613600824
0164,cdot_cos,Q,P-Q,196,39,33350,-0.024984928257928796,-0.03531524417439768,-0.07882413409592252,0.12232409559767891,859.0,5.801778702220671,0.6021452205455607,8.430037048771515,-0.04663741619135358,0.131,0.9999999999995963,823.9871900655573,0.9735698990232696,196,2026-10-07 21:31:49.434243,25.0,0.07638881259230827,0.40582073511040206,0.17789954050640217
0164,cdot_cos,R,Q-R,197,39,33380,0.12828709819435705,0.30990714148857945,0.15327202645228585,0.9787890930736461,859.0,5.884798895013257,0.6033093599868184,8.467854399177213,-0.16749720187007325,0.03,0.9999999999995941,-103.81899400998384,0.9785370250324471,197,2026-10-07 21:31:49.464243,25.0,0.4859920500346453,1.6774189722335762,2.767339759752889
0164,cdot_cos,S,R-S,198,39,33430,-0.0001654976318430279,-0.005984032447997847,-0.12845259582620008,0.03874213647956666,859.0,5.902423840554685,0.6033554146364396,8.489967250758728,-0.03586398509598811,0.05,0.9999999999995823,2858.1960313867608,0.9835041760858604,198,2026-10-07 21:31:49.514244,25.0,0.025467669016530404,0.3254993731529243,0.3524989108285581
0164,cdot_cos,T,S-T,199,39,33658,-0.30026759786529517,0.01981063054451224,-0.30010210023345213,0.0005513702424261851,859.0,5.91734883232855,0.6033560700636688,8.511388810710066,-0.03045385433485969,0.228,0.9999999999995699,8254.357647128474,0.9884715437548743,199,2026-10-07 21:31:49.742244,25.0,0.837235307324369,0.21931727715094015,0.06546049023624792
0164,cdot_cos,P,T-P,200,40,34078,0.04749571237991673,-1.602766852772079e-05,0.3477633102452119,0.999832453614479,841.0,6.002432518935514,0.604543982708532,8.549547121148798,-0.17489811587993082,0.42,0.9999999999995685,-121.59501977663916,0.9934391500128672,200,2026-10-07 21:31:50.162244,25.0,0.4378510033570334,0.13050743045827679,0.2025802062070576
0164,cdot_cos,Q,P-Q,201,40,34213,-0.02657185712798044,-0.044665831192594256,-0.07406756950789717,0.13567468312474565,841.0,6.026975073913502,0.6047050846701449,8.573178539864589,-0.05090651413459516,0.135,0.9999999999995551,769.6467535464778,0.9984064057146728,201,2026-10-07 21:31:50.297244,25.0,0.08753884843055368,0.39675269202609503,0.18179670354065403
0164,cdot_cos,R,Q-R,202,40,34244,0.09816883524270949,0.3207179046547919,0.12474069237068992,0.9576501364162328,841.0,6.1095557457825596,0.605841563077849,8.610630831089628,-0.17264233944672153,0.031,0.9999999999995526,-107.11670761793243,1.0033735320925552,202,2026-10-07 21:31:50.328243,25.0,0.49404282048841974,1.666019064198846,2.663892640937335
0164,cdot_cos,S,R-S,203,40,34290,6.519495024190471e-05,-0.005916240131407085,-0.09810364029246758,0.07924928017817388,841.0,6.130268255893831,0.6059355600041973,8.633257204907448,-0.04366627085092817,0.046,0.9999999999995401,1372.1307026336315,1.00834067837506,203,2026-10-07 21:31:50.374244,25.0,0.052147595842482256,0.3918666919588589,0.45027195894067534
0164,cdot_cos,T,S-T,204,40,34520,-0.22436683863819623,-0.023518511712885565,-0.22443203358843813,0.00364480539837088,841.0,6.145607481442775,0.6059398828897112,8.654557007971485,-0.032433400058868675,0.23,0.999999999999527,2598.4659450217973,1.0133080597952024,204,2026-10-07 21:31:50.604243,25.0,0.7072744375929463,0.22054761681908028,0.06669228499540851
0164,cdot_cos,P,T-P,205,41,34919,0.06542452226303523,-0.003892567051606038,0.2897913609012315,0.9992866209530451,839.0,6.2317201596306075,0.6071244493348386,8.692703731621817,-0.18338809999265843,0.399,0.9999999999995252,-127.434556799019,1.0182756619189623,205,2026-10-07 21:31:51.003244,25.0,0.4390493853976599,0.13549570019864837,0.21582124859106006
0164,cdot_cos,Q,P-Q,206,41,35052,-0.02435724437464856,-0.03892808186206884,-0.0897817666376838,0.09582111402291525,839.0,6.253733050201296,0.6072379708881175,8.715509185165168,-0.0472840104933248,0.133,0.9999999999995107,1198.9273011876364,1.0232429206186513,206,2026-10-07 21:31:51.136243,25.0,0.05622251753189559,0.39803275535577803,0.16551045541871012
0164,cdot_cos,R,Q-R,207,41,35083,0.10420072503851288,0.31706943385391684,0.12855796941316144,0.9613558503258122,839.0,6.3375968725552445,0.6083762688583438,8.753015023558955,-0.18148133209679884,0.031,0.9999999999995082,-117.89296398094119,1.0282100462870873,207,2026-10-07 21:31:51.167244,25.0,0.47737389989896983,1.6787616999025032,2.7052845920628554
0164,cdot_cos,S,R-S,208,41,35129,-1.0962807351592237e-06,-0.003725481639174146,-0.10420182131924804,0.06881440349837112,839.0,6.357816275595251,0.6084577038503521,8.775306564796004,-0.04411321971082243,0.046,0.9999999999994947,1686.8438124482814,1.033177192784086,208,2026-10-07 21:31:51.213243,25.0,0.04442336483293088,0.3868721252447247,0.4395522400001454
0164,cdot_cos,T,S-T,209,41,35359,-0.25995094291076126,-0.014447605276397213,-0.2599498466300261,0.0015030628400729531,839.0,6.373189108077759,0.608459482508141,8.796401475120572,-0.033633302478185946,0.23,0.9999999999994807,5892.036848483859,1.0381445855735572,209,2026-10-07 21:31:51.443244,25.0,0.7322791653992994,0.22292413853797693,0.06683840209786078
0164,cdot_cos,P,T-P,210,42,35758,0.042354210980146106,-0.004944924437432662,0.3023051538909074,0.9994781606743877,840.0,6.460361379322721,0.6096415806706617,8.834550716054304,-0.192047097521744,0.399,0.999999999999479,-134.0106939222031,1.0431122094146077,210,2026-10-07 21:31:51.842243,25.0,0.43829218190510916,0.1424600650110324,0.21847687028812382
0164,cdot_cos,Q,P-Q,211,42,35889,-0.02563937403722162,-0.037892109793306206,-0.06799358501736773,0.15448621208422908,840.0,6.486872239956563,0.6098241794339417,8.858212978715795,-0.05891288455051809,0.131,0.9999999999994643,729.1079664488985,1.048079470996132,211,2026-10-07 21:31:51.973243,25.0,0.1043662610566924,0.4282382818983467,0.2023729819377286
0164,cdot_cos,R,Q-R,212,42,35918,0.11698777085860464,0.30761090584677925,0.14262714489582626,0.9724998542883242,840.0,6.572559809180087,0.6109729409848269,8.895905459071665,-0.19186171608246122,0.029,0.999999999999462,-115.73231314148745,1.0530465932255741,212,2026-10-07 21:31:52.002244,25.0,0.5001031474930056,1.8080091088463066,2.954743766328427
0164,cdot_cos,S,R-S,213,42,35968,7.503989082545395e-06,-0.007572033890435838,-0.11698026686952209,0.050955321769435354,840.0,6.591736768269649,0.6110330979154328,8.917739638621157,-0.04328120052437612,0.05,0.9999999999994472,2469.881924851798,1.0580137456295342,213,2026-10-07 21:31:52.052243,25.0,0.03229279486291147,0.3500999326668097,0.38353918179122815
0164,cdot_cos,T,S-T,214,42,36196,-0.21017746510182467,-0.01150110662517019,-0.21018496909090723,0.005196167513222235,840.0,6.607569802446768,0.6110392322268066,8.938738530005764,-0.035829001005344564,0.228,0.9999999999994328,1214.838808300431,1.0629811475586466,214,2026-10-07 21:31:52.280244,25.0,0.8122123115766811,0.22810088391277542,0.06944313235578756
0164,cdot_cos,P,T-P,215,43,36598,0.06636019601331086,-0.004679406840659313,0.27653766111513556,0.9990066578225973,858.0,6.695750771333874,0.6122179496155707,8.976882587375236,-0.2008968395909784,0.402,0.9999999999994307,-140.04021672972678,1.0679487984404024,215,2026-10-07 21:31:52.682244,25.0,0.43970346147676853,0.13800321290612597,0.21935564399777618
0164,cdot_cos,Q,P-Q,216,43,36728,-0.022023889793382524,-0.0313855923133867,-0.08838408580669338,0.0988915211559626,858.0,6.718524385623294,0.6123345595109403,8.999448863451741,-0.05231057852657246,0.13,0.9999999999994139,1274.2165713597826,1.0729160641543507,216,2026-10-07 21:31:52.812243,25.0,0.05839862309498002,0.42251620147833924,0.17518164838014819
0164,cdot_cos,R,Q-R,217,43,36758,0.12938494736805875,0.3305840795456726,0.15140883716144127,0.977800175127693,858.0,6.805604983718243,0.6134868573981833,9.037231321022052,-0.20143951285071504,0.03,0.999999999999412,-129.41873449143148,1.077883186943267,217,2026-10-07 21:31:52.842243,25.0,0.4769630768007987,1.7585794799490333,2.902686603164965
0164,cdot_cos,S,R-S,218,43,36808,-0.0001081568811932697,-0.0030101634713782153,-0.12949310424925203,0.03778493141982143,858.0,6.824039154420236,0.6135313600049377,9.058687565718719,-0.042973790882507724,0.05,0.9999999999993967,3560.818871641575,1.0828503397841822,218,2026-10-07 21:31:52.892244,25.0,0.025034586995248125,0.34099129733050404,0.36868341403986093
0164,cdot_cos,T,S-T,219,43,37037,-0.3104537344036956,0.02033723314500927,-0.31034557752250236,0.00042685491324408046,858.0,6.839704113451293,0.6135318627383382,9.079448045438184,-0.036609543676436936,0.229,0.999999999999381,12659.288601446975,1.0878177547612489,219,2026-10-07 21:31:53.121243,25.0,0.8404303427663218,0.22910591399456628,0.06840593463343823
0164,cdot_cos,P,T-P,220,44,37456,0.05702213159918206,-0.0072005050921938275,0.3674758660028777,0.9998976384103602,859.0,6.928969663029747,0.6147088375912365,9.117611239146274,-0.20998047157959715,0.419,0.9999999999993788,-147.30215133842964,1.092785453354654,220,2026-10-07 21:31:53.540244,25.0,0.43794908194009596,0.13588816386120195,0.21304427107029597
0164,cdot_cos,Q,P-Q,221,44,37587,-0.022588448734873527,-0.031612576051334246,-0.07961058033405559,0.12022888157788238,859.0,6.95357839476698,0.6148502684191641,9.140412345778934,-0.0583581970470874,0.131,0.9999999999993614,1072.0595838561633,1.0977527259377367,221,2026-10-07 21:31:53.671244,25.0,0.07441248239184377,0.43124975778886004,0.18785291402468102
0164,cdot_cos,R,Q-R,222,44,37616,0.13700160213655102,0.3249150394593407,0.15959005087142455,0.9818318726778118,859.0,7.041957099570428,0.6160045149587221,9.178266607710452,-0.21105301804367171,0.029,0.9999999999993586,-132.2896069110669,1.102719846244421,222,2026-10-07 21:31:53.700243,25.0,0.4850562837771436,1.8371133779247617,3.0475415449464864
0164,cdot_cos,S,R-S,223,44,37667,-0.00011831879877994742,-0.00423109913559741,-0.13711992093533096,0.03143182301139021,859.0,7.060130970686616,0.6160414448689433,9.199466625246032,-0.04372901219202966,0.051,0.9999999999993421,4530.853306965537,1.1076870009518172,223,2026-10-07 21:31:53.751244,25.0,0.021788253093758966,0.3335675598000851,0.3563504140429033
0164,cdot_cos,T,S-T,224,44,37895,-0.30345310485613264,0.022536468237744803,-0.3033347860573527,0.0005085849147685566,859.0,7.075980990670037,0.6160420424050612,9.220079109418972,-0.038229477124685184,0.228,0.9999999999993252,9203.686442416585,1.1126544262536,224,2026-10-07 21:31:53.979244,25.0,0.8660125489386115,0.2327148247109558,0.06951763150623076
0164,cdot_cos,P,T-P,225,45,38315,0.03262347015065458,-0.001714240227962787,0.3360765750067872,0.9997756131052342,859.0,7.166248930754812,0.6172159989156469,9.258246189289167,-0.2191022680018,0.42,0.9999999999993232,-154.07111698445527,1.1176221505908952,225,2026-10-07 21:31:54.399244,25.0,0.4380081958541625,0.1426609979960924,0.21492366686851247
0164,cdot_cos,Q,P-Q,226,45,38447,-0.027244777187581625,-0.04016156240645278,-0.0598682473382362,0.18291729882550198,859.0,7.195816228986755,0.6174306366063123,9.282024222017915,-0.07235546774749695,0.132,0.9999999999993056,683.69539291737,1.1225894304259811,226,2026-10-07 21:31:54.531244,25.0,0.13158042916889492,0.4478130455352294,0.223994683575321
0164,cdot_cos,R,Q-R,227,45,38477,0.1148505184458043,0.29888090349950147,0.1420952956333859,0.9721420185450306,859.0,7.284471574776113,0.6185705912571503,9.31971221021636,-0.2184891890466209,0.03,0.9999999999993028,-128.19257432012083,1.1275565512978964,227,2026-10-07 21:31:54.561243,25.0,0.5123038826343934,1.8114200301980077,2.9551781929786065
0164,cdot_cos,S,R-S,228,45,38527,-0.00018047459732032403,-0.007658175672397497,-0.11503099304312461,0.053364174796793166,859.0,7.304501430798635,0.6186331295647141,9.341161951791687,-0.049730541779245976,0.05,0.9999999999992857,2698.4843984679014,1.1325237048957528,228,2026-10-07 21:31:54.611244,25.0,0.03359221739876071,0.3650840405663569,0.4005971204504455
0164,cdot_cos,T,S-T,229,45,38756,-0.20228963507564407,-0.0009142417162022107,-0.20210916047832375,0.006351269678092525,859.0,7.3209799788327485,0.6186405724546991,9.361737181435982,-0.04101536080013623,0.229,0.9999999999992675,1170.940454134793,1.1374911443269584,229,2026-10-07 21:31:54.840243,25.0,0.8085718131942663,0.23491471024357108,0.07195872503979657
0164,cdot_cos,P,T-P,230,46,39174,0.03779619776113456,-0.002500042532130741,0.24008583283677865,0.9975326638841028,842.0,7.412092368090191,0.6198088618454792,9.399873500237588,-0.22817859940729968,0.418,0.9999999999992651,-160.2028059864322,1.1424588911410651,230,2026-10-07 21:31:55.258244,25.0,0.4403220573681113,0.14158522798713094,0.21797222310392858
0164,cdot_cos,Q,P-Q,231,46,39303,-0.032290885694123535,-0.04432580401128491,-0.0700870834552581,0.14777281416321217,842.0,7.43934522942999,0.6199818126711827,9.422914734698551,-0.06878732056333597,0.129,0.9999999999992465,921.5988313190197,1.1474261720500243,231,2026-10-07 21:31:55.387244,25.0,0.09855300602930411,0.45571015787995867,0.21126249100619626
0164,cdot_cos,R,Q-R,232,46,39334,0.1259091098561416,0.31033575831520804,0.15819999555026512,0.9812014838983626,842.0,7.52966558882322,0.6211294200133939,9.460768517306485,-0.2295070946719444,0.031,0.9999999999992429,-140.047704643415,1.1523932936161358,232,2026-10-07 21:31:55.418243,25.0,0.496445098641412,1.7686515985369324,2.9135599804267747
0164,cdot_cos,S,R-S,233,46,39386,4.610173722608901e-05,-0.005487015442150689,-0.12586300811891551,0.04122643703445674,842.0,7.54900162853928,0.6211776086397466,9.481871739831057,-0.0494910228409815,0.052,0.9999999999992247,3735.6547686877516,1.1573604509528221,233,2026-10-07 21:31:55.470243,25.0,0.02632205817570089,0.34227108185673594,0.37184691761653454
0164,cdot_cos,T,S-T,234,46,39596,-0.2752329962322017,-0.004884076734546485,-0.2752790979694278,0.0010250611228785733,842.0,7.5652617813363205,0.6211788067794586,9.5022156553297,-0.04171642173063496,0.21,0.9999999999992057,6488.893601039387,1.1623278713163627,234,2026-10-07 21:31:55.680243,25.0,0.8299682094865685,0.2584081427831921,0.07742929903352733
0164,cdot_cos,P,T-P,235,47,40016,0.05079560086572733,-0.0005256786366316009,0.32602859709792903,0.9997115542164098,879.0,7.6575330485082205,0.6223466108882995,9.540400104696063,-0.23813923916884477,0.42,0.9999999999992032,-168.19842981471677,1.1672956470679596,235,2026-10-07 21:31:56.100243,25.0,0.438312390653535,0.1402833181331154,0.2196934932664284
0164,cdot_cos,Q,P-Q,236,47,40162,-0.02824359348643549,-0.04447364627283021,-0.07903919435216282,0.12174804008336726,879.0,7.6830997685681375,0.6224887331414511,9.562860885127348,-0.06648507560725725,0.146,0.9999999999991827,1207.792303844066,1.1722629626399104,236,2026-10-07 21:31:56.246243,25.0,0.0756343258582512,0.39651155785268616,0.17511452095833566
0164,cdot_cos,R,Q-R,237,47,40190,0.1070126093355884,0.30743758536449556,0.13525620282202389,0.9671183164557716,879.0,7.773314423401205,0.6236169465375137,9.600468461772978,-0.23609031229475172,0.028,0.9999999999991791,-150.33081266311964,1.177230078087658,237,2026-10-07 21:31:56.274244,25.0,0.48753590317633166,1.9927440642394536,3.2219519583238334
0164,cdot_cos,S,R-S,238,47,40245,0.0005035931980754512,-0.007641902684987677,-0.10650901613751294,0.06520900458617276,879.0,7.794693436165547,0.6236929694813103,9.621874108293111,-0.056347981075105816,0.055,0.9999999999991597,2364.3169054402224,1.1821972411134896,238,2026-10-07 21:31:56.329243,25.0,0.04117751825619432,0.34507771202124976,0.38870932298803756
0164,cdot_cos,T,S-T,239,47,40455,-0.23336314221298254,0.0036262326700297175,-0.23386673541105799,0.0028811846617094526,879.0,7.811272971723542,0.6236963283269118,9.642118878443608,-0.043804548843247734,0.21,0.999999999999139,3734.4474024346982,1.187164672793235,239,2026-10-07 21:31:56.539244,25.0,0.750999725688216,0.26141016540829926,0.07895016932378765
0164,cdot_cos,P,T-P,240,48,40895,0.05093094969904841,9.34179618259496e-05,0.284294091912031,0.9991816095588392,879.0,7.904485705637033,0.6248604414395541,9.680304105274251,-0.24770275864157087,0.44,0.9999999999991369,-175.15326267179873,1.1921325093308062,240,2026-10-07 21:31:56.979244,25.0,0.4390434927188438,0.13566333504198405,0.2118471225306597
0164,cdot_cos,Q,P-Q,241,48,41042,-0.02652617298933605,-0.043211764648570614,-0.07745712268838446,0.12604079574514898,879.0,7.930656706560488,0.6250071851862877,9.702728829330376,-0.07006396584777219,0.147,0.9999999999991148,1210.5373942526944,1.1970998334910021,241,2026-10-07 21:31:57.126244,25.0,0.07923158849980869,0.398379466727171,0.17803401988745376
0164,cdot_cos,R,Q-R,242,48,41072,0.10537749891406137,0.31893290058742974,0.1319036719033974,0.9643461027610505,879.0,8.02160926885482,0.62612916906707,9.74029218098606,-0.24500061885627406,0.03,0.9999999999991109,-155.91726049267353,1.202066951175548,242,2026-10-07 21:31:57.156243,25.0,0.48966913455746436,1.879066829180731,3.0317520764777526
0164,cdot_cos,S,R-S,243,48,41125,0.00041730928101880305,-0.00597938468911553,-0.10496018963304257,0.067609403664943,879.0,8.043400716311332,0.6262077796035919,9.761621411459206,-0.05910990744472197,0.053,0.9999999999990905,2364.7047792343324,1.207034111150607,243,2026-10-07 21:31:57.209243,25.0,0.04307417231342303,0.3620880597888515,0.4111593859719112
0164,cdot_cos,T,S-T,244,48,41353,-0.2884599890344116,0.006515081805087439,-0.2888772983154304,0.00072985652744233,879.0,8.059990603192439,0.6262086281831184,9.781699695606997,-0.0451080064067548,0.228,0.9999999999990681,16500.39931452389,1.2120015866149738,244,2026-10-07 21:31:57.437243,25.0,0.7331475273462883,0.24303355558152298,0.07276266175924107
0164,cdot_cos,P,T-P,245,49,41774,0.054209216377185614,-0.003558586424242127,0.34266920541159723,0.9998097022203154,859.0,8.154224017656507,0.6273703420908459,9.819907509765931,-0.2576597499495158,0.421,0.999999999999066,-182.96393124754297,1.2169694159646205,245,2026-10-07 21:31:57.858243,25.0,0.43826484329973026,0.14288226723590486,0.22383233839445968
0164,cdot_cos,Q,P-Q,246,49,41907,-0.025008846569945835,-0.03836989697667369,-0.07921806294713145,0.12127070810799247,859.0,8.180297472205071,0.6275111511243493,9.842136545215,-0.0718098738843573,0.133,0.9999999999990423,1319.871825273311,1.2219367214145747,246,2026-10-07 21:31:57.991244,25.0,0.07516403096659371,0.44530806999038536,0.196041011643341
0164,cdot_cos,R,Q-R,247,49,41938,0.11484555162476455,0.3239695163850461,0.13985439819471038,0.970584021318233,859.0,8.27267596427395,0.6286373281439657,9.879819926414793,-0.25595169031969256,0.031,0.9999999999990381,-163.51054339402415,1.22690383985504,247,2026-10-07 21:31:58.022244,25.0,0.48702504228145616,1.8271719322681446,2.979951357060586
0164,cdot_cos,S,R-S,248,49,41984,-0.0001598482321906013,-0.004464612346061272,-0.11500539985695515,0.053396505951102846,859.0,8.293582132005696,0.628699244154844,9.900774404790688,-0.058319274806161156,0.046,0.9999999999990159,3191.9436137743855,1.2318709872613964,248,2026-10-07 21:31:58.068243,25.0,0.033749118576960835,0.41072485310310747,0.4544819072118871
0164,cdot_cos,T,S-T,249,49,42214,-0.24393476057489308,-0.005074141689182576,-0.2437749123427025,0.002250448401572173,859.0,8.310462650759435,0.628701853573369,9.920756741956597,-0.04719671233023572,0.23,0.9999999999989929,4262.467813888718,1.2368384793456408,249,2026-10-07 21:31:58.298244,25.0,0.7900461440610537,0.24355591392309095,0.07339355979886557
0164,cdot_cos,P,T-P,250,50,42633,0.04743678210046106,-0.0006969586726582605,0.29137154267535414,0.9993142343233419,820.0,8.405617852410318,0.6298598251038326,9.958967268814154,-0.2674985535384386,0.419,0.9999999999989898,-190.2480634562789,1.2418063314671561,250,2026-10-07 21:31:58.717243,25.0,0.43886530374555943,0.14631024901933293,0.2271007199305078
0164,cdot_cos,Q,P-Q,251,50,42767,-0.0267171194562446,-0.04636039607204903,-0.07415390155670566,0.13542178443696148,820.0,8.433070639437636,0.6300166327551405,9.98134995115229,-0.07772725880075719,0.134,0.999999999998965,1210.2170599129931,1.2467736450650726,251,2026-10-07 21:31:58.851244,25.0,0.08702999279149085,0.4450184801107175,0.20487154497998683
0164,cdot_cos,R,Q-R,252,50,42798,0.09237394525367115,0.3250444456427139,0.11909106470991575,0.9515369384833278,820.0,8.52488280507999,0.6311176618540139,10.018691718571871,-0.26146657126263456,0.031,0.9999999999989609,-166.87961530707562,1.251740762489153,252,2026-10-07 21:31:58.882244,25.0,0.49523354145132104,1.86912302927804,2.9616827626565825
0164,cdot_cos,S,R-S,253,50,42843,0.00022963760173920443,-0.00550429077254522,-0.09214430765193195,0.09082461399960712,820.0,8.548956267252874,0.631222684412829,10.040220868914831,-0.06901778074190512,0.045,0.9999999999989377,1832.4519292985399,1.2567079080403452,253,2026-10-07 21:31:58.927244,25.0,0.061519913525099425,0.4576449578826451,0.5349658260640983
0164,cdot_cos,T,S-T,254,50,43073,-0.23225818340762727,-0.04245883347159277,-0.23248782100936646,0.002981937810323771,820.0,8.566070851289428,0.6312261322843074,10.060098587899464,-0.04918510324798398,0.23,0.9999999999989138,5752.151035387038,1.2616754135842168,254,2026-10-07 21:31:59.157243,25.0,0.6681615526155109,0.246059725062802,0.07441123494153755
0164,cdot_cos,P,T-P,255,51,43453,0.0378471983690716,0.0024818756280806857,0.27010538177669885,0.9988335632173542,838.0,8.662143740781763,0.6323802795335114,10.098312891734796,-0.2775636187032235,0.38,0.9999999999989105,-197.8764110149213,1.2666432164582488,255,2026-10-07 21:31:59.537244,25.0,0.4392014841216213,0.16686999512274375,0.25282339340088233
0164,cdot_cos,Q,P-Q,256,51,43600,-0.024628041242948668,-0.04289486222169042,-0.06247523961202027,0.17337690282473808,838.0,8.692892047582713,0.6325804616876914,10.121297351863921,-0.0894682917230985,0.147,0.999999999998886,939.6208555681017,1.2716105627052952,256,2026-10-07 21:31:59.684243,25.0,0.12216672151227388,0.4199695533368888,0.20917215510850326
0164,cdot_cos,R,Q-R,257,51,43627,0.09435756954127855,0.3266492874527403,0.11898561078422722,0.9514152200643747,838.0,8.785614789462809,0.6336781570270746,10.15864372404072,-0.27137287348628475,0.027,0.9999999999988812,-165.71499872214054,1.2765776713613866,257,2026-10-07 21:31:59.711244,25.0,0.5115487833702401,2.162915036417885,3.4341756251887157
0164,cdot_cos,S,R-S,258,51,43682,0.0006858494309863325,-0.00462776291576923,-0.09367172011029222,0.08772032283748152,838.0,8.80968945954928,0.6337792947115964,10.180012931075256,-0.07092225221998916,0.055,0.9999999999988576,1981.9577857063352,1.281544837405148,258,2026-10-07 21:31:59.766243,25.0,0.059229050280416,0.3744130495988106,0.43772127429946295
0164,cdot_cos,T,S-T,259,51,43892,-0.29115815281422674,-0.03094004389224726,-0.29184400224521306,0.0006777188681547635,838.0,8.826800224918678,0.6337800760458381,10.199735146499952,-0.050525041332632976,0.21,0.9999999999988312,26105.614985659533,1.286512316630605,259,2026-10-07 21:31:59.976243,25.0,0.6678411175496887,0.2719474910894991,0.08147983509237479
0164,cdot_cos,P,T-P,260,52,44291,0.0683261874724057,-0.003905028970544518,0.35948434028663245,0.9998750045861322,821.0,8.923907405806869,0.6349320520849608,10.23798199005712,-0.28821212690585074,0.399,0.9999999999988286,-206.32988664783227,1.2914801836975942,260,2026-10-07 21:32:00.375243,25.0,0.4383686964640682,0.15294097379238872,0.243376393203486
0164,cdot_cos,Q,P-Q,261,52,44422,-0.020860726047479898,-0.03262194791980643,-0.08918691351988559,0.09711732458562919,821.0,8.948847122005004,0.6350438608690021,10.259458191740931,-0.07451982601180397,0.131,0.9999999999988008,1911.2299872179572,1.296447504747212,261,2026-10-07 21:32:00.506243,25.0,0.05683574110471772,0.45874041628096673,0.1903795129628648
0164,cdot_cos,R,Q-R,262,52,44452,0.12055080181195002,0.3576021861884439,0.14141152785942993,0.9716753197291349,821.0,9.044097394872482,0.6361617231085906,10.297187790956752,-0.2861466430420432,0.03,0.9999999999987966,-189.31386134675608,1.30141461854944,262,2026-10-07 21:32:00.536243,25.0,0.47731687631586583,1.9379217670521125,3.1750090955826002
0164,cdot_cos,S,R-S,263,52,44502,0.00012527280762312097,-0.0029684654803838807,-0.1204255290043269,0.046947580991069306,821.0,9.06512242802813,0.636215696770441,10.317695491059125,-0.06356663881007828,0.05,0.9999999999987704,4123.86331780033,1.3063817750873825,263,2026-10-07 21:32:00.586244,25.0,0.030151448489405645,0.38248985952307635,0.42050066311297485
0164,cdot_cos,T,S-T,264,52,44730,-0.3788897567167754,-0.02334555959115178,-0.37901502952439853,7.671199655285904e-05,821.0,9.08234638082479,0.6362157849601957,10.33729371338576,-0.052184523123485926,0.228,0.9999999999987431,129063.92270376229,1.3113493041141808,264,2026-10-07 21:32:00.814244,25.0,0.8040346916434423,0.2527770966830031,0.07554365261692496
0164,cdot_cos,P,T-P,265,53,45112,0.03239810448152875,0.0019741491510915994,0.4112878611983041,0.9999657639291543,839.0,9.18038878411558,0.6373645873457651,10.375554736868573,-0.29852600439415977,0.382,0.9999999999987401,-214.43329537358545,1.3163171611185422,265,2026-10-07 21:32:01.196243,25.0,0.43815055024564964,0.17018810649344626,0.2566555059968338
0164,cdot_cos,Q,P-Q,266,53,45258,-0.027946917758125148,-0.047845611195471684,-0.0603450222396539,0.18114257501313447,839.0,9.212370094185783,0.6375725242199918,10.398504508047278,-0.09804788125592127,0.146,0.9999999999987134,964.1297335250888,1.3212845207555868,266,2026-10-07 21:32:01.342243,25.0,0.1294195110005692,0.435190643718431,0.21905006897398932
0164,cdot_cos,R,Q-R,267,53,45285,0.09761769286594592,0.33464832001668743,0.12556461062407107,0.9584776841292523,839.0,9.307464452081362,0.6386719200165594,10.435996600537498,-0.2931673710062598,0.027,0.9999999999987089,-177.47883915830693,1.326251627167004,267,2026-10-07 21:32:01.369244,25.0,0.513987343295718,2.2074254679778824,3.5220132553918297
0164,cdot_cos,S,R-S,268,53,45341,0.0011641443229549386,-0.008019498987544678,-0.09645354854299099,0.08231213935952929,839.0,9.331571069456588,0.6387662664161136,10.457065901872344,-0.07478843151158665,0.056,0.9999999999986822,2314.6504850907554,1.3312187973398266,268,2026-10-07 21:32:01.425244,25.0,0.053936053099069424,0.37150568881237434,0.43047531027189706
0164,cdot_cos,T,S-T,269,53,45551,-0.2636265175286929,-0.03455458784154889,-0.26479066185164785,0.0013319657772844712,839.0,9.349073089228348,0.6387677930309369,10.476582242618859,-0.05441943570211131,0.21,0.9999999999986533,13342.590087659953,1.336186301674032,269,2026-10-07 21:32:01.635243,25.0,0.6877730644118871,0.277234931273815,0.08334295129409378
0164,cdot_cos,P,T-P,270,54,45951,0.03744243374645218,0.0024054894254850116,0.3010689512751451,0.999461790213756,819.0,9.44800974059159,0.63991252082574,10.514847339614853,-0.30911531663726055,0.4,0.9999999999986507,-222.49471192315465,1.3411542244748258,270,2026-10-07 21:32:02.035244,25.0,0.4386949326981461,0.16291314570453963,0.24734162840810647
0164,cdot_cos,Q,P-Q,271,54,46098,-0.025943615246659793,-0.048488359232101805,-0.06338604899311198,0.1701377634522504,819.0,9.47940360579198,0.6401072291453832,10.537506962898213,-0.09874299195226091,0.147,0.9999999999986215,1080.4485656828424,1.3461215943134877,271,2026-10-07 21:32:02.182244,25.0,0.11877743255895412,0.4286236404725513,0.21356370884618447
0164,cdot_cos,R,Q-R,272,54,46125,0.08536798145797009,0.33650763968703695,0.11131159670462988,0.9417387074126276,819.0,9.57402509089052,0.6411841343651845,10.57469182923252,-0.29919995678234607,0.027,0.9999999999986163,-186.14169672895684,1.3510886994986204,272,2026-10-07 21:32:02.209243,25.0,0.5117205603478389,2.2441256916110977,3.5044994480941094
0164,cdot_cos,S,R-S,273,54,46180,0.0014909756613459741,-0.00777746735380112,-0.08387700579662412,0.1093960402446005,819.0,9.600586393138979,0.6413091398920762,10.596178180392185,-0.08450999712311963,0.055,0.9999999999985892,1717.4437402700337,1.3560558684691797,273,2026-10-07 21:32:02.264243,25.0,0.07883414781069656,0.40500489923680694,0.4829327681537876
0164,cdot_cos,T,S-T,274,54,46391,-0.209213695059311,-0.04227031230925954,-0.210704670720657,0.005129436829920424,819.0,9.61857562980657,0.6413150007662368,10.615664391741836,-0.057368874558125456,0.211,0.9999999999985589,4630.900070707526,1.3610233881556066,274,2026-10-07 21:32:02.475244,25.0,0.6230687603485068,0.27896057356114307,0.0852570458179642
0164,cdot_cos,P,T-P,275,55,46770,0.036735716166571515,0.002040743998889252,0.2459494112258825,0.9978683718124861,819.0,9.718307755181781,0.6424543567239691,10.653912652935562,-0.3195505224677314,0.379,0.9999999999985558,-230.11390437755497,1.365991291437403,275,2026-10-07 21:32:02.854244,25.0,0.440224657917173,0.17378019838468214,0.26314544953881774
0164,cdot_cos,Q,P-Q,276,55,46903,-0.025635146921856915,-0.04518495164715922,-0.06237086308842843,0.17375119579555484,819.0,9.750301020182158,0.642652580017598,10.67655933134527,-0.10318219065454395,0.133,0.9999999999985261,1091.5383749920024,1.3709586376656693,276,2026-10-07 21:32:02.987243,25.0,0.12282997015719847,0.480653586276274,0.24055086466448972
0164,cdot_cos,R,Q-R,277,55,46936,0.0889612511951144,0.32143727648459264,0.11459639811697131,0.9460842995634389,819.0,9.84616160913127,0.6437310583798432,10.713832980821886,-0.3107738022679086,0.033,0.9999999999985211,-192.48565282402132,1.3759257557412354,277,2026-10-07 21:32:03.020243,25.0,0.5127417440692079,1.8444253528215342,2.9048663317912653
0164,cdot_cos,S,R-S,278,55,46980,0.00016682610957744824,-0.004238493761396288,-0.08879442508553695,0.09798112149537164,819.0,9.87203309346838,0.6438426678330206,10.735015497919143,-0.08438292032522281,0.044,0.9999999999984921,2028.4203129546984,1.3808929003839976,278,2026-10-07 21:32:03.064243,25.0,0.06836465359448833,0.497748198755083,0.5879882803888524
0164,cdot_cos,T,S-T,279,55,47210,-0.24273618343038023,-0.043658126835113366,-0.24290300953995766,0.0022999271865261008,819.0,9.889963450621718,0.6438452874726496,10.754349509343577,-0.05861172652415768,0.23,0.9999999999984602,9837.68664811477,1.3858604778572547,279,2026-10-07 21:32:03.294244,25.0,0.6442338636180212,0.25803699026482096,0.07795807457972954
0164,cdot_cos,P,T-P,280,56,47589,0.04753843644448277,-0.0060940235023094055,0.290274619874863,0.999295181731558,819.0,9.990730108990197,0.6449826781898708,10.792637688574748,-0.3308949720086875,0.379,0.9999999999984568,-239.39288527847125,1.3908284079398308,280,2026-10-07 21:32:03.673243,25.0,0.4391698261600783,0.17007640671217797,0.2658750880434825
0164,cdot_cos,Q,P-Q,281,56,47718,-0.030664739123518858,-0.04400828314104335,-0.07820317556800163,0.12400055790820524,819.0,10.018881366909548,0.6451237008733478,10.81425744332092,-0.09302524743897614,0.129,0.9999999999984249,1686.7479663896297,1.3957957518950632,281,2026-10-07 21:32:03.802243,25.0,0.07753352985662584,0.4941671601127625,0.21822680557636454
0164,cdot_cos,R,Q-R,282,56,47748,0.12011491753869162,0.3277272745592859,0.1507796566622105,0.9774561563135605,819.0,10.11822523629929,0.6462344527751499,10.852135586869913,-0.3299042832672853,0.03,0.9999999999984199,-213.26007674980664,1.4007628621859598,282,2026-10-07 21:32:03.832243,25.0,0.4877152618110242,2.0206952302035104,3.3114623129913907
0164,cdot_cos,S,R-S,283,56,47799,0.0002285959009730747,-0.005687268670068616,-0.11988632163771855,0.047554428656018576,819.0,10.140123080721759,0.6462884520767399,10.872268329541603,-0.07315188061766156,0.051,0.9999999999983884,4754.735618602179,1.4057300238865271,283,2026-10-07 21:32:03.883244,25.0,0.029901287121480595,0.3908936895592224,0.42936949847978223
0164,cdot_cos,T,S-T,284,56,48027,-0.28117215774245863,-0.02703592300036922,-0.2814007536434317,0.0008797269741785553,819.0,10.15809639263433,0.6462894509946511,10.891477192496673,-0.06015970198284928,0.228,0.9999999999983549,13006.252555477386,1.4106976110987095,284,2026-10-07 21:32:04.111244,25.0,0.805766334596933,0.2624514471238085,0.07883031540601661
0164,cdot_cos,P,T-P,285,57,48408,0.05304811174173665,-0.00029894931261033526,0.33422026948419525,0.9997649569355891,840.0,10.259800940610216,0.6474238432301462,10.92978643176809,-0.34192997775132594,0.381,0.9999999999983515,-248.3887556277955,1.415665572196809,285,2026-10-07 21:32:04.492243,25.0,0.4386478219512453,0.17095982425503226,0.2669410708028475
0164,cdot_cos,Q,P-Q,286,57,48554,-0.024437298249314884,-0.04139562651805382,-0.07748540999105154,0.12596291699238393,840.0,10.288367778716665,0.647566650659456,10.951360209016903,-0.09663648705365079,0.146,0.999999999998318,1717.652168961612,1.420632964385382,286,2026-10-07 21:32:04.638243,25.0,0.07899969103833979,0.4356569762857262,0.19566327470171005
0164,cdot_cos,R,Q-R,287,57,48580,0.10135247924528007,0.33713508155968347,0.12578977749459497,0.9587011378165434,840.0,10.387012777685648,0.6486526894865874,10.988888010947619,-0.33529076027020654,0.026,0.9999999999983123,-219.74745953320715,1.425600063708401,287,2026-10-07 21:32:04.664243,25.0,0.4907683622471136,2.366329765129943,3.7940384218839376
0164,cdot_cos,S,R-S,288,57,48638,0.000873826351595891,-0.005703132387601106,-0.10047865289368418,0.07502354244552945,840.0,10.411416926503422,0.6487376131842455,11.009456950856787,-0.08343328724152083,0.058,0.9999999999982798,2965.691320255726,1.4305672433402379,288,2026-10-07 21:32:04.722244,25.0,0.048866218803485,0.36645784341162413,0.42076118651335587
0164,cdot_cos,T,S-T,289,57,48848,-0.3004591984558833,-0.02647753182312486,-0.3013330248074792,0.000534670208750488,840.0,10.429521887521396,0.6487382183761029,11.028564339327888,-0.062024003897808086,0.21,0.9999999999982445,35376.0267619735,1.4355348003542008,289,2026-10-07 21:32:04.932243,25.0,0.7080947384142684,0.2873894303237558,0.08621410008558936
0164,cdot_cos,P,T-P,290,58,49248,0.037100858418300596,0.0020348513244677364,0.3375600568741839,0.9997837807598765,839.0,10.5321204872394,0.6498690330689838,11.066885696584565,-0.35299393095757825,0.4,0.999999999998241,-257.3099986156759,1.440502835696102,290,2026-10-07 21:32:05.332243,25.0,0.43854555443005644,0.16964800985888928,0.2564964992950092
0164,cdot_cos,Q,P-Q,291,58,49381,-0.024446461871016227,-0.039961522092301444,-0.06154732028931682,0.1767268083361241,839.0,10.565240295408508,0.6500687469150611,11.089357427097829,-0.11465744818077485,0.133,0.9999999999982071,1193.3898798611237,1.4454702032711495,291,2026-10-07 21:32:05.465244,25.0,0.1250948597685708,0.5002593778689608,0.24902111405344177
0164,cdot_cos,R,Q-R,292,58,49412,0.10689344871239422,0.33913869378939665,0.13133991058341044,0.9638583277230979,839.0,10.665189481752543,0.651157047875179,11.126991956127604,-0.34769453362714886,0.031,0.9999999999982012,-214.12926569606697,1.4504373140005313,292,2026-10-07 21:32:05.496243,25.0,0.5115882819845547,1.9950078899554107,3.2241673014205103
0164,cdot_cos,S,R-S,293,58,49458,-4.423080545219542e-07,-0.003611106249772217,-0.10689389102044873,0.06462493411471697,839.0,10.688930784585743,0.6512299602545225,11.14727678488488,-0.08306234685191669,0.046,0.9999999999981669,3629.454821774245,1.4554044641577928,293,2026-10-07 21:32:05.542243,25.0,0.04133910303484993,0.4568755029785613,0.5161152789826009
0164,cdot_cos,T,S-T,294,58,49686,-0.2863281293519976,-0.0241088922270528,-0.28632768704394307,0.0007778550720452482,839.0,10.707222028026571,0.6512308378179424,11.16629829330637,-0.06412044059631107,0.228,0.9999999999981306,21584.65795790815,1.4603720809740595,294,2026-10-07 21:32:05.770243,25.0,0.7442253834743056,0.267047223372002,0.08022475193345613
0164,cdot_cos,P,T-P,295,59,50087,0.03694004987810728,-0.0028232275164759373,0.32326817923010487,0.9996909518835846,800.0,10.810704318443376,0.6523578235756423,11.204629316883329,-0.36427459719142163,0.401,0.9999999999981265,-266.3335845589672,1.4653401479492658,295,2026-10-07 21:32:06.171244,25.0,0.4386832149249574,0.16800437716369573,0.25806057460549847
0164,cdot_cos,Q,P-Q,296,59,50217,-0.0319734583570764,-0.04833544302989469,-0.06891350823518368,0.15150601019954008,800.0,10.841961538511855,0.6525284730358486,11.226540584951518,-0.11069416498085832,0.13,0.9999999999980896,1485.972659415564,1.4703075149266387,296,2026-10-07 21:32:06.301243,25.0,0.10118343436675084,0.510737849923854,0.24044015437291605
0164,cdot_cos,R,Q-R,297,59,50245,0.11043261024650211,0.3301982482297979,0.14240606860357852,0.9723516566646628,800.0,10.943496159423578,0.6536227516693237,11.264346898617196,-0.36124466593265714,0.028,0.999999999998084,-228.96408034224658,1.4752746167428024,297,2026-10-07 21:32:06.329243,25.0,0.4997858153640136,2.234189083595644,3.626236461132962
0164,cdot_cos,S,R-S,298,59,50297,0.0005969429714494083,-0.007731576064293951,-0.1098356672750527,0.060319092320122156,800.0,10.967076127193211,0.653690581051108,11.28446540801436,-0.0843680244332762,0.052,0.999999999998048,4081.9573202052698,1.4802417829718002,298,2026-10-07 21:32:06.381243,25.0,0.037561629130376674,0.40595313586290804,0.45346091864679067
0164,cdot_cos,T,S-T,299,59,50525,-0.23232497944297228,-0.03951711293189129,-0.2329219224144217,0.0029498461401500546,800.0,10.98571528555332,0.6536938980204084,11.303440589723364,-0.06681825963644587,0.228,0.9999999999980097,5290.903595175412,1.4852094147522812,299,2026-10-07 21:32:06.609244,25.0,0.7690115921378295,0.2696361450854865,0.08175069456188298
0164,cdot_cos,P,T-P,300,60,50887,0.04940694134908609,-0.0008091209239248141,0.2817319207920584,0.9991275200469396,819.0,11.090030209352193,0.6548165108651764,11.34177134461118,-0.37547024858318656,0.362,0.9999999999980049,-274.9407245652233,1.4901774069683817,300,2026-10-07 21:32:06.971244,25.0,0.4395335913054962,0.1859554536286556,0.28816277292506226
0164,cdot_cos,Q,P-Q,301,60,51020,-0.024051043361687674,-0.04104924714781922,-0.07345798471077376,0.13747173135678256,819.0,11.120347033980467,0.654970838480931,11.363336494070577,-0.10976445529278815,0.133,0.9999999999979672,1721.6995933705991,1.4951447893031304,301,2026-10-07 21:32:07.104243,25.0,0.08886022279303457,0.4920523998964056,0.2279460498366475
0164,cdot_cos,R,Q-R,302,60,51050,0.09479073900024282,0.32440686803023405,0.11884178236193049,0.9512487408212876,819.0,11.220916147724637,0.6560378268853568,11.400739201924402,-0.36572611136016536,0.03,0.9999999999979603,-239.8916942355204,1.5001118954866224,302,2026-10-07 21:32:07.134243,25.0,0.49664861132621213,2.1091958924286835,3.352303791472326
0164,cdot_cos,S,R-S,303,60,51096,0.00016072665007539532,-0.0045637819427618055,-0.09463001235016742,0.08582196926189142,819.0,11.246898787526188,0.6561340137308371,11.421273295693078,-0.09501020491156895,0.046,0.9999999999979237,2814.4795174102655,1.505079046279243,303,2026-10-07 21:32:07.180243,25.0,0.057882797559929006,0.4888673373366722,0.5648399956858966
0164,cdot_cos,T,S-T,304,60,51326,-0.21010018842801773,-0.03369557588471838,-0.2102609150780931,0.005186362289829232,819.0,11.26589194275961,0.6561398260494116,11.440206106452338,-0.06959038817164011,0.23,0.9999999999978837,4373.4383128482195,1.510046698895554,304,2026-10-07 21:32:07.410244,25.0,0.6940039011627019,0.2699163761706357,0.08257893579748955
0164,cdot_cos,P,T-P,305,61,51706,0.0627673062321176,-0.004798589726091976,0.2728674946601353,0.9989113062037,839.0,11.37106032056468,0.6572584252962069,11.478542527487466,-0.3868566967125541,0.38,0.9999999999978794,-283.6282157795479,1.5150147669674596,305,2026-10-07 21:32:07.790244,25.0,0.4403817719388743,0.1742083884525353,0.27675888896071005
0164,cdot_cos,Q,P-Q,306,61,51836,-0.025568369018006503,-0.037420571115746204,-0.0883356752501241,0.0989994225468544,839.0,11.398290317983538,0.6573691918270242,11.499282518307208,-0.10073452596975586,0.13,0.9999999999978381,2583.1103369544335,1.519982148337122,306,2026-10-07 21:32:07.920243,25.0,0.05840472199462091,0.5025321578725603,0.20946151860659237
0164,cdot_cos,R,Q-R,307,61,51866,0.12027762485708306,0.3124953357059235,0.14584599387508956,0.9745720588728972,839.0,11.501718681611546,0.6584586854219747,11.53714644119544,-0.38422985169086254,0.03,0.9999999999978318,-260.20834545061604,1.5249492534864093,307,2026-10-07 21:32:07.950243,25.0,0.47815160358072,2.104185341160629,3.4476121209336226
0164,cdot_cos,S,R-S,308,61,51915,-1.4232946597096421e-05,-0.006016810494950831,-0.12029185780368015,0.04709733052570001,839.0,11.524541438453175,0.6585112942348655,11.556844569473515,-0.08524629465583576,0.049,0.9999999999977913,5683.1458572447555,1.5299164129555352,308,2026-10-07 21:32:07.999244,25.0,0.029978016735688912,0.4244875562832309,0.4657705477883478
0164,cdot_cos,T,S-T,309,61,52144,-0.2780943668937938,-0.007300523737440326,-0.2780801339471967,0.000955802163844088,839.0,11.543318462127303,0.6585123618477093,11.575609257274415,-0.07026151636181588,0.229,0.9999999999977502,14035.779338066426,1.5348840777866752,309,2026-10-07 21:32:08.228243,25.0,0.8079367605738454,0.2726513196692923,0.08199573656824276
0164,cdot_cos,P,T-P,310,62,52545,0.05174607469655901,-0.006624105659052131,0.3298404415903528,0.9997377659960972,859.0,11.649415742861711,0.6596281684865937,11.613970939814251,-0.39852265470699844,0.401,0.9999999999977454,-294.19177741530837,1.5398522323941453,310,2026-10-07 21:32:08.629244,25.0,0.43880724012914063,0.17012416029416746,0.2645817474673523
0164,cdot_cos,Q,P-Q,311,62,52675,-0.023577828370691715,-0.03250860890986836,-0.07532390306725073,0.13203348447135846,859.0,11.679758038683225,0.6597753990402965,11.635285036674277,-0.11461828741158926,0.13,0.999999999997703,1928.2978984680826,1.5448196206371647,311,2026-10-07 21:32:08.759244,25.0,0.08399859240958314,0.5201394400149439,0.233402275550108
0164,cdot_cos,R,Q-R,312,62,52705,0.13569387643907999,0.3177614378182474,0.1592717048097717,0.9816893601365956,859.0,11.784651997265597,0.6608691120175317,11.673295196033754,-0.397911875038909,0.03,0.9999999999976972,-259.02004778570193,1.5497867245299974,312,2026-10-07 21:32:08.789243,25.0,0.49068614400979005,2.110279483893744,3.4964652860790464
0164,cdot_cos,S,R-S,313,62,52755,-9.864334879664959e-05,-0.0025708435651470344,-0.13579251978787663,0.032457965273693996,859.0,11.80637480771685,0.6609052446299428,11.692626667967017,-0.08284524405758588,0.05,0.9999999999976545,8719.730181608342,1.5547538872006308,313,2026-10-07 21:32:08.839243,25.0,0.022302099654835945,0.4059874788761242,0.43445620902506477
0164,cdot_cos,T,S-T,314,62,52983,-0.31828215801357657,0.026892100188478308,-0.3181835146647799,0.00035092471210959727,859.0,11.825250745153209,0.6609056352734732,11.711297027330016,-0.07211185962977755,0.228,0.9999999999976101,27476.160725040132,1.5597215642342135,314,2026-10-07 21:32:09.067244,25.0,0.8617039269725763,0.2759660491462785,0.0827891992822771
0164,cdot_cos,P,T-P,315,63,53404,0.04603285309560624,-0.005237077242601003,0.3643150111091828,0.9998892224101142,860.0,11.932215326127553,0.66201780387073,11.749670055602712,-0.4101545886032287,0.421,0.9999999999976062,-303.9491762375515,1.5646898063511603,315,2026-10-07 21:32:09.488243,25.0,0.4385928669926231,0.16481792588574337,0.2540726388939283
0164,cdot_cos,Q,P-Q,316,63,53537,-0.024645522547232998,-0.03786299524341789,-0.07067837564283924,0.14592086601507295,860.0,11.964027438749005,0.6621799611353552,11.77118869455715,-0.12266702349786121,0.133,0.9999999999975618,1772.8935288211476,1.5696572101989394,316,2026-10-07 21:32:09.621243,25.0,0.09597746918592857,0.5134530029437254,0.23918881670264747
0164,cdot_cos,R,Q-R,317,63,53568,0.11543620819354618,0.3278959532118488,0.14008173074077918,0.9707458505372284,860.0,12.068793824910584,0.6632577487552155,11.808988854797253,-0.4056491881324993,0.031,0.9999999999975547,-262.5583736722737,1.5746243155537138,317,2026-10-07 21:32:09.652243,25.0,0.4977769556350795,2.0718391505039713,3.3795608439218983
0164,cdot_cos,S,R-S,318,63,53614,-0.0001351239008692676,-0.003660942291072359,-0.11557133209441545,0.052685877403306776,860.0,12.092481466080251,0.663316195743605,11.828642595659526,-0.09219957016389692,0.046,0.9999999999975101,5362.972953877134,1.5795914665300073,318,2026-10-07 21:32:09.698244,25.0,0.033383739922403295,0.46460238990479924,0.5149487210797256
0164,cdot_cos,T,S-T,319,63,53843,-0.2938855212351978,-0.004485083072390095,-0.2937503973343285,0.00064619687593074,860.0,12.111537244781825,0.6633169125699991,11.847239303456206,-0.07430210085567467,0.229,0.9999999999974652,24967.64831030871,1.5845591617026118,319,2026-10-07 21:32:09.927244,25.0,0.7859403835250035,0.27697335878185175,0.08321300743045483
0164,cdot_cos,P,T-P,320,64,54264,0.030067433666951117,0.001795795069393962,0.3239529549021489,0.9996961959761218,857.0,12.21933526440234,0.6644249744041592,11.885615991927004,-0.4218402125960067,0.421,0.9999999999974591,-313.6450521317612,1.589527435253238,320,2026-10-07 21:32:10.348243,25.0,0.43873399763031656,0.17367696508992275,0.2560523031366127
0164,cdot_cos,Q,P-Q,321,64,54414,-0.021140819447649433,-0.04118773701439979,-0.051208253114600547,0.21751510405630006,857.0,12.25777324938754,0.6646658286723068,11.908488634572802,-0.15126764541015497,0.15,0.9999999999974163,1123.3870558604601,1.594494897760741,321,2026-10-07 21:32:10.498244,25.0,0.1671772155333447,0.46672468967496294,0.2562532332346734
0164,cdot_cos,R,Q-R,322,64,54443,0.07969628819038217,0.311864388563304,0.10083710763803161,0.925595968350757,857.0,12.359352671304828,0.6656897809680238,11.945397568535757,-0.4014288110028818,0.029,0.9999999999974063,-244.30939472387266,1.599461995545844,322,2026-10-07 21:32:10.527244,25.0,0.5362381489086883,2.269612728987563,3.5027386868030295
0164,cdot_cos,S,R-S,323,64,54493,0.0007116893166182787,-0.0063646089393884445,-0.0789845988737639,0.12189405660379067,857.0,12.389410787668819,0.665824511811335,11.966353329723882,-0.11939713313340566,0.05,0.9999999999973637,2093.29705758691,1.6044291586216233,323,2026-10-07 21:32:10.577244,25.0,0.09421922132121498,0.49692069382954784,0.6011623272798161
0164,cdot_cos,T,S-T,324,64,54723,-0.20900301255739773,-0.028763086073404397,-0.209714701874016,0.005257294649668843,857.0,12.409044740687783,0.6658303221486077,11.984967383417167,-0.07814613705784129,0.23,0.9999999999973151,7099.587190739391,1.6093968729230648,324,2026-10-07 21:32:10.807244,25.0,0.5898600743868657,0.27852969325398014,0.08536501312593034
0164,cdot_cos,P,T-P,325,65,55121,0.03647569920655914,-0.0024882866341646107,0.24547871176395686,0.9978431941592673,841.0,12.51753444656565,0.666932221033757,12.023313497835131,-0.433320688216305,0.398,0.9999999999973087,-322.3295312712194,1.6143651087319528,325,2026-10-07 21:32:11.205244,25.0,0.44058252904063294,0.17709051635916626,0.272587200698158
0164,cdot_cos,Q,P-Q,326,65,55252,-0.03369696705448361,-0.046753307549155486,-0.07017266626104275,0.1475035682474419,841.0,12.55000879170968,0.6670949520170262,12.044735468191897,-0.13040805593880386,0.131,0.9999999999972613,1861.4318318013793,1.6193325213618237,326,2026-10-07 21:32:11.336244,25.0,0.09799820330009988,0.5325375314855133,0.24789576445824021
0164,cdot_cos,R,Q-R,327,65,55281,0.11747791556503194,0.2970019691992967,0.15117488261951556,0.9776728584549554,841.0,12.657059279814854,0.6681725456304467,12.082681235947673,-0.43157451757907095,0.029,0.999999999997253,-279.4805554612532,1.6242996178404498,327,2026-10-07 21:32:11.365243,25.0,0.4976631229301884,2.2573826837069983,3.6913961415577594
0164,cdot_cos,S,R-S,328,65,55332,8.558832456731291e-05,-0.009014035683586002,-0.11739232724046463,0.050459450555103966,841.0,12.680936987364685,0.6682281145159504,12.102148554032416,-0.09675504239945051,0.051,0.9999999999972048,6025.304847208706,1.6292667845670745,328,2026-10-07 21:32:11.416243,25.0,0.031414489070735074,0.4290596034834948,0.46819034411433086
0164,cdot_cos,T,S-T,329,65,55560,-0.20215877504512472,-0.011196370865176579,-0.20224436336969204,0.006329973828813769,841.0,12.70082335937017,0.6682350851210017,12.12070936476291,-0.08072007345556302,0.228,0.9999999999971547,2300.369742069762,1.6342345084350438,329,2026-10-07 21:32:11.644243,25.0,0.8198375340088092,0.28350537421962474,0.08722092984862104
0164,cdot_cos,P,T-P,330,66,55962,0.05964222449315758,-0.0035548847889575034,0.2618009995382823,0.9985648145501449,858.0,12.810215438008834,0.6693337857912158,12.159075092178258,-0.4455438329356278,0.402,0.9999999999971487,-332.05018379479833,1.639202787283616,330,2026-10-07 21:32:12.046243,25.0,0.44094814909968505,0.17142444663303422,0.27211959860364
0164,cdot_cos,Q,P-Q,331,66,56095,-0.028253075669030223,-0.04421978787738744,-0.0878953001621878,0.09998578749318056,858.0,12.83864861446313,0.6694436967118752,12.179484268051324,-0.1164118747285067,0.133,0.9999999999970958,2994.5337208769315,1.6441702135093752,331,2026-10-07 21:32:12.179244,25.0,0.0591720657581385,0.5086133151319271,0.21378328161124974
0164,cdot_cos,R,Q-R,332,66,56128,0.1062931910493798,0.30673799501708604,0.13454626671841002,0.9665492054272299,858.0,12.945506579833927,0.6705052358610429,12.217210690158016,-0.43909078489868003,0.033,0.9999999999970877,-303.9726894888045,1.6491373213389109,332,2026-10-07 21:32:12.212243,25.0,0.47956314051740623,2.0038227702086884,3.2381201627514056
0164,cdot_cos,S,R-S,333,66,56172,-0.00020024854993501074,-0.005509563552882376,-0.10649343959931482,0.06523274599993006,858.0,12.970900917296904,0.6705768170470844,12.236902487021448,-0.10487179934991168,0.044,0.9999999999970376,4669.089799032491,1.6541044658027335,333,2026-10-07 21:32:12.256243,25.0,0.04129850137597045,0.5128179802870271,0.577144033249478
0164,cdot_cos,T,S-T,334,66,56402,-0.23243747842652857,-0.006756692587132567,-0.23223722987659356,0.003000621397680597,858.0,12.990634562099185,0.6705801094981324,12.255322618709483,-0.08163618455664465,0.23,0.999999999996985,7057.239258648348,1.659072211517745,334,2026-10-07 21:32:12.486243,25.0,0.7522970888035257,0.2826718609865106,0.0857984556620928
0164,cdot_cos,P,T-P,335,67,56820,0.06600758120542409,-0.003057786234645371,0.29844505963195267,0.9994253223790487,859.0,13.100929973350699,0.6716758024540871,12.293709966000923,-0.45778753691727986,0.418,0.9999999999969783,-343.29996402403776,1.6640405725631624,335,2026-10-07 21:32:12.904243,25.0,0.4396957227222251,0.16581931177904047,0.2638646202189319
0164,cdot_cos,Q,P-Q,336,67,56955,-0.02345566640164198,-0.03679115387468803,-0.08946324760706607,0.0965132456346991,859.0,13.129259506746463,0.6717815134830566,12.313983491696604,-0.11818876474095794,0.135,0.999999999996923,3212.5197861265547,1.6690080124959312,336,2026-10-07 21:32:13.039244,25.0,0.056508784202915045,0.5045671564200593,0.20984839552417978
0164,cdot_cos,R,Q-R,337,67,56985,0.11455633368377564,0.33753283528803035,0.1380120000854176,0.9692400860882101,859.0,13.237163105584115,0.672842156240167,12.351765196272037,-0.45175341911704975,0.03,0.9999999999969137,-314.4929356655944,1.6739751091104063,337,2026-10-07 21:32:13.069243,25.0,0.47788856159248494,2.2075271969340746,3.596786627921726
0164,cdot_cos,S,R-S,338,67,57031,-4.5252436499960024e-05,-0.0015810091692206928,-0.1146015861202756,0.05390908497404911,859.0,13.261711138562507,0.6729010974334048,12.371161280369863,-0.10328061182016998,0.046,0.999999999996861,5912.211615584253,1.6789422598397348,338,2026-10-07 21:32:13.115244,25.0,0.034251019363355416,0.48012356486110375,0.5336528908346239
0164,cdot_cos,T,S-T,339,67,57261,-0.3374198726346318,0.0016677626127689,-0.33737462019813186,0.00021722372336500877,859.0,13.281334473551336,0.6729013349226958,12.389452680734209,-0.0826986223856215,0.23,0.9999999999968058,86664.91590825623,1.683910020905657,339,2026-10-07 21:32:13.345243,25.0,0.7796739406387284,0.2843036003562321,0.08531884777751671
