record_id,input,event,transition,event_index,k,peak,value_cos,value_sin,value_return,x_input,rr,knowledge,decision,decision_norm,entropy,delta_t,cosine_similarity,delta_h_over_delta_d,frobenius_norm,matrix_size,timestamp,scale,P,zdot,zdot_back
0612,cdot_cos,Q,P-Q,1,0,1125,-0.01693715019515242,-0.01883215157314656,-0.03965176041559796,0.27065656215106204,819.0,0.0013443894502579684,0.5003360973119431,0.5003360973119431,,,1.0,,0.004967141530112327,1,2026-10-07 20:31:17.209243,25.0,,,
0612,cdot_cos,R,Q-R,2,0,1154,0.07982130489765518,0.15106550906223154,0.0967584550928076,0.9182618224438176,819.0,0.008351674798148065,0.5014763771802611,0.7091946938180509,-1.2252537856714469e-05,,0.9999999999999999,,0.009934283060224654,2,2026-10-07 20:31:17.238244,25.0,,,
0612,cdot_cos,S,R-S,3,0,1185,-0.004558772569950156,-0.016378234076652204,-0.08438007746760534,0.10817670779828437,819.0,0.011159352035938638,0.5016107081537278,0.8688152321428607,-9.87887186457847e-06,0.031,0.9999999999999998,0.017670280582937996,0.014901424594855257,3,2026-10-07 20:31:17.269243,25.0,0.7864099716716767,0.11810183539638641,0.09057023347711528
0612,cdot_cos,T,S-T,4,0,1414,-0.04220392755274787,0.003381778521513535,-0.03764515498279772,0.2806723715905581,819.0,0.015673988592724022,0.501959238546026,1.0039184770926262,-2.1846175649640802e-05,0.229,1.0,-0.03433647122177781,0.01986856617600522,4,2026-10-07 20:31:17.498244,25.0,0.5782213239505223,0.03387732347730784,0.019714570116966743
0612,cdot_cos,P,T-P,5,1,1834,0.019520108315088637,-8.734968111893222e-05,0.06172403586783651,0.8239150522931248,898.0,0.02667516618854563,0.5029823388734957,1.1247027012102357,-8.401426325485974e-05,0.42,1.0,-0.06076440983942084,0.02483570789739468,5,2026-10-07 20:31:17.918243,25.0,0.4771279268841348,0.02037196806158834,0.02619327999005145
0612,cdot_cos,Q,P-Q,6,1,1963,-0.01570879869509772,-0.019891812039478478,-0.035228907010186356,0.29302804522486503,898.0,0.032786441764458225,0.5033462022271965,1.2329413594605536,-6.552901157458535e-05,0.129,0.9999999999999998,0.05080272990469064,0.0298028494984853,6,2026-10-07 20:31:18.047244,25.0,0.7542038140583135,0.07686267094778731,0.04737422927064027
0612,cdot_cos,R,Q-R,7,1,1993,0.05183770832016464,0.11782368224756681,0.06754650701526235,0.8440482077082583,898.0,0.04650573529307476,0.5043942657714682,1.3345017900141192,-0.0001961611941430922,0.03,1.0,-0.12464147167649726,0.03476999102376403,7,2026-10-07 20:31:18.077244,25.0,0.5137887742053197,0.3305823603857164,0.4573097842872178
0612,cdot_cos,S,R-S,8,1,2043,-0.0019475987067443534,-0.017716708934378444,-0.05378530702690899,0.20674924900612046,898.0,0.05262138338760121,0.504650982955664,1.4273685287822528,-0.00010931554956326689,0.05,1.0,0.3382930708431778,0.03973713261112657,8,2026-10-07 20:31:18.127244,25.0,0.4518300604949572,0.13796113656231504,0.12231296189052901
0612,cdot_cos,T,S-T,9,1,2273,-0.035609489826657445,0.002644335864072372,-0.03366189111991309,0.3012090094717384,898.0,0.060301848949306264,0.5050249848642984,1.5150749546735827,-0.0001563909192301089,0.23,1.0,-0.1258693300222339,0.04470427461807709,9,2026-10-07 20:31:18.357243,25.0,0.7400697139045567,0.05105565982595441,0.03339332852915241
0612,cdot_cos,P,T-P,10,2,2732,0.019481521364965504,-4.5077358985724165e-05,0.05509101119162295,0.7985530417254155,899.0,0.07610698690754024,0.5060164951395322,1.6001646584632676,-0.0003887428893566445,0.459,0.9999999999999999,-0.2343414646628291,0.04967141743338533,10,2026-10-07 20:31:18.816243,25.0,0.5500748671752079,0.02688241523010193,0.03443385176085833
0612,cdot_cos,Q,P-Q,11,2,2861,-0.011943216743957144,-0.01505862428605699,-0.03142473810892265,0.3131102459846867,899.0,0.08497990613053984,0.5064052508523378,1.6795562094957859,-0.0002577151842985528,0.129,1.0,0.33704380602532624,0.05463855926714053,11,2026-10-07 20:31:18.945244,25.0,0.6014447592297149,0.10845362846791941,0.06878231955813642
0612,cdot_cos,R,Q-R,12,2,2893,0.07205479574670796,0.14200732145012096,0.0839980124906651,0.8908983493260073,899.0,0.10408802305226345,0.5075113406886522,1.7580708556569749,-0.0006513618019026069,0.032,0.9999999999999997,-0.35589027643153237,0.059605700750881396,12,2026-10-07 20:31:18.977243,25.0,0.5464327515419072,0.4030346987189085,0.5971286538038627
0612,cdot_cos,S,R-S,13,2,2941,-0.0018978320785312734,-0.0174475054405433,-0.07395262782523923,0.13601200787923728,899.0,0.11077412684854998,0.5076801994315734,1.8304669912859042,-0.00025900914779500647,0.048,0.9999999999999999,2.3235554601444743,0.06457284238112813,13,2026-10-07 20:31:19.025243,25.0,0.21984740006331543,0.17345710135358608,0.13929382908930282
0612,cdot_cos,T,S-T,14,2,3171,-0.03367440140823679,0.002529088080512973,-0.03177656932970552,0.31122163469637387,899.0,0.12073990478220771,0.5080665740594575,1.9010110505674755,-0.00041596809693048096,0.23,0.9999999999999999,-0.40623513504239284,0.06953998520646876,14,2026-10-07 20:31:19.255244,25.0,0.6856869448910575,0.06415800675360916,0.04332946927677273
0612,cdot_cos,P,T-P,15,3,3631,0.020733040548823977,-0.00015229121267413504,0.054407441957060765,0.7957899338773187,858.0,0.1402868099552102,0.5090544843732583,1.9715595415136096,-0.0009198247092649115,0.46,0.9999999999999998,-0.5100226258353,0.07450712999194983,15,2026-10-07 20:31:19.715244,25.0,0.5782351841012368,0.032806672713125484,0.0424932721152228
0612,cdot_cos,Q,P-Q,16,3,3760,-0.012453127632908427,-0.01706722275397542,-0.0331861681817324,0.3037181917712577,858.0,0.15092204367828316,0.5094315082811569,2.037726035487279,-0.0005583179746815069,0.129,0.9999999999999998,0.9588429991039473,0.07947427223904607,16,2026-10-07 20:31:19.844243,25.0,0.52335641784213,0.12890395072954308,0.08244367227188339
0612,cdot_cos,R,Q-R,17,3,3789,0.0664128758483717,0.15565173832472032,0.07886600348128013,0.8777882383675967,858.0,0.17354402924343232,0.5105210985065691,2.104932415963178,-0.001323098656444609,0.029,0.9999999999999996,-0.7018975243411048,0.08444141361743049,17,2026-10-07 20:31:19.873244,25.0,0.5610067082771936,0.5338729305427241,0.7800684677637642
0612,cdot_cos,S,R-S,18,3,3840,-0.0007764749523212743,-0.01767480294081554,-0.06718935080069298,0.157130725341711,858.0,0.18188667364976116,0.5107161331377523,2.1667850487686,-0.0005344950525470597,0.051,0.9999999999999993,4.043402954200474,0.08940855533606146,18,2026-10-07 20:31:19.924243,25.0,0.22868312502613827,0.1936658746728173,0.163581262869193
0612,cdot_cos,T,S-T,19,3,4070,-0.03527041674993817,-0.0023783208739442266,-0.034493941797616896,0.2968489009661719,858.0,0.19329794846005968,0.5110845805513918,2.2277660411405633,-0.0007717031087409718,0.23,0.9999999999999994,-0.6438043731961167,0.0943756993713765,19,2026-10-07 20:31:20.154243,25.0,0.7353692441838963,0.07451466036165146,0.04961423830564574
0612,cdot_cos,P,T-P,20,4,4489,0.021007099012028994,-0.00010327225712110973,0.05627751576196717,0.8032825198555179,838.0,0.21616341741612083,0.5120815493810776,2.2900983128671064,-0.0016874229692903037,0.419,0.9999999999999996,-0.9185040026155274,0.09934284640656582,20,2026-10-07 20:31:20.573244,25.0,0.5811923102892296,0.04137931874596922,0.054571524954799874
0612,cdot_cos,Q,P-Q,21,4,4599,-0.015914399328844243,-0.01714085669841308,-0.036921498340873236,0.28433939565605404,838.0,0.2279738175691819,0.5124344256537344,2.348269550543112,-0.0009453609785252944,0.11,0.999999999999999,2.102895684025625,0.10430998896279033,21,2026-10-07 20:31:20.683244,25.0,0.4561420785865545,0.17104925107340815,0.10736727411873694
0612,cdot_cos,R,Q-R,22,4,4648,0.06303064661371674,0.13106260680984894,0.07894504594256098,0.8780000642333978,838.0,0.2537942526522706,0.5135239781887161,2.4086409672324254,-0.002241652444045482,0.049,0.9999999999999989,-1.1897466380930437,0.10927713061882846,22,2026-10-07 20:31:20.732243,25.0,0.5608650501612396,0.3632661199638035,0.5269476547569129
0612,cdot_cos,S,R-S,23,4,4698,-8.554684554008512e-05,-0.020121091620387128,-0.06311619345925683,0.1710924129636111,838.0,0.26357389732563463,0.513736280359316,2.463792655131153,-0.0009117576441772193,0.05,0.9999999999999984,6.264160164310198,0.11424427241842694,23,2026-10-07 20:31:20.782243,25.0,0.23256033234278656,0.22345135594607157,0.19559289346728015
0612,cdot_cos,T,S-T,24,4,4888,-0.03718903879616938,0.0056978381484709285,-0.03710349195062929,0.28341445553945566,838.0,0.2761393882468778,0.514087947805295,2.5185063174852713,-0.0012220309528776108,0.19,0.9999999999999982,-0.8822918136098726,0.11921141722589657,24,2026-10-07 20:31:20.972243,25.0,0.775769597441542,0.10117267231987428,0.066134162743385
0612,cdot_cos,P,T-P,25,5,5327,0.021537553937890745,-2.7895014388382582e-05,0.058726592734060126,0.8127782871944859,839.0,0.30201951280718686,0.5150963840152414,2.5754819291189657,-0.0026958892412070647,0.439,0.9999999999999979,-1.4615285268344331,0.12417856811502925,25,2026-10-07 20:31:21.411244,25.0,0.5788535314850125,0.04460637021571723,0.05895244774557877
0612,cdot_cos,Q,P-Q,26,5,5457,-0.01459976301484092,-0.021295181052453045,-0.03613731695273167,0.28834554167786297,839.0,0.3153037812962775,0.5154541130864545,2.6283105944209293,-0.0014774737499588064,0.13,0.9999999999999976,3.4059728137732983,0.12914571181006612,26,2026-10-07 20:31:21.541243,25.0,0.4383834276522435,0.1550398139122916,0.10218668068531266
0612,cdot_cos,R,Q-R,27,5,5486,0.04455525697352028,0.13274038673508431,0.0591550199883612,0.8144026714969504,839.0,0.3423298644243827,0.516464395756804,2.683627735992092,-0.0032016991534932412,0.029,0.9999999999999973,-1.7066762146260563,0.13411285296243583,27,2026-10-07 20:31:21.570244,25.0,0.5836029050008942,0.6861774017577865,0.9319339009691439
0612,cdot_cos,S,R-S,28,5,5537,-4.5392625422089424e-05,-0.01889707117035758,-0.04460064959894237,0.2469368895959986,839.0,0.3551020705982291,0.5167706996583595,2.73449352713664,-0.001604587610461961,0.051,0.999999999999997,5.214140384502648,0.1390799949076847,28,2026-10-07 20:31:21.621243,25.0,0.36959745800552063,0.2616030277716507,0.25043541517345974
0612,cdot_cos,T,S-T,29,5,5746,-0.03681957714190494,0.00011203214414101682,-0.03677418451648285,0.2850894146152185,839.0,0.36901337325709105,0.5171243127878515,2.784799665496067,-0.00181447274345363,0.209,0.9999999999999963,-0.5935445137265911,0.14404714193050652,29,2026-10-07 20:31:21.830244,25.0,0.8907666392577929,0.10141378858112275,0.06656125674096615
0612,cdot_cos,P,T-P,30,6,6166,0.022476710365595558,-0.0001293956647523446,0.059296287507500496,0.8149358968930112,838.0,0.39749303422513843,0.5181350298165831,2.8379424550243892,-0.003931546878503306,0.42,0.9999999999999962,-2.0946259683648236,0.14901429658065732,30,2026-10-07 20:31:22.250243,25.0,0.5836325103760857,0.051318958378710255,0.06780871659058901
0612,cdot_cos,Q,P-Q,31,6,6295,-0.013075900206203375,-0.018786872003235634,-0.03555261057179893,0.2913543757863404,838.0,0.41212129829520766,0.5184963439222128,2.886865491212894,-0.0021328524398785504,0.129,0.9999999999999951,4.978201544304825,0.1539814412506319,31,2026-10-07 20:31:22.379244,25.0,0.43027612719377606,0.17723646702238466,0.11339739589200953
0612,cdot_cos,R,Q-R,32,6,6326,0.06370734587654998,0.15437741552430034,0.07678324608275336,0.872091719416718,838.0,0.4432200427169137,0.51957772436407,2.9391754853576306,-0.004789614070166799,0.031,0.9999999999999949,-2.4568241919794116,0.15894858234020734,32,2026-10-07 20:31:22.410244,25.0,0.5742489800952927,0.6900469151548074,1.0031853039260006
0612,cdot_cos,S,R-S,33,6,6375,-0.00010308459641487696,-0.01898153093158309,-0.06381043047296486,0.16864503141806408,838.0,0.4549042070348057,0.5197868207839933,2.985947982414981,-0.0018894611230335652,0.049,0.9999999999999944,13.869931145627932,0.1639157243539377,33,2026-10-07 20:31:22.459244,25.0,0.21547506312282488,0.2680791449857149,0.23845233301820495
0612,cdot_cos,T,S-T,34,6,6605,-0.04040461840464012,-0.005911136615638415,-0.040301533808225244,0.26746187682183126,838.0,0.46949179892551374,0.520118422127118,3.0327855273423596,-0.0024278537544156443,0.23,0.9999999999999936,-1.6236141455542845,0.168882874446726,34,2026-10-07 20:31:22.689243,25.0,0.8011103184852014,0.09923970503052816,0.06342431256829573
0612,cdot_cos,P,T-P,35,7,7004,0.02128962564014105,-4.752597143178592e-05,0.061694244044781174,0.8238069719972986,819.0,0.5005544713488487,0.5211396718578273,3.0831039102215714,-0.0054242388371694645,0.399,0.9999999999999931,-2.9340375744067884,0.17385003303145893,35,2026-10-07 20:31:23.088243,25.0,0.5755630190144464,0.057883017663908354,0.07785130933166651
0612,cdot_cos,Q,P-Q,36,7,7113,-0.018626450877398833,-0.020672225648460843,-0.03991607651753988,0.26935413024529903,819.0,0.5156824470213126,0.5214735444893128,3.1288413100327457,-0.002767314776532955,0.109,0.9999999999999915,7.957897144233441,0.17881717785211268,36,2026-10-07 20:31:23.197243,25.0,0.38285112001849037,0.22922881305462747,0.1387887676372838
0612,cdot_cos,R,Q-R,37,7,7143,0.07789255936409778,0.14820891003700648,0.09651901024149662,0.917811395433248,819.0,0.5505263525947575,0.5226110537685077,3.178918981360566,-0.00668597246345888,0.03,0.999999999999991,-3.444945688442693,0.18378431876645293,37,2026-10-07 20:31:23.227243,25.0,0.5564926143750604,0.7644451350446243,1.1614635191148286
0612,cdot_cos,S,R-S,38,7,7193,-0.0023203635381195535,-0.019449056525134477,-0.08021292290221733,0.11864516544459154,819.0,0.5615491551239901,0.5227580823378634,3.222497288807817,-0.0022060237541777087,0.05,0.99999999999999,30.469919750385518,0.1887514610003137,38,2026-10-07 20:31:23.277244,25.0,0.13123313189002359,0.2743906443965738,0.220456050584652
0612,cdot_cos,T,S-T,39,7,7423,-0.037637895580447354,-0.0027032054893242554,-0.0353175320423278,0.29256926097423913,819.0,0.5779654170344148,0.5231206258420045,3.266887308227553,-0.0033662710444048154,0.23,0.9999999999999895,-3.2002981076045165,0.1937186138975508,39,2026-10-07 20:31:23.507244,25.0,0.708455230831577,0.1075436722049012,0.07137505178445555
0612,cdot_cos,P,T-P,40,8,7823,0.022420327425540676,-0.00014046919457482172,0.06005822300598803,0.8177914697186115,838.0,0.6110192443382446,0.5241338793368351,3.3149137691870454,-0.007070816513649117,0.4,0.9999999999999886,-3.6560895058778917,0.19868577798654571,40,2026-10-07 20:31:23.907244,25.0,0.5921943144549944,0.0628703058863532,0.08263456825957444
0612,cdot_cos,Q,P-Q,41,8,7952,-0.010813739028090345,-0.015726014530650558,-0.03323406645363102,0.30346502098422284,838.0,0.6282616617434974,0.5245098260671966,3.3585016477892853,-0.0038442146616654675,0.129,0.9999999999999861,8.582603840923104,0.2036529251922998,41,2026-10-07 20:31:24.036243,25.0,0.43199569050277997,0.19594466032495364,0.13366215042831617
0612,cdot_cos,R,Q-R,42,8,8002,0.04419771147009058,0.1458938927602265,0.055011450498180924,0.7982328862895254,838.0,0.6615729667020827,0.5254985807527751,3.4056201112023516,-0.007728216578665839,0.05,0.9999999999999856,-3.928175485437083,0.20862006730147073,42,2026-10-07 20:31:24.086244,25.0,0.6049713635531971,0.4965116207898834,0.666226099171705
0612,cdot_cos,S,R-S,43,8,8052,0.0026245105301145465,-0.018180991298289425,-0.04157320093997603,0.2612792870186526,838.0,0.6779128238224857,0.5258221789903119,3.448046686643445,-0.003936507157810982,0.05,0.9999999999999832,11.71733644075738,0.2135872096544023,43,2026-10-07 20:31:24.136243,25.0,0.381663214514821,0.3324782534049475,0.3267971424080618
0612,cdot_cos,T,S-T,44,8,8262,-0.03609195868949801,-0.005285648449017124,-0.038716469219612554,0.2752969342368373,838.0,0.6948207920425774,0.5261631148198416,3.490171335378099,-0.004174183135587027,0.21,0.999999999999982,-0.6971281900876688,0.2185543642571591,44,2026-10-07 20:31:24.346244,25.0,0.9446512015819546,0.12343846574334025,0.08051413438138887
0612,cdot_cos,P,T-P,45,9,8661,0.02265486722077375,-7.966639853487493e-05,0.058746825910271756,0.8128552469474886,839.0,0.7297569794346886,0.5271696351428724,3.536361503124011,-0.00894874144419936,0.399,0.9999999999999815,-4.743628319630126,0.22352153453855728,45,2026-10-07 20:31:24.745243,25.0,0.5865219245266386,0.06632621226535387,0.0875593668975219
0612,cdot_cos,Q,P-Q,46,9,8790,-0.012251098721473347,-0.017651194939456532,-0.0349059659422471,0.294703368441449,839.0,0.7477491094303298,0.5275344983157827,3.577913147339658,-0.004779443925707533,0.129,0.9999999999999788,11.427016558661954,0.2284886832908789,46,2026-10-07 20:31:24.874244,25.0,0.4179725757297469,0.21756677137892907,0.1394738759352027
0612,cdot_cos,R,Q-R,47,9,8820,0.06845034816524309,0.16802195085078112,0.08070144688671643,0.8826260036402416,839.0,0.7858892064504523,0.5286270729247488,3.6240847324191057,-0.010513887422509074,0.03,0.9999999999999772,-5.248560098086347,0.2334558237969752,47,2026-10-07 20:31:24.904243,25.0,0.5796005600968224,0.8618924575382974,1.2713365673374186
0612,cdot_cos,S,R-S,48,9,8870,-7.476115261802305e-05,-0.01496630331080963,-0.06852510931786111,0.15275847438035123,839.0,0.7994626568826276,0.5288161402279024,3.6637457995266134,-0.0038677249212483314,0.05,0.9999999999999748,35.15236315536442,0.23842296637865315,48,2026-10-07 20:31:24.954243,25.0,0.1793591898920367,0.30168456637901686,0.27146900864350565
0612,cdot_cos,T,S-T,49,9,9080,-0.04640049732338475,0.00022180347844523232,-0.046325736170766726,0.23900480194079138,839.0,0.816057663088354,0.5291119369526139,3.703783669128206,-0.0048183642434045685,0.21,0.9999999999999731,-3.2138263974462804,0.24339012417611178,49,2026-10-07 20:31:25.164243,25.0,0.8209483924598525,0.12993325162772826,0.07902383907488764
0612,cdot_cos,P,T-P,50,10,9500,0.02154845335346561,-0.00014664339837271414,0.06794895067685036,0.845367978027618,878.0,0.8540346225662735,0.5301580144122202,3.7487833931216836,-0.011396260219493871,0.42,0.999999999999972,-6.2881538223422755,0.24835730339474657,50,2026-10-07 20:31:25.584243,25.0,0.5614695313595228,0.06756207750177443,0.09042133209028443
0612,cdot_cos,Q,P-Q,51,10,9629,-0.014321689657249961,-0.018936094009371063,-0.035870143010715574,0.2897180952610589,878.0,0.8728098081898445,0.5305164576465751,3.7886454603635307,-0.0058250710862810095,0.129,0.9999999999999679,15.542737592021181,0.2533244538338857,51,2026-10-07 20:31:25.713243,25.0,0.38426777171293625,0.22202521280731435,0.145544074601326
0612,cdot_cos,R,Q-R,52,10,9660,0.05121740066644168,0.1294417678130627,0.06553909032369165,0.8373276311641942,878.0,0.9113171274705606,0.5315522327014216,3.8330778165236463,-0.01234015734770044,0.031,0.9999999999999658,-6.290059053782435,0.2582915941904589,52,2026-10-07 20:31:25.744244,25.0,0.5898080588486488,0.8848392410043466,1.2421715897005177
0612,cdot_cos,S,R-S,53,10,9709,-0.001527380853376455,-0.019450421534877096,-0.05274478151981814,0.21104805806784757,878.0,0.927669841132114,0.5318132568036209,3.871659106204121,-0.005401212917143474,0.049,0.999999999999963,26.58353911417262,0.26325873683376977,53,2026-10-07 20:31:25.793243,25.0,0.27673327380788165,0.3652788398376524,0.3337288502357845
0612,cdot_cos,T,S-T,54,10,9939,-0.03655484922957297,0.0002376663901903729,-0.03502746837619652,0.2940723953767312,878.0,0.9471144537746505,0.5321769362916142,3.9106859987755995,-0.0065468565098440535,0.23,0.9999999999999605,-3.150146297834726,0.2682259005299641,54,2026-10-07 20:31:26.023244,25.0,0.8394642393043722,0.12629680225183684,0.08454179409798476
0612,cdot_cos,P,T-P,55,11,10378,0.022043011342301546,-0.00010733097858540534,0.05859786057187452,0.812288065651858,858.0,0.985766370167959,0.5331813145818124,3.954178633582566,-0.013413552162207644,0.439,0.9999999999999586,-6.836762322898019,0.2731930902257226,55,2026-10-07 20:31:26.462244,25.0,0.5993423916517138,0.06625616487638683,0.08804536763851584
0612,cdot_cos,Q,P-Q,56,11,10507,-0.014716650698473839,-0.0202137693461519,-0.03675966204077538,0.2851634172819127,858.0,1.0052873665361182,0.5335338502093668,3.9926019530979353,-0.006977689112271939,0.129,0.9999999999999533,18.255922371822837,0.27816024248140375,56,2026-10-07 20:31:26.591244,25.0,0.3975841053689991,0.23636349514257377,0.15132555324154404
0612,cdot_cos,R,Q-R,57,11,10536,0.06037502225990866,0.1418988575605895,0.0750916729583825,0.867299749977584,858.0,1.046748151914743,0.5346058494090988,4.036185870220954,-0.015269385703505183,0.029,0.9999999999999506,-7.734797370470219,0.28312738225237266,57,2026-10-07 20:31:26.620243,25.0,0.5809866406462729,0.9886099935064308,1.4296822544353398
0612,cdot_cos,S,R-S,58,11,10587,-0.0008013930683769782,-0.019026194850666162,-0.06117641532828563,0.17807997013877253,858.0,1.0626267461594912,0.5348259204580356,4.073113081148216,-0.006010883636275094,0.051,0.9999999999999468,42.07051364530829,0.28809452528998564,58,2026-10-07 20:31:26.671244,25.0,0.21431900727001083,0.3606046746596818,0.3113449851911399
0612,cdot_cos,T,S-T,59,11,10797,-0.03303129977845354,0.002549864047308464,-0.03222990671007656,0.30879738140473095,858.0,1.0835298287300306,0.5352074997645112,4.111007033897152,-0.00805003155586954,0.21,0.9999999999999434,-5.343968828992584,0.2930616905362621,59,2026-10-07 20:31:26.881243,25.0,0.7762277515438779,0.14543432063789702,0.09953848843114005
0612,cdot_cos,P,T-P,60,12,11236,0.024099407045336235,-7.105269993383783e-05,0.057130706823789776,0.8066312552696926,819.0,1.123709160827408,0.5362040542378098,4.153418986156947,-0.0159093946024236,0.439,0.9999999999999416,-7.886536318019314,0.2980288896313507,60,2026-10-07 20:31:27.320243,25.0,0.6101760996507681,0.06821663593456098,0.09152467448149736
0612,cdot_cos,Q,P-Q,61,12,11346,-0.016133318560263735,-0.017957253276488255,-0.04023272560559997,0.267799044544523,819.0,1.143424035080575,0.5365348436654925,4.190471373843238,-0.008017345666358831,0.11,0.9999999999999336,23.858226036276147,0.30299604108548467,61,2026-10-07 20:31:27.430244,25.0,0.3736738974327931,0.2969453708478958,0.1792261295742473
0612,cdot_cos,R,Q-R,62,12,11375,0.08587021882328133,0.1621002835686216,0.10200353738354506,0.9275794555281732,819.0,1.189037142413945,0.5376803534647204,4.233699631475354,-0.01907722226243324,0.029,0.9999999999999319,-9.654982090532153,0.30796318055421684,62,2026-10-07 20:31:27.459244,25.0,0.5600425569450292,1.0191541406936837,1.5728657701162025
0612,cdot_cos,S,R-S,63,12,11425,-0.0019664890979743145,-0.016412304703053764,-0.08783670792125564,0.1001176806384417,819.0,1.2025349752408088,0.5378039697489786,4.268686969704764,-0.005788183395362116,0.05,0.9999999999999263,107.50233229238404,0.3129303237007104,63,2026-10-07 20:31:27.509243,25.0,0.10067164261890629,0.32752865415036414,0.26995665653727574
0612,cdot_cos,T,S-T,64,12,11655,-0.04691374084705157,-0.0033854818983017833,-0.04494725174907725,0.24532908000011017,819.0,1.2217900078289814,0.538106860295925,4.304855181501527,-0.00836931042494388,0.23,0.9999999999999216,-8.521649340341565,0.3178974963554259,64,2026-10-07 20:31:27.739244,25.0,0.7346186286655834,0.13649949209997725,0.0837175329920549
0612,cdot_cos,P,T-P,65,13,12055,0.02236843143365561,-0.0001481926758535322,0.06928217228070718,0.8496750000658626,838.0,1.2653247416067983,0.539155675392351,4.346812345943462,-0.019406386634058408,0.4,0.9999999999999186,-10.52337656725719,0.32286469870524365,65,2026-10-07 20:31:28.139244,25.0,0.5662417214454251,0.08130400780997998,0.10883683444454229
0612,cdot_cos,Q,P-Q,66,13,12184,-0.01292010817389595,-0.018516551950930077,-0.03528853960755156,0.2927192994349993,838.0,1.2868332140769654,0.5395169201184741,4.3830565508814034,-0.009837401659853513,0.129,0.9999999999999104,26.488926431951292,0.3278318552700022,66,2026-10-07 20:31:28.268243,25.0,0.378055345805486,0.2546833286882525,0.1667323447299773
0612,cdot_cos,R,Q-R,67,13,12215,0.05591531480060756,0.12175937581657062,0.06883542297450351,0.8482428687491884,838.0,1.3310330404083675,0.5405635004110171,4.424703332461824,-0.020729306285462545,0.031,0.999999999999907,-10.407137133400047,0.33279899475303815,67,2026-10-07 20:31:28.299244,25.0,0.5912980487457553,1.003083115714477,1.4258008494000667
0612,cdot_cos,S,R-S,68,13,12264,-0.00013102511441982312,-0.02210870386318331,-0.05604633991502738,0.19763233968002664,838.0,1.349024367251263,0.5408072924003884,4.459611566709275,-0.008637525688719474,0.049,0.9999999999999006,49.59876092699271,0.33776613793858284,68,2026-10-07 20:31:28.348243,25.0,0.24661853024139704,0.40419206109404526,0.367169935569296
0612,cdot_cos,T,S-T,69,13,12474,-0.037031080438325266,0.00015765475934034702,-0.036900055323905445,0.28444849452450854,838.0,1.370643862395584,0.5411581432918711,4.495197538223796,-0.010531572995854638,0.21,0.9999999999998953,-5.398439488441972,0.34273331198758505,69,2026-10-07 20:31:28.558244,25.0,0.8353999610661158,0.15528790517056573,0.10294997687771873
0612,cdot_cos,P,T-P,70,14,12893,0.021237553463281895,-5.485329788021673e-05,0.058268633901607164,0.8110298582406126,839.0,1.4142452874229006,0.5421582768843276,4.536022002546066,-0.021741754822540798,0.419,0.999999999999892,-11.208684430998414,0.3477005281309741,70,2026-10-07 20:31:28.977243,25.0,0.5971385478225715,0.07885677435135696,0.10406068025612572
0612,cdot_cos,Q,P-Q,71,14,13023,-0.01330166917632732,-0.01949429656136763,-0.034539222639609214,0.2966126689820134,839.0,1.436725839302021,0.5425239648245811,4.57138866284399,-0.011474442703880115,0.13,0.9999999999998815,28.076704174448658,0.35266768733685555,71,2026-10-07 20:31:29.107244,25.0,0.408690012641989,0.25567523469408776,0.17292732214708045
0612,cdot_cos,R,Q-R,72,14,13072,0.043313746101306574,0.13899216532066394,0.05661541527763389,0.8046139704077291,839.0,1.4807208484433634,0.5435157257600614,4.611884361260023,-0.022971471307198697,0.049,0.9999999999998772,-11.592540290721557,0.35763483028034915,72,2026-10-07 20:31:29.156243,25.0,0.6062325579154296,0.66881573206882,0.8978573294151501
0612,cdot_cos,S,R-S,73,14,13122,0.002774788663107926,-0.018893361782632442,-0.04053895743819865,0.2663005464795449,839.0,1.5022697810447654,0.5438438901604072,4.64660473585245,-0.011502968765228827,0.05,0.9999999999998697,34.94743040342585,0.362601973862266,73,2026-10-07 20:31:29.206244,25.0,0.3689833674530424,0.4382536014905569,0.4309786520280401
0612,cdot_cos,T,S-T,74,14,13312,-0.03473572478110092,0.0001462842932169575,-0.037510513444208846,0.2813524606879222,839.0,1.524546208592419,0.5441905618062369,4.681304726521266,-0.012064530382583538,0.19,0.999999999999863,-1.6198660147435118,0.36756914847872607,74,2026-10-07 20:31:29.396243,25.0,0.9545201779970848,0.17739879140888576,0.11724435551396678
0612,cdot_cos,P,T-P,75,15,13732,0.023416228096994524,-0.00015817974411153486,0.05815195287809545,0.8105823879881975,818.0,1.569681321780142,0.5451890896187771,4.721476551195991,-0.02497982249157702,0.42,0.9999999999998592,-12.934333873122709,0.3725363761961229,75,2026-10-07 20:31:29.816243,25.0,0.5962895077349537,0.08023796941124381,0.10746455520886404
0612,cdot_cos,Q,P-Q,76,15,13841,-0.015701385506327246,-0.017468805859194195,-0.03911761360332177,0.2733006563186444,818.0,1.5919461028978639,0.5455256775439637,4.755783208063672,-0.01258920210404756,0.109,0.9999999999998466,36.81243283061466,0.37750353315882396,76,2026-10-07 20:31:29.925244,25.0,0.3737283701743747,0.3282308146252701,0.20426404695157704
0612,cdot_cos,R,Q-R,77,15,13872,0.06847870679295322,0.14374975538696316,0.08418009229928046,0.8913400097054472,818.0,1.6412356393684508,0.5466231313444705,4.796599136359127,-0.028488970140363248,0.031,0.9999999999998425,-14.487870039699228,0.3824706720709431,77,2026-10-07 20:31:29.956243,25.0,0.5722939102204277,1.0701408728933122,1.5899850474382897
0612,cdot_cos,S,R-S,78,15,13921,-0.0019451573079572017,-0.01600532064645559,-0.07042386410091042,0.14671563529422216,818.0,1.6582948370172492,0.5468037304198368,4.829240415375453,-0.010061739730113392,0.049,0.9999999999998328,102.03391336792652,0.3874378158149833,78,2026-10-07 20:31:30.005243,25.0,0.1601865943581832,0.39197986446205785,0.34814689079180355
0612,cdot_cos,T,S-T,79,15,14151,-0.04724767883518913,-0.003414716047079317,-0.04530252152723192,0.24368841150092233,818.0,1.6796496660857325,0.5471036705326005,4.862764423536597,-0.012740550044061195,0.23,0.9999999999998243,-8.931150586245066,0.3924050051001579,79,2026-10-07 20:31:30.235244,25.0,0.8103746497231012,0.15143745102764147,0.09284708290644911
0612,cdot_cos,P,T-P,80,16,14550,0.02175371352050514,-6.352429802917885e-05,0.06900139235569427,0.8487762154458219,859.0,1.7279560644899643,0.548148105214345,4.902786376613411,-0.02940983290842669,0.399,0.9999999999998197,-15.960100861953928,0.39737223913062736,80,2026-10-07 20:31:30.634243,25.0,0.5673420780176384,0.09038994080120034,0.1210686676797789
0612,cdot_cos,Q,P-Q,81,16,14679,-0.01365384663036219,-0.018779012796801837,-0.03540756015086733,0.2921036450090566,859.0,1.7517808388450904,0.548507446503446,4.936567775423158,-0.014809925036812461,0.129,0.9999999999998055,40.629641831978596,0.4023394035704032,81,2026-10-07 20:31:30.763244,25.0,0.3731334454121045,0.2853485274226556,0.18468817329555107
0612,cdot_cos,R,Q-R,82,16,14711,0.06147006897682534,0.1388960903513535,0.07512391560718754,0.8673924933958399,859.0,1.8015759845650094,0.5495741995388351,4.976606819338809,-0.031595116067596914,0.032,0.9999999999998,-15.73484253050282,0.40730654238663005,82,2026-10-07 20:31:30.795244,25.0,0.5878643588040693,1.072159763414092,1.5560983037474705
0612,cdot_cos,S,R-S,83,16,14759,-0.0008489309763497518,-0.020784464101818806,-0.06231899995317509,0.17393741356054088,859.0,1.8203990637035923,0.5497880600053086,5.008808386345636,-0.012172869658151054,0.048,0.9999999999997888,90.81737606636744,0.41227368609141096,83,2026-10-07 20:31:30.843244,25.0,0.20279988786173242,0.45981928121430204,0.392147482053809
0612,cdot_cos,T,S-T,84,16,14970,-0.03173608426631804,0.002462166493827864,-0.03088715328996829,0.316007969669475,859.0,1.8457186355615824,0.5501765526982957,5.042452186312612,-0.01657110477878269,0.211,0.9999999999997795,-11.32128145529198,0.41724087635275664,84,2026-10-07 20:31:31.054244,25.0,0.7668869153829407,0.1719416094411738,0.11999797089094864
0612,cdot_cos,P,T-P,85,17,15409,0.021830991320025188,-0.0001368103057330332,0.05356707558634323,0.7923545486574769,838.0,1.8929584228877676,0.5511503844714188,5.081356307726045,-0.03151674731385174,0.439,0.9999999999997732,-15.347252931722661,0.42220813435908794,85,2026-10-07 20:31:31.493243,25.0,0.6223748456084139,0.08195640523100678,0.10760771600497761
0612,cdot_cos,Q,P-Q,86,17,15538,-0.01290794975957753,-0.018498382998451218,-0.034738941079602716,0.29557202852350667,838.0,1.9176763593544064,0.5515135529514202,5.114527224431955,-0.016805815245916976,0.129,0.9999999999997562,40.50718296884737,0.4271753016918001,86,2026-10-07 20:31:31.622243,25.0,0.41671709337530355,0.290387650817221,0.19161191059409904
0612,cdot_cos,R,Q-R,87,17,15569,0.05450640074236909,0.12117852628394417,0.06741435050194662,0.8436128164017181,838.0,1.9678784367986106,0.5525497941256903,5.153842342233056,-0.03478847484547808,0.031,0.9999999999997493,-17.35373969503645,0.4321424397756514,87,2026-10-07 20:31:31.653243,25.0,0.596357902285345,1.144406424260001,1.6194218530388464
0612,cdot_cos,S,R-S,88,17,15618,-0.0001209159500489911,-0.019462613811594937,-0.05462731669241808,0.2033182315994485,838.0,1.9886295576585264,0.552799469613716,5.18571965793064,-0.014640909953857861,0.049,0.9999999999997361,80.69500554875438,0.4371095839627141,88,2026-10-07 20:31:31.702244,25.0,0.25255802495638663,0.4616891779835676,0.42349226244726157
0612,cdot_cos,T,S-T,89,17,15848,-0.037449477784790054,-0.005465746714194208,-0.037328561834741064,0.282273109458647,838.0,2.0131239762410003,0.5531460577949395,5.218370449723597,-0.017477021495810624,0.23,0.9999999999997246,-8.182943607425782,0.44207678620483976,89,2026-10-07 20:31:31.932243,25.0,0.8502060091440222,0.1612799788359564,0.10649747209771221
0612,cdot_cos,P,T-P,90,18,16247,0.021927306801738475,-5.6135784163370926e-05,0.05937678458652853,0.8152392094962877,839.0,2.0628183479230664,0.5541467556324319,5.257098752887198,-0.036099109371264516,0.399,0.9999999999997174,-18.609101746556224,0.447044045134131,90,2026-10-07 20:31:32.331244,25.0,0.5969869432493234,0.0944900105005411,0.12454729744878731
0612,cdot_cos,Q,P-Q,91,18,16377,-0.011704684037469585,-0.01687153238637724,-0.03363199083920806,0.3013663697260701,839.0,2.088527004620432,0.5545165691371242,5.289752075264881,-0.01901773811857576,0.13,0.9999999999996977,46.1891494927945,0.4520112159498604,91,2026-10-07 20:31:32.461244,25.0,0.40730987844851035,0.3004461960599592,0.19775889767204355
0612,cdot_cos,R,Q-R,92,18,16408,0.06083772596593007,0.13373306402553306,0.07254241000339966,0.8597916124164213,839.0,2.140934358898656,0.5555713058414552,5.328853939844325,-0.039478779709895925,0.031,0.99999999999969,-19.3991936635016,0.45697835363702555,92,2026-10-07 20:31:32.492243,25.0,0.5955443103165925,1.1707976193290444,1.6905598154265722
0612,cdot_cos,S,R-S,93,18,16457,-6.67500358305807e-05,-0.018972872318128484,-0.060904476001760646,0.17907722580560592,839.0,2.161116457018833,0.5557909235192597,5.359854741421075,-0.015462697531513699,0.049,0.9999999999996744,109.35404844666725,0.46194549811923974,93,2026-10-07 20:31:32.541243,25.0,0.21157779682118302,0.4554838860245227,0.4118795534730003
0612,cdot_cos,T,S-T,94,18,16667,-0.04042348427721608,0.00015833496204649422,-0.0403567342413855,0.2671915835721823,839.0,2.185571779729059,0.5561185628025404,5.391770698380864,-0.018928264484323,0.21,0.9999999999996605,-10.577385343140188,0.4669127002522031,94,2026-10-07 20:31:32.751244,25.0,0.8326936055358374,0.18014324087461478,0.11645391766774388
0612,cdot_cos,P,T-P,95,19,17086,0.01973281101114028,-9.333250738967657e-05,0.06015629528835636,0.8181565253904074,898.0,2.236776618186171,0.5571215090940974,5.430150022544654,-0.040303521301498134,0.419,0.9999999999996525,-21.31246408418374,0.4718799799560681,95,2026-10-07 20:31:33.170244,25.0,0.5883948435242058,0.09205481842213316,0.12220725168761812
0612,cdot_cos,Q,P-Q,96,19,17215,-0.01575885528305048,-0.01999191254238693,-0.03549166629419076,0.29166905031803836,898.0,2.2627137175668066,0.5574789426995769,5.462157186827114,-0.020767856111642946,0.129,0.9999999999996299,54.65536785118453,0.47684715370266234,96,2026-10-07 20:31:33.299244,25.0,0.3903668418036214,0.30557838459087566,0.20106278589639998
0612,cdot_cos,R,Q-R,97,19,17245,0.050900961276515146,0.1180932005903693,0.06665981655956563,0.8411080093361182,898.0,2.315615841410617,0.5585093663095747,5.500680744796971,-0.043080093196509794,0.03,0.9999999999996205,-21.653460643156052,0.48181429056522806,97,2026-10-07 20:31:33.329243,25.0,0.5957557380083247,1.2523872547714587,1.7634041281270108
0612,cdot_cos,S,R-S,98,19,17295,-0.0020499345362986507,-0.01872119333778958,-0.05295089581281379,0.21019134988385701,898.0,2.337856952853094,0.5587667889619445,5.531510416165913,-0.018406744076508982,0.05,0.9999999999996027,95.84762216090174,0.48678143572290805,98,2026-10-07 20:31:33.379244,25.0,0.26172745186097013,0.4976488942022117,0.44482222884954403
0612,cdot_cos,T,S-T,99,19,17525,-0.032905966453714436,0.002419593402775767,-0.030856031917415785,0.3161761634688124,898.0,2.365380730830838,0.5591539523390961,5.56351300851338,-0.023018013987392637,0.23,0.9999999999995868,-11.910397994792524,0.49174865245164556,99,2026-10-07 20:31:33.609244,25.0,0.8184580859316087,0.1717246241835306,0.11966859990323464
0612,cdot_cos,P,T-P,100,20,17984,0.02162499477249105,-4.005155196111182e-05,0.05453096122620549,0.7962912982432778,839.0,2.4168502799775182,0.5601287055815508,5.601288560527188,-0.04374605406777367,0.459,0.9999999999995772,-21.264910110155526,0.4967159634571113,100,2026-10-07 20:31:34.068243,25.0,0.6226152613577806,0.08502738305691472,0.11213409400148174
0612,cdot_cos,Q,P-Q,101,20,18094,-0.013979645950678774,-0.015085877878981609,-0.03560464072316982,0.2910858859552945,839.0,2.443435868477086,0.560484913281648,5.632805334689903,-0.022960976573452946,0.11,0.9999999999995502,58.35100557526483,0.5016831326063846,101,2026-10-07 20:31:34.178244,25.0,0.4044468665215917,0.37582617271459245,0.2416871681778873
0612,cdot_cos,R,Q-R,102,20,18143,0.06484775568424478,0.13372761227545746,0.07882740163492355,0.877684674280866,839.0,2.4995320379747286,0.5615585752572994,5.671465306144325,-0.04924613549937498,0.049,0.9999999999995401,-24.481782462282588,0.5066502768920175,102,2026-10-07 20:31:34.227243,25.0,0.5864014284170203,0.7819253992932874,1.1448197856661781
0612,cdot_cos,S,R-S,103,20,18194,-5.7942034973928323e-05,-0.018319930658612683,-0.06490569771921871,0.16484076733546354,839.0,2.520064557607828,0.5617601591801492,5.7012446542286055,-0.01830283580058871,0.051,0.9999999999995172,153.50083112448064,0.5116174226251684,103,2026-10-07 20:31:34.278244,25.0,0.18440355098306577,0.4588087217296054,0.4025984241784203
0612,cdot_cos,T,S-T,104,20,18384,-0.03831258450627322,0.005907839500615311,-0.0382546424712993,0.27760635945087814,839.0,2.5463305275911483,0.562099598137918,5.732315364373539,-0.02362792802669883,0.19,0.9999999999994981,-15.687922980654173,0.5165846293872283,104,2026-10-07 20:31:34.468243,25.0,0.7982185898092637,0.2108172057377549,0.13824194728063324
0612,cdot_cos,P,T-P,105,21,18823,0.02178592044273079,-0.00011973050207970334,0.06009850494900401,0.8179414805777393,859.0,2.600175095788175,0.563099384551025,5.770053464493552,-0.04917751419024262,0.439,0.9999999999994881,-25.555044386073384,0.5215519486376448,105,2026-10-07 20:31:34.907244,25.0,0.5947952944816668,0.09325610850436487,0.12265277493627914
0612,cdot_cos,Q,P-Q,106,21,18952,-0.010850392991136147,-0.01484223419874458,-0.032636313433866936,0.3066330025415884,859.0,2.6282093908579807,0.5634740566205411,5.80132245193976,-0.026006724762403184,0.129,0.999999999999458,61.842852224799856,0.5265191293041571,106,2026-10-07 20:31:35.036243,25.0,0.41026426904096597,0.32912170231020166,0.2173201168202001
0612,cdot_cos,R,Q-R,107,21,18983,0.06389425340648895,0.12877393438987497,0.0747446463976251,0.8662980744267753,859.0,2.685088494984207,0.5645321855679519,5.839568351250901,-0.053592768175270325,0.031,0.9999999999994457,-26.070587597444952,0.5314862654176382,107,2026-10-07 20:31:35.067244,25.0,0.5976592890826689,1.2572068606466327,1.834809810523426
0612,cdot_cos,S,R-S,108,21,19032,-0.0007828517885086655,-0.01852271511655566,-0.06467710519499761,0.16562902353512296,859.0,2.706156216218072,0.5647344244538741,5.868894316728589,-0.020139547854127193,0.049,0.9999999999994206,165.41438195033368,0.5364534106117265,108,2026-10-07 20:31:35.116243,25.0,0.18993543680042782,0.4965904275885051,0.4299534945686739
0612,cdot_cos,T,S-T,109,21,19242,-0.036375457404180085,0.0028945141180325876,-0.03559260561567142,0.2911479774407353,859.0,2.7337543568878804,0.5650898741633192,5.899713525278347,-0.026615409195812782,0.21,0.9999999999993986,-18.218783613003374,0.541420633413875,109,2026-10-07 20:31:35.326244,25.0,0.7840264792407,0.1966256847147167,0.13141971747527847
0612,cdot_cos,P,T-P,110,22,19682,0.02301276809021268,-0.00017068206515117245,0.059388225494392766,0.8152822875633625,858.0,2.788739003798253,0.5660848591612164,5.937150211978877,-0.05380312402430111,0.44,0.9999999999993862,-27.324748499673056,0.5463879704730895,110,2026-10-07 20:31:35.766243,25.0,0.6033133794028632,0.09386296488800445,0.12496510661448301
0612,cdot_cos,Q,P-Q,111,22,19811,-0.013584343915277417,-0.01859627383109098,-0.036597112005490096,0.28599251626440214,858.0,2.8163537659893243,0.5664337637693035,5.967752328434452,-0.027420363947898443,0.129,0.9999999999993523,75.61596913565282,0.5513551548623362,111,2026-10-07 20:31:35.895243,25.0,0.38206697095992254,0.33429309323483947,0.21406792396179375
0612,cdot_cos,R,Q-R,112,22,19840,0.0641025285069755,0.15160844115433314,0.07768687242225292,0.874590545698981,858.0,2.8749866218528415,0.5675003350781384,6.005861392971237,-0.05908156730413058,0.029,0.9999999999993393,-29.685031927983253,0.5563222893760226,112,2026-10-07 20:31:35.924243,25.0,0.5851484521235794,1.3818947671838397,2.0218226159833512
0612,cdot_cos,S,R-S,113,22,19891,-0.0007646736074763383,-0.0175717142892155,-0.06486720211445184,0.16497330067521002,858.0,2.896503662485987,0.5677014517391424,6.034751584511771,-0.021984612359369004,0.051,0.99999999999931,184.4549067170914,0.5612894358735169,113,2026-10-07 20:31:35.975244,25.0,0.18499888876127712,0.48703167123302615,0.4219027575126573
0612,cdot_cos,T,S-T,114,22,20121,-0.03660938625872891,-0.0024714654825651896,-0.03584471265125257,0.28984894020008384,858.0,2.92466385231861,0.5680547484784196,6.065167390620736,-0.029014098935328934,0.23,0.999999999999285,-19.896834005152165,0.5662566766704927,114,2026-10-07 20:31:36.205244,25.0,0.7848377265492816,0.18328570639527625,0.12243560796792669
0612,cdot_cos,P,T-P,115,23,20540,0.022401028288369828,-4.897242754367353e-05,0.05901041454709874,0.813855619026034,839.0,2.980815087427814,0.5690463855274767,6.102345139070965,-0.05865933489771767,0.419,0.9999999999992709,-29.895248458676672,0.5712240203849613,115,2026-10-07 20:31:36.624243,25.0,0.6032764792788798,0.1027274545576689,0.13401249429404283
0612,cdot_cos,Q,P-Q,116,23,20689,-0.008155140369469011,-0.0165330974250022,-0.03055616865783884,0.3177992193868502,839.0,3.0107494592379367,0.5694334560819589,6.132988722427681,-0.0317203638221807,0.149,0.9999999999992335,69.59705604981646,0.5761912196161117,116,2026-10-07 20:31:36.773243,25.0,0.42772951706151635,0.2824567136329729,0.2009018242290107
0612,cdot_cos,R,Q-R,117,23,20721,0.03983141886188519,0.1366419172745865,0.0479865592313542,0.7684650021550374,839.0,3.06498718809044,0.5703690734492289,6.169487595922601,-0.05825006796713997,0.032,0.9999999999992146,-28.35529252986127,0.5811583550075747,117,2026-10-07 20:31:36.805243,25.0,0.6341656802944118,1.290529223240383,1.694929026640729
0612,cdot_cos,S,R-S,118,23,20769,0.0027046109335947736,-0.018437747217893773,-0.037126807928290415,0.2832960890295591,839.0,3.093343329525321,0.5707138641506596,6.1995422101603905,-0.030861705446752204,0.048,0.9999999999991851,79.43474811455893,0.5861255000469315,118,2026-10-07 20:31:36.853244,25.0,0.4117023665953659,0.5808609206569559,0.5907529465600247
0612,cdot_cos,T,S-T,119,23,20960,-0.03822352114986559,0.0001562805829792693,-0.04092813208346036,0.26440390594923385,839.0,3.120749836473508,0.5710355998801909,6.2292657621195895,-0.03009264709545285,0.191,0.9999999999991555,2.3903417640921436,0.5910927273287394,119,2026-10-07 20:31:37.044243,25.0,0.9747674450710271,0.22347861555033646,0.14348956517375175
0612,cdot_cos,P,T-P,120,24,21379,0.02373345939733881,-0.0001486057605002109,0.0619569805472044,0.8247583439155606,818.0,3.1787121606655497,0.5720388072522347,6.266374062998634,-0.06447979150860857,0.419,0.9999999999991412,-34.27720466517524,0.5960600890799009,120,2026-10-07 20:31:37.463244,25.0,0.5866651232470103,0.10362856805812785,0.13833490260630538
0612,cdot_cos,Q,P-Q,121,24,21508,-0.01274136699524937,-0.019242597542884855,-0.03647482639258818,0.286617194964598,818.0,3.207590576506219,0.5723873002414895,6.296263429946114,-0.03256176635705855,0.129,0.9999999999990988,91.5887152272267,0.6010272815616611,121,2026-10-07 20:31:37.592243,25.0,0.37522473058272315,0.3477388806446761,0.22386368868735806
0612,cdot_cos,R,Q-R,122,24,21539,0.06252380894161741,0.1621766310237071,0.07526517593686678,0.8677981704388071,818.0,3.268428791871876,0.573442002043001,6.33387712563214,-0.06951790543164746,0.031,0.9999999999990818,-35.039419693441545,0.6059944159938793,122,2026-10-07 20:31:37.623244,25.0,0.5876603996894346,1.3527595939446166,1.9625230763115245
0612,cdot_cos,S,R-S,123,24,21588,0.0006235024872326667,-0.018810450945978642,-0.06190030645438474,0.1754465308453045,818.0,3.291461671330785,0.5736551548649416,6.362146633524096,-0.02665638490810907,0.049,0.9999999999990459,201.08352370530525,0.6109615621061342,123,2026-10-07 20:31:37.672243,25.0,0.20030241458900883,0.5234706171300793,0.47005876446753003
0612,cdot_cos,T,S-T,124,24,21798,-0.03923405045959484,-0.0028741008282003803,-0.03985755294682751,0.26964216699391325,818.0,3.319728912350624,0.573982694117955,6.391603992287114,-0.03296352459245407,0.21,0.9999999999990135,-19.256133810888212,0.6159288085324147,124,2026-10-07 20:31:37.882244,25.0,0.825854284009255,0.2069663545809339,0.13460590961827998
0612,cdot_cos,P,T-P,125,25,22197,0.020263816418522793,-1.6826527941020475e-05,0.05949786687811763,0.815694722682416,858.0,3.3783875402547774,0.5749731370825563,6.428398432033096,-0.06926167818516586,0.399,0.9999999999989969,-36.64840368402705,0.6208961761007183,125,2026-10-07 20:31:38.281244,25.0,0.5921041774761113,0.11083641265055072,0.14701410502294093
0612,cdot_cos,Q,P-Q,126,25,22327,-0.015092732001348506,-0.020898908395629627,-0.0353565484198713,0.29236741891010914,858.0,3.4081763696457634,0.5753279930261349,6.458044283587941,-0.03563009800554305,0.13,0.9999999999989516,94.77530470662393,0.6258633735873099,126,2026-10-07 20:31:38.411244,25.0,0.3891037424959245,0.35124334057477286,0.22914484146912337
0612,cdot_cos,R,Q-R,127,25,22356,0.056906978813856215,0.1339283481254261,0.07199971081520472,0.8581480550403747,858.0,3.4697108088042183,0.576369105896191,6.495353599117825,-0.07454286613476141,0.029,0.9999999999989335,-37.376128226254544,0.6308305062405998,127,2026-10-07 20:31:38.440243,25.0,0.5933216153843621,1.4812444826399684,2.121877212360514
0612,cdot_cos,S,R-S,128,25,22407,-0.0007847879474979019,-0.02113297606443294,-0.05769176676135412,0.19119033472578564,858.0,3.4940885496388816,0.576600967725353,6.523498923253377,-0.029895748943208095,0.051,0.9999999999988939,192.55915194370144,0.6357976541516304,128,2026-10-07 20:31:38.491244,25.0,0.2246016363734265,0.5441915131317103,0.4779949183267307
0612,cdot_cos,T,S-T,129,25,22637,-0.032727886772594666,-0.0024195857022046145,-0.031943098825096765,0.3103298939030509,858.0,3.525218343143653,0.5769772415540816,6.553205419497728,-0.0384713458747996,0.23,0.9999999999988598,-22.79084081018134,0.6407649226987107,129,2026-10-07 20:31:38.721244,25.0,0.8001879190187284,0.19590838922630935,0.13534692828161385
0612,cdot_cos,P,T-P,130,26,23055,0.022913784667774644,6.560293031722491e-05,0.055641671440369314,0.8007585062722248,820.0,3.584206408682984,0.5779477447926772,6.58962197619455,-0.07379006387592923,0.418,0.9999999999988403,-36.392169130974594,0.6457323217033327,130,2026-10-07 20:31:39.139244,25.0,0.6196268379270033,0.1069393760398648,0.14111977401753856
0612,cdot_cos,Q,P-Q,131,26,23185,-0.012335334244658649,-0.018918571633484104,-0.03524911891243329,0.292923377412974,820.0,3.6146196615129798,0.5783026121379474,6.618980034933426,-0.03851457468524709,0.13,0.9999999999987892,99.40472027320303,0.6506995236396138,131,2026-10-07 20:31:39.269243,25.0,0.40015642472850493,0.35730018698408433,0.23394809869227579
0612,cdot_cos,R,Q-R,132,26,23216,0.05819598772232725,0.15753471320238627,0.0705313219669859,0.8536203622951262,820.0,3.677104457298846,0.5793362836570917,6.656071331545081,-0.08009673807554313,0.031,0.9999999999987689,-40.22763771678762,0.6556666569272801,132,2026-10-07 20:31:39.300243,25.0,0.5950265374896848,1.409564332683108,2.0156385737376152
0612,cdot_cos,S,R-S,133,26,23265,0.0007474205518285947,-0.019300536403993564,-0.057448567170498656,0.19213228928924608,820.0,3.7020126501393325,0.5795688461967364,6.683918185310874,-0.03230658418967465,0.049,0.9999999999987246,205.49377366994295,0.6606338037882852,133,2026-10-07 20:31:39.349244,25.0,0.22780397327841187,0.5605235948226626,0.50833046613238
0612,cdot_cos,T,S-T,134,26,23475,-0.03692018399218202,-0.0027613974166613015,-0.037667604544010615,0.28055907396622365,820.0,3.7320357695914668,0.5799083796353743,6.712929030825019,-0.039221941728194626,0.21,0.9999999999986856,-20.367235599126996,0.6656010676429945,134,2026-10-07 20:31:39.559244,25.0,0.8383551238840178,0.21651286664818015,0.1429672354863539
0612,cdot_cos,P,T-P,135,27,23875,0.02228312589514876,-0.00016056339910465846,0.05920330988733078,0.8145850788548024,818.0,3.792948054131568,0.5808937633982222,6.749379968243998,-0.08049626984638111,0.4,0.9999999999986647,-41.88655189415746,0.6705684732342286,135,2026-10-07 20:31:39.959244,25.0,0.598847483225835,0.11444890377677486,0.15228071135025334
0612,cdot_cos,Q,P-Q,136,27,24004,-0.014120939534193754,-0.02144912050387931,-0.03640406542934252,0.28697903988321843,818.0,3.8235948926128867,0.5812407617409144,6.778378493058163,-0.04098345046418046,0.129,0.9999999999986093,113.87034034696865,0.6755356791728856,136,2026-10-07 20:31:40.088243,25.0,0.38131996050507055,0.35537718305911864,0.23757239132805077
0612,cdot_cos,R,Q-R,137,27,24033,0.04350543239814694,0.1389732092345752,0.0576263719323407,0.8085567267959585,818.0,3.8846353673608207,0.582217988231699,6.814691569725038,-0.08255671238377832,0.029,0.9999999999985856,-42.54209470541501,0.6805028104159015,137,2026-10-07 20:31:40.117243,25.0,0.6043679007369348,1.5527119947550518,2.104843956825312
0612,cdot_cos,S,R-S,138,27,24084,0.0005690323630386877,-0.017972296762564396,-0.042936400035108256,0.2547551373608658,818.0,3.9136521883086797,0.5825257534962578,6.843132898021285,-0.03969523500004299,0.051,0.99999999999854,139.26677997656017,0.6854699593019042,138,2026-10-07 20:31:40.168243,25.0,0.3396757510202086,0.5681538251761066,0.5689572734874305
0612,cdot_cos,T,S-T,139,27,24314,-0.04286671966512038,-0.009806309391169816,-0.043435752028159066,0.252392290825813,818.0,3.9425870575287836,0.5828306008667924,6.871476208254676,-0.03986901407810315,0.23,0.9999999999984953,-0.5700527373925228,0.6904372479411792,139,2026-10-07 20:31:40.398243,25.0,0.9956507352407109,0.20007402819282327,0.12580377921784308
0612,cdot_cos,P,T-P,140,28,24693,0.021340974248982212,-5.317439328477813e-05,0.0642076939141026,0.8327428368091542,839.0,4.005686241277378,0.5838359637325155,6.908045222774836,-0.08790151689828919,0.379,0.9999999999984733,-47.7762850188832,0.6954046564355898,140,2026-10-07 20:31:40.777244,25.0,0.5790100605295041,0.12367840186069554,0.1664886114738649
0612,cdot_cos,Q,P-Q,141,28,24803,-0.01693520331127517,-0.018273351120279994,-0.038276177560257384,0.2774984056351518,839.0,4.036335286139191,0.5841708305893234,6.936649525966019,-0.04318982721525852,0.11,0.9999999999984128,133.52079721844112,0.7003718519712457,141,2026-10-07 20:31:40.887244,25.0,0.35514234593228966,0.44214491052622196,0.27862768056193105
0612,cdot_cos,R,Q-R,142,28,24834,0.06436797055925711,0.1301177988621116,0.08130317387053228,0.8841754886176612,839.0,4.102958121593147,0.5852372759593356,6.973912333364094,-0.09494802839779462,0.031,0.9999999999983924,-48.53338261662976,0.705338984340074,142,2026-10-07 20:31:40.918243,25.0,0.57977140083407,1.4571666216537276,2.149123724321175
0612,cdot_cos,S,R-S,143,28,24883,-0.0029917865637205474,-0.019524651592199984,-0.06735975712297766,0.15656733098424686,839.0,4.126679616681722,0.5854260362213654,7.000682515930228,-0.03417758114518852,0.049,0.9999999999983378,321.9451308190653,0.7103061322961913,143,2026-10-07 20:31:40.967244,25.0,0.16896237321654212,0.581011406254813,0.48411214466478947
0612,cdot_cos,T,S-T,144,28,25093,-0.03394756483939878,0.005247224549058961,-0.030955778275678233,0.3156372597748328,839.0,4.159897239406119,0.5858064976244303,7.029683325256466,-0.048177653361697485,0.21,0.9999999999982929,-36.79761495838333,0.7152734150222083,144,2026-10-07 20:31:41.177243,25.0,0.7478202365934878,0.22716449810281172,0.15817915583046185
0612,cdot_cos,P,T-P,145,29,25532,0.021178491175141173,-0.00012599196284225858,0.05512605601453995,0.7986939429443797,818.0,4.222088705884903,0.5867687655444421,7.065637110822815,-0.09117636793494824,0.439,0.9999999999982687,-44.68476364952574,0.7202408938447586,145,2026-10-07 20:31:41.616243,25.0,0.6240034785937769,0.10683412922719573,0.14166621065782217
0612,cdot_cos,Q,P-Q,146,29,25641,-0.01571709541753772,-0.01755239172777304,-0.03689558659267889,0.28447123393704116,818.0,4.253697604867597,0.5871113374188157,7.0940991964243745,-0.046847589843471066,0.109,0.9999999999982024,129.3999344591115,0.7252080923240637,146,2026-10-07 20:31:41.725244,25.0,0.38820027122694467,0.4527395028183172,0.28998989892379745
0612,cdot_cos,R,Q-R,147,29,25673,0.061215995929522364,0.13344708808031538,0.07693309134706008,0.8725090098265238,818.0,4.320785917499296,0.5881615211159338,7.131085457722411,-0.10051312818191994,0.032,0.9999999999981789,-51.10109639458199,0.7301752248907688,147,2026-10-07 20:31:41.757244,25.0,0.5863046690833564,1.4377591423379992,2.0965097697406008
0612,cdot_cos,S,R-S,148,29,25721,-0.002284530048904934,-0.01907614580555533,-0.0635005259784273,0.16973406710496916,818.0,4.345714189977229,0.5883657263066101,7.157783992402477,-0.03774325078747707,0.048,0.9999999999981195,307.38629702090867,0.7351423723384278,148,2026-10-07 20:31:41.805243,25.0,0.18955509734548662,0.5996077667843417,0.5193390099569317
0612,cdot_cos,T,S-T,149,29,25951,-0.03684536524246238,-0.0026972602251153217,-0.034560835193557446,0.2964999537514521,818.0,4.378348263110593,0.588722369109494,7.186278370815419,-0.04972561139697296,0.23,0.999999999998069,-33.597651523042494,0.7401096825911658,149,2026-10-07 20:31:42.035244,25.0,0.785865517578923,0.21031371215623604,0.14188727449288732
0612,cdot_cos,P,T-P,150,30,26350,0.021865520301797878,-1.4816163052323838e-05,0.05871088554426026,0.8127185258793667,819.0,4.442458497569097,0.589699462805606,7.222320162432382,-0.09869903523262996,0.399,0.9999999999980423,-50.121522665155034,0.7450771481195568,150,2026-10-07 20:31:42.434243,25.0,0.6088462606033813,0.12174937307690689,0.1606772793446228
0612,cdot_cos,Q,P-Q,151,30,26480,-0.012184140817663471,-0.018867040083284593,-0.03404966111946135,0.2991724835665864,819.0,4.4755042628259645,0.5900589662313798,7.2507725856003935,-0.05142126079762226,0.13,0.9999999999979722,131.50855053259983,0.7500443699028362,151,2026-10-07 20:31:42.564243,25.0,0.39874994804294356,0.37053955070240896,0.2541981942835938
0612,cdot_cos,R,Q-R,152,30,26512,0.0412877950261391,0.1474188645034309,0.05347193584380257,0.7919629458014557,819.0,4.538798780751724,0.5910101705459572,7.286469467850844,-0.09948328554891148,0.032,0.9999999999979406,-50.52755124711772,0.7550115018037752,152,2026-10-07 20:31:42.596244,25.0,0.6168579054544859,1.4768600731801111,1.9779536851799728
0612,cdot_cos,S,R-S,153,30,26560,0.0006062441505789381,-0.016429072593106823,-0.04068155087556016,0.26560461307902256,819.0,4.570023307509492,0.5913290286107574,7.314342868843974,-0.04957988596599095,0.048,0.9999999999978816,156.50662502195811,0.7599786495596744,153,2026-10-07 20:31:42.644243,25.0,0.36548680632720604,0.6541383654000513,0.6505109741201665
0612,cdot_cos,T,S-T,154,30,26790,-0.03911491572342843,-0.00904575678043952,-0.039721159874007365,0.270314209380196,819.0,4.6015960638301285,0.5916534616548789,7.342233134141094,-0.050466043433597896,0.23,0.9999999999978242,-2.731403239169555,0.7649459710916815,154,2026-10-07 20:31:42.874244,25.0,0.9825937894964489,0.21264538342110953,0.13727285356798669
0612,cdot_cos,P,T-P,155,31,27169,0.02430859048235711,-0.00011173290144256822,0.06342350620578555,0.8299944111540905,779.0,4.667840183883202,0.5926491268007492,7.378429111169043,-0.1069329027179596,0.379,0.9999999999977962,-56.7127005686252,0.7699134388210133,155,2026-10-07 20:31:43.253243,25.0,0.5897486849158875,0.1304691569222623,0.1747865964461041
0612,cdot_cos,Q,P-Q,156,31,27298,-0.012687952330907228,-0.021497999846359205,-0.03699654281326434,0.2839577792340598,779.0,4.700491684777203,0.5929895896937964,7.406444979310137,-0.053255251430222944,0.129,0.9999999999977203,157.66079764906965,0.7748806650332717,156,2026-10-07 20:31:43.382244,25.0,0.3649731062986918,0.38376144559140624,0.25311241003101836
0612,cdot_cos,R,Q-R,157,31,27329,0.04920475727587443,0.16470651783614526,0.06189270960678166,0.8245259925034946,779.0,4.766850636845785,0.5939776819580045,7.442526516400611,-0.10929291761471281,0.031,0.9999999999976887,-56.71298947918014,0.779847795418236,157,2026-10-07 20:31:43.413243,25.0,0.5988589627315708,1.5530355974662093,2.1406113570510144
0612,cdot_cos,S,R-S,158,31,27378,0.0023482814257494372,-0.020154031918986126,-0.04685647585012499,0.23659987221354026,779.0,4.796779891820108,0.5942610775304676,7.4697534205127125,-0.04978369147147512,0.049,0.9999999999976226,209.98643565955942,0.7848149446731281,158,2026-10-07 20:31:43.462244,25.0,0.3025962603481802,0.6232326125637001,0.6108011219249699
0612,cdot_cos,T,S-T,159,31,27588,-0.040468410042056355,-0.009731683964423128,-0.04281669146780579,0.25532373588159535,779.0,4.827927432877027,0.5945668298144605,7.49720999336017,-0.052128555615008454,0.21,0.9999999999975595,-7.669163130725652,0.789782257578953,159,2026-10-07 20:31:43.672243,25.0,0.9560143698282926,0.23569309568278107,0.14832162408056707
0612,cdot_cos,P,T-P,160,32,27948,0.0254229237386971,-0.00018250693523857265,0.06589133378075346,0.8385235485618695,738.0,4.895770992006876,0.5955704516456879,7.533444288245963,-0.11462002648127671,0.36,0.9999999999975313,-62.26595408934518,0.7947497267897792,160,2026-10-07 20:31:44.032243,25.0,0.579722627886684,0.1416562166608225,0.18845433091624714
0612,cdot_cos,Q,P-Q,161,32,28077,-0.008577537114669218,-0.016500617402702394,-0.03400046085336632,0.29943044066883984,738.0,4.92991990887282,0.5959286443184149,7.56149496360579,-0.058282312763404995,0.129,0.9999999999974527,157.2832668210821,0.799716958735821,161,2026-10-07 20:31:44.161243,25.0,0.38036086433186195,0.3855272893696149,0.26472028578250567
0612,cdot_cos,R,Q-R,162,32,28108,0.04474508586030894,0.1547305338495945,0.053322622974978154,0.791347264628124,738.0,4.995237032664237,0.5968747979886749,7.596984185615322,-0.11252058870012435,0.031,0.9999999999974178,-57.32501774453886,0.8046840887359247,162,2026-10-07 20:31:44.192243,25.0,0.6175286642419673,1.5759523169331935,2.107003993271529
0612,cdot_cos,S,R-S,163,32,28157,0.004562178764368719,-0.02187695634411939,-0.04018290709594022,0.2680433288767823,738.0,5.027628952522678,0.597195114003964,7.6244851006677345,-0.056335741124006466,0.049,0.9999999999973499,175.404428421788,0.8096512387546263,163,2026-10-07 20:31:44.241244,25.0,0.36886611572555555,0.6564932989045944,0.6610595889477671
0612,cdot_cos,T,S-T,164,32,28367,-0.03725346268955553,-0.016663536861329254,-0.04181564145392425,0.26011113002380837,738.0,5.059573375956887,0.5975058716706151,7.6518169787218575,-0.05590001663299419,0.21,0.9999999999972828,1.402135933468241,0.8146185626804183,164,2026-10-07 20:31:44.451244,25.0,0.9922355886899217,0.23585426800062423,0.15211630206766508
0612,cdot_cos,P,T-P,165,33,28686,0.020869592346135658,-1.973231887443049e-05,0.05812305503569119,0.8104714397561756,779.0,5.12668774508294,0.5984736478967578,7.687541753550837,-0.11850420550611634,0.319,0.9999999999972512,-64.68870301003659,0.819586007703637,165,2026-10-07 20:31:44.770243,25.0,0.5896143247436711,0.16017531124047812,0.21038987186850316
0612,cdot_cos,Q,P-Q,166,33,28816,-0.01194204744099287,-0.02071996693892501,-0.032811639787128526,0.30570189329017206,779.0,5.161765224528312,0.5988384847745287,7.715503092659508,-0.06253912867987049,0.13,0.9999999999971707,153.3975325306632,0.8245532468404614,166,2026-10-07 20:31:44.900243,25.0,0.40865623358766845,0.37532097215209165,0.26982676496440416
0612,cdot_cos,R,Q-R,167,33,28866,0.028232388756998673,0.14459981845004863,0.04017443619799154,0.7319151201532029,779.0,5.224271197842484,0.5997115359761136,7.7499900829826425,-0.11241679344210617,0.05,0.9999999999971303,-57.130285911858785,0.8295203979253637,167,2026-10-07 20:31:44.950243,25.0,0.6416674014520641,1.0159644169778925,1.2501194662834259
0612,cdot_cos,S,R-S,168,33,28916,0.006010839809787222,-0.020953102760850394,-0.02222154894721145,0.36458034003048817,779.0,5.263361666226102,0.6001461830152041,7.77879269199959,-0.07096611563581892,0.05,0.9999999999970655,95.3662951277119,0.8344875499526752,168,2026-10-07 20:31:45.000243,25.0,0.5576124355972659,0.7195765214071947,0.7818093676723592
0612,cdot_cos,T,S-T,169,33,29126,-0.034433626448573715,-0.014543605872002823,-0.040444466258360935,0.26676235416464905,779.0,5.296228849983203,0.6004641131400483,7.80604261428243,-0.06006159073801983,0.21,0.999999999996995,34.29849531603987,0.8394548854077233,169,2026-10-07 20:31:45.210243,25.0,0.8339717813913787,0.2406007527380458,0.15651039884334056
0612,cdot_cos,P,T-P,170,34,29465,0.02388639210831526,-0.0001047714928480753,0.058320018556888974,0.8112266604360406,758.0,5.364413982376081,0.6014304203919453,7.841702681136513,-0.1256918040881453,0.339,0.9999999999969624,-67.91857685150089,0.8444223723998701,170,2026-10-07 20:31:45.549243,25.0,0.5932425793046417,0.15148297908539918,0.2011360837548015
0612,cdot_cos,Q,P-Q,171,34,29575,-0.01214620066911706,-0.015512368098245514,-0.036032592777432315,0.2888830805163449,758.0,5.398934309803104,0.6017743383879519,7.869230415054765,-0.06422876909323502,0.11,0.9999999999968745,178.71421591362164,0.8493895942323461,171,2026-10-07 20:31:45.659244,25.0,0.3840665915904399,0.47501173298261695,0.3138211584274812
0612,cdot_cos,R,Q-R,172,34,29625,0.05193273123832801,0.1600711123955791,0.06407893190744507,0.8322940000367933,758.0,5.4689165636322565,0.6027646295355847,7.905193954572268,-0.13136255628428278,0.05,0.9999999999968417,-67.79196941376593,0.8543567463448862,172,2026-10-07 20:31:45.709243,25.0,0.599861038419983,1.007957798003245,1.399645076583056
0612,cdot_cos,S,R-S,173,34,29674,0.003295470524656817,-0.02017906743266455,-0.04863726071367119,0.22865322025471674,758.0,5.499730089603428,0.6030365417996052,7.931717323394899,-0.05836238199299888,0.049,0.9999999999967614,268.46959093316843,0.8593238981862055,173,2026-10-07 20:31:45.758244,25.0,0.28627319830213016,0.6485353172865711,0.6288474687994225
0612,cdot_cos,T,S-T,174,34,29884,-0.03906808215388919,-0.013358290346823601,-0.04236355267854601,0.2574836214617942,758.0,5.5324730247263405,0.603342662724558,7.958646353149622,-0.062359666024507404,0.21,0.999999999996686,-13.057859511316005,0.8642912451362418,174,2026-10-07 20:31:45.968243,25.0,0.937910760942808,0.24551374817109478,0.1559187386805346
0612,cdot_cos,P,T-P,175,35,30223,0.024176539388587555,3.796054326415656e-05,0.06324462154247674,0.8293624474263427,759.0,5.602845863835288,0.60432813625643,7.994520091342286,-0.13516368666801754,0.339,0.9999999999966532,-73.87719536740447,0.8692587522840751,175,2026-10-07 20:31:46.307244,25.0,0.5835436930774299,0.15494896166731645,0.2075894958966004
0612,cdot_cos,Q,P-Q,176,35,30353,-0.012869164192270126,-0.02363225729046235,-0.03704570358085768,0.28370795433961116,759.0,5.637528420736781,0.604665052626195,8.021799178472167,-0.06722275898846988,0.13,0.9999999999965599,201.6551695809391,0.8742260038266414,176,2026-10-07 20:31:46.437243,25.0,0.3639701515721754,0.3963984385908435,0.266788899242254
0612,cdot_cos,R,Q-R,177,35,30382,0.0407931770173519,0.16860245015150596,0.05366234120962202,0.7927461243342842,759.0,5.705909457868907,0.6056059477657711,8.057074022320458,-0.13364267825649692,0.029,0.9999999999965209,-70.59226525279468,0.8791931303497277,177,2026-10-07 20:31:46.466244,25.0,0.6083552226471204,1.7789060103117893,2.357966797659527
0612,cdot_cos,S,R-S,178,35,30433,0.003445777632338895,-0.020596958193183967,-0.037347399385013004,0.2821777094043849,759.0,5.740704969334865,0.6059406706282073,8.084267801219983,-0.06860193556673139,0.051,0.9999999999964411,194.3122206125525,0.8841602855926746,178,2026-10-07 20:31:46.517244,25.0,0.38748077974670764,0.6656002885412349,0.682264930705049
0612,cdot_cos,T,S-T,179,35,30643,-0.03929211507126901,-0.013477453169450803,-0.0427378927036079,0.2556984735573152,759.0,5.773800687300113,0.6062438976473313,8.111001529576603,-0.06561999034936666,0.21,0.9999999999963606,9.834035324356536,0.8891276444123344,179,2026-10-07 20:31:46.727243,25.0,0.95557441829484,0.24845948683423888,0.15759865697737363
0612,cdot_cos,P,T-P,180,36,30982,0.02344975527434157,-2.2826761860238492e-05,0.06274187034561057,0.8275763385245515,759.0,5.845057953805245,0.6072247396052632,8.14678603582747,-0.14243951888160125,0.339,0.9999999999963263,-78.3199861211151,0.8940951723109182,180,2026-10-07 20:31:47.066243,25.0,0.5831485566686155,0.15781770047709137,0.21019842626882554
0612,cdot_cos,Q,P-Q,181,36,31112,-0.011936862136000963,-0.021691058051273988,-0.03538661741034253,0.292211919820932,759.0,5.880801088223581,0.6075708625449141,8.174041730139177,-0.07208416021746222,0.13,0.9999999999962284,203.26696270148224,0.8990624302909995,181,2026-10-07 20:31:47.196243,25.0,0.37680898125355916,0.40362818551885016,0.2749471878333546
0612,cdot_cos,R,Q-R,182,36,31143,0.04119860759008669,0.1329636179451791,0.05313546972608765,0.7905736579808328,759.0,5.950001282040146,0.6085067488336706,8.20921678384684,-0.14068748455016727,0.031,0.9999999999961873,-73.30305525028714,0.9040295589363974,182,2026-10-07 20:31:47.227243,25.0,0.614080537168435,1.6848567543569548,2.2322643166633855
0612,cdot_cos,S,R-S,183,36,31192,0.0037821301272354313,-0.022918901775509634,-0.03741647746285126,0.2818280409514369,759.0,5.9852622069937125,0.6088401862881436,8.236249322583676,-0.07229822035789199,0.049,0.9999999999961022,205.10372567581996,0.9089967125104623,183,2026-10-07 20:31:47.276243,25.0,0.3883171464820982,0.7093806581484562,0.7196107133380868
0612,cdot_cos,T,S-T,184,36,31402,-0.03680324090981524,-0.01254174544882922,-0.04058537103705067,0.2660738954450842,759.0,6.019520586538695,0.6091548914114036,8.262990957851786,-0.0706314137398408,0.21,0.9999999999960175,5.296407636409844,0.9139640835054325,184,2026-10-07 20:31:47.486243,25.0,0.9766776122865718,0.25224410091635135,0.16313514069039264
0612,cdot_cos,P,T-P,185,37,31741,0.02364308308436443,-8.501570108848817e-05,0.060446323994179665,0.8192327737701202,739.0,6.09120472937858,0.6101232870159193,8.29858619061531,-0.14896437198511434,0.339,0.9999999999959808,-80.88941944799686,0.9189316327196951,185,2026-10-07 20:31:47.825243,25.0,0.5910525843929368,0.1565697811286508,0.2114576484952363
0612,cdot_cos,Q,P-Q,186,37,31851,-0.016933419285336995,-0.022810196174837993,-0.04057650236970142,0.26611719420924207,739.0,6.12567489814392,0.6104376714904205,8.325272708275158,-0.07223810241200318,0.11,0.9999999999958742,244.05234926073837,0.9238988696610634,186,2026-10-07 20:31:47.935244,25.0,0.3457185784909309,0.48955928128603693,0.3133651705940013
0612,cdot_cos,R,Q-R,187,37,31882,0.048228139311895166,0.14702595193755524,0.06516155859723216,0.8360379440709532,739.0,6.198907771261508,0.6114247485314497,8.361120657133725,-0.15468232414150412,0.031,0.9999999999958372,-83.52359370403336,0.9288659980344613,187,2026-10-07 20:31:47.966244,25.0,0.586847328656797,1.7053952505296708,2.3623507457286443
0612,cdot_cos,S,R-S,188,37,31930,0.0008342193419226618,-0.021379716381179595,-0.047393919969972505,0.23418163298395336,739.0,6.23140940367676,0.6117010741688681,8.3872355541456,-0.0692208885879367,0.048,0.9999999999957432,309.27798213728573,0.933833151218755,188,2026-10-07 20:31:48.014244,25.0,0.2909455440030737,0.7097114580495075,0.6771173419844086
0612,cdot_cos,T,S-T,189,37,32160,-0.03706243124091502,-0.016514786869852218,-0.03789665058283768,0.27940472877860856,739.0,6.267040071234261,0.612030667433865,8.414043617262806,-0.0762772478417339,0.23,0.9999999999956549,-21.40929443404411,0.938800562988687,189,2026-10-07 20:31:48.244244,25.0,0.9116406794808989,0.23724379909209348,0.15491594590217872
0612,cdot_cos,P,T-P,190,38,32480,0.026838936671640626,-0.00017024907550909678,0.06390136791255564,0.8316734730683661,719.0,6.340541551259123,0.6130111240970607,8.449788614750332,-0.15857654115247938,0.32,0.9999999999956167,-83.93975623818046,0.9437681065958863,190,2026-10-07 20:31:48.564243,25.0,0.5951226147462976,0.16776388520768765,0.22969212507769343
0612,cdot_cos,Q,P-Q,191,38,32589,-0.016982176528094202,-0.02392322521539692,-0.04382111319973483,0.250578781849816,719.0,6.374408957767181,0.6133063514042879,8.476076340808161,-0.07366911394222625,0.109,0.9999999999955036,287.60018173017846,0.9487353474510616,191,2026-10-07 20:31:48.673243,25.0,0.31582998863866135,0.49247310386387916,0.3107101514500752
0612,cdot_cos,R,Q-R,192,38,32620,0.04521907716757714,0.1504272317953795,0.062201253695671345,0.8256392264509692,719.0,6.447900687901448,0.6142785141756879,8.511706850501444,-0.16106015100812587,0.031,0.9999999999954637,-89.89342076949625,0.9537024755094591,192,2026-10-07 20:31:48.704243,25.0,0.5812357998065664,1.736846917389118,2.370700972073144
0612,cdot_cos,S,R-S,193,38,32669,0.001803997412647762,-0.02226552852180023,-0.04341507975492938,0.2524898198031425,719.0,6.482093466645306,0.614575631015001,8.53797162572237,-0.07554253529586964,0.049,0.9999999999953664,287.82487020917984,0.9586696311087037,193,2026-10-07 20:31:48.753243,25.0,0.3223730453034717,0.7129015249405507,0.6978118110991396
0612,cdot_cos,T,S-T,194,38,32879,-0.03733664127759181,-0.01331814647319427,-0.03914063869023957,0.273186347417913,719.0,6.517765037345622,0.6148970062809778,8.564538399353722,-0.07921080877053233,0.21,0.9999999999952731,-11.414299303693237,0.9636370272353413,194,2026-10-07 20:31:48.963244,25.0,0.9547456929079434,0.26155281077793824,0.16986462238245775
0612,cdot_cos,P,T-P,195,39,33199,0.025404546386367327,-0.0001850663822106134,0.06274118766395914,0.8275739031509425,738.0,6.59194564717204,0.615869948195026,8.60017028287694,-0.16595678225688854,0.32,0.9999999999952346,-89.15842994718703,0.9686045917309185,195,2026-10-07 20:31:49.283243,25.0,0.5929162092407458,0.17298578501885736,0.23181440570755607
0612,cdot_cos,Q,P-Q,196,39,33328,-0.011873048120806683,-0.022950121645884693,-0.03727759450717401,0.28253132420332217,738.0,6.628475939757691,0.6162018959622106,8.626841600680072,-0.08238888142597739,0.129,0.9999999999951201,251.75015195821425,0.973571868609807,196,2026-10-07 20:31:49.412243,25.0,0.36265242188797636,0.42020985234935215,0.28318056267946334
0612,cdot_cos,R,Q-R,197,39,33358,0.04084338310655742,0.17405160652846277,0.0527164312273641,0.7888339048691302,738.0,6.700359789078173,0.6171281278114286,8.661821292920129,-0.16330388954920494,0.03,0.9999999999950735,-87.35934549384125,0.9785389947828018,197,2026-10-07 20:31:49.442244,25.0,0.609273917806738,1.8142209124532758,2.3961283106827365
0612,cdot_cos,S,R-S,198,39,33408,0.004234768103871853,-0.0203059588953182,-0.036608615002685564,0.285933796848734,738.0,6.737329194504888,0.6174636556162857,8.688499053622477,-0.08464385678445971,0.05,0.9999999999949749,234.436704279217,0.9835061529502832,198,2026-10-07 20:31:49.492243,25.0,0.39482767796568397,0.7009396175682348,0.739388108534289
0612,cdot_cos,T,S-T,199,39,33618,-0.044045169469574694,-0.0197554887650524,-0.04827993757344655,0.2302325733643262,738.0,6.770453750834997,0.6177337397193943,8.714222098004392,-0.07621592900819013,0.21,0.9999999999948705,31.20482723443122,0.9884735620065075,199,2026-10-07 20:31:49.702244,25.0,0.8953150504898532,0.26175158409925203,0.1577359825243287
0612,cdot_cos,P,T-P,200,40,33937,0.025835396085322624,-2.1530413479838942e-05,0.06988056555489731,0.851575801715015,779.0,6.8472648598265735,0.6187320838393008,8.750208735953388,-0.17799403722716867,0.319,0.9999999999948327,-101.94692009455537,0.9934411460161137,200,2026-10-07 20:31:50.021244,25.0,0.564504863632198,0.17722381546377272,0.24078717552218443
0612,cdot_cos,Q,P-Q,201,40,34067,-0.013533501353130546,-0.02322553445526298,-0.03936889743845317,0.2720547639733832,779.0,6.883522545100884,0.6190508161018565,8.776576350816123,-0.08469019689144319,0.13,0.9999999999947117,292.7342202121994,0.998408431438003,201,2026-10-07 20:31:50.151244,25.0,0.3323031314853451,0.42610439626115015,0.27890527134084747
0612,cdot_cos,R,Q-R,202,40,34096,0.045370384164216605,0.1613487800916154,0.058903885517347154,0.8134518172866002,779.0,6.958052002854473,0.6200032224205121,8.81191794970129,-0.1753200012520698,0.029,0.9999999999946654,-95.15876006425657,1.0033755555446604,202,2026-10-07 20:31:50.180243,25.0,0.5963429653791966,1.8918148842744593,2.5699813018478923
0612,cdot_cos,S,R-S,203,40,34147,0.002329766272505956,-0.019522764349541515,-0.043040617891710646,0.25426079659258727,779.0,6.993247808388802,0.6203007271847311,8.837941463682167,-0.08342417431095213,0.051,0.9999999999945571,308.88858933862446,1.0083427164191958,203,2026-10-07 20:31:50.231244,25.0,0.3323558210959306,0.7050945405445861,0.6901138340064662
0612,cdot_cos,T,S-T,204,40,34357,-0.03641721076079956,-0.008895164597956248,-0.03874697703330552,0.2751447960893544,779.0,7.02997164599002,0.6206225660054504,8.86427984826774,-0.08746596953430603,0.21,0.9999999999944532,-12.558445293579116,1.0133101387027679,204,2026-10-07 20:31:50.441243,25.0,0.9548415033509264,0.26727241916525374,0.17487541714865715
0612,cdot_cos,P,T-P,205,41,34716,0.024246182016954342,-6.740170760429468e-05,0.0606633927777539,0.8200350272588506,799.0,7.105502224438209,0.6215811365255512,8.899704451459009,-0.18115399592336087,0.359,0.9999999999944097,-97.73722895129166,1.0182778106506614,205,2026-10-07 20:31:50.800243,25.0,0.5962034022874555,0.15833561251061729,0.21039158342113806
0612,cdot_cos,Q,P-Q,206,41,34846,-0.011114033629037729,-0.01810643301927227,-0.03536021564599207,0.29234845157903094,799.0,7.1436566157726435,0.6219226447684373,8.926286883509905,-0.09221361201887285,0.13,0.9999999999942811,260.43407665029156,1.0232451029247775,206,2026-10-07 20:31:50.930244,25.0,0.38117227108245344,0.4219220894722247,0.29349531795718964
0612,cdot_cos,R,Q-R,207,41,34895,0.03472770202543209,0.14551355582914777,0.04584173565446982,0.758787484357985,799.0,7.215201967700987,0.6228084611181443,8.960671256264488,-0.1740852210162478,0.049,0.9999999999942238,-92.42503711345847,1.0282122599764383,207,2026-10-07 20:31:50.979244,25.0,0.6248172020502044,1.1410624411752368,1.4601092230274237
0612,cdot_cos,S,R-S,208,41,34945,0.004442721170199916,-0.018875675964313825,-0.030284980855232176,0.31927088903836703,799.0,7.255480735007817,0.6231809365544179,8.987661243568054,-0.09873165975332003,0.05,0.9999999999941149,202.30478019381346,1.0331794198032798,208,2026-10-07 20:31:51.029243,25.0,0.4661649275890495,0.7608312491223845,0.8055753461365889
0612,cdot_cos,T,S-T,209,41,35155,-0.03822899588051821,-0.012227043356358408,-0.04267171705071812,0.2560134591964536,799.0,7.291285092613226,0.6234795080029317,9.013556709914063,-0.08819772557336122,0.21,0.9999999999940002,35.28111690649391,1.0381468551440254,209,2026-10-07 20:31:51.239244,25.0,0.887421297696468,0.2687165332176045,0.17049694097813814
0612,cdot_cos,P,T-P,210,42,35515,0.02475855951352807,-0.00015873937763998105,0.06298755539404628,0.8284510188801052,778.0,7.368341678959211,0.6244450317092056,9.049086643502125,-0.191092874977494,0.36,0.9999999999939533,-106.56926260383692,1.0431145535050903,210,2026-10-07 20:31:51.599244,25.0,0.5836485752999533,0.15924195471181835,0.21404607318329136
0612,cdot_cos,Q,P-Q,211,42,35644,-0.013380419166556785,-0.022805144309378175,-0.038138978680084853,0.27818661570062164,778.0,7.405939300005735,0.6247690248002928,9.07531348983579,-0.09393536104137087,0.129,0.9999999999938136,299.8752646548543,1.0480818508471696,211,2026-10-07 20:31:51.728243,25.0,0.3554744830782748,0.4287588402073914,0.2914544267172427
0612,cdot_cos,R,Q-R,212,42,35674,0.03434228807237427,0.14207756977962213,0.04772270723893106,0.7672892675189701,778.0,7.478961459732718,0.6256620769826643,9.10979677432135,-0.18363199215293685,0.03,0.9999999999937522,-100.43828667814343,1.0530489747839198,212,2026-10-07 20:31:51.758244,25.0,0.613571406916165,1.8654776939785864,2.4340719908994224
0612,cdot_cos,S,R-S,213,42,35704,-0.0007647270940179661,-0.016820418413998006,-0.03510701516639224,0.29365972895428455,778.0,7.51786796164445,0.6260036432015449,9.136241832842373,-0.09853943578434952,0.03,0.9999999999936333,249.1246255190531,1.0580160996344776,213,2026-10-07 20:31:51.788243,25.0,0.4216675413905355,1.270906699010895,1.2968833970577502
0612,cdot_cos,T,S-T,214,42,35934,-0.04026504577546535,-0.009777047857090876,-0.039500318681447384,0.27140458173452614,778.0,7.555215861673371,0.6263192120394524,9.162279643629399,-0.09504056714897008,0.23,0.9999999999935153,11.087497290860306,1.0629835843507507,214,2026-10-07 20:31:52.018244,25.0,0.9638549374214779,0.2510654440133537,0.16238217403878777
0612,cdot_cos,P,T-P,215,43,36293,0.02338395291620614,-2.0271607634259267e-05,0.0636489986916715,0.8307883775881721,779.0,7.633358065890593,0.6272845213767826,9.197816533977234,-0.2001652585986181,0.359,0.999999999993464,-108.9025946236026,1.067951306128535,215,2026-10-07 20:31:52.377243,25.0,0.591443277110897,0.1631193742732993,0.2176663070117591
0612,cdot_cos,Q,P-Q,216,43,36423,-0.012239133584984114,-0.020915668953514953,-0.035623086501190254,0.2909907357099948,779.0,7.6723355724016,0.6276223898967893,9.224148378866472,-0.10057573974469212,0.13,0.9999999999933178,294.7582060972838,1.0729186123380456,216,2026-10-07 20:31:52.507244,25.0,0.3715045204814953,0.45209372267873177,0.29982697316159534
0612,cdot_cos,R,Q-R,217,43,36453,0.05155447659989614,0.16674383614945018,0.06379361018488025,0.8312960036234741,779.0,7.750902433787063,0.6285869178035136,9.259684497927612,-0.2040711043251724,0.03,0.9999999999932617,-107.30157609640149,1.0778857354796638,217,2026-10-07 20:31:52.537244,25.0,0.6022073547429471,1.8836716909607976,2.618895379515429
0612,cdot_cos,S,R-S,218,43,36503,0.002438358330130323,-0.02041255156577018,-0.04911611826976582,0.22654866808620475,779.0,7.785355873859248,0.6288495982220942,9.284874053330839,-0.09011974649771151,0.05,0.9999999999931248,433.8022546302118,1.0828528969039644,218,2026-10-07 20:31:52.587244,25.0,0.2823963115536026,0.7220997940408225,0.6890688014436996
0612,cdot_cos,T,S-T,219,43,36713,-0.03714345717333625,-0.009072432510827518,-0.03958181550346657,0.2710018814655951,779.0,7.823112413191145,0.6291637215415904,9.31079389133702,-0.09918420936903091,0.21,0.9999999999929969,-28.856383174152914,1.087820359176692,219,2026-10-07 20:31:52.797244,25.0,0.9126615379985671,0.2744075987580403,0.17979304443760602
0612,cdot_cos,P,T-P,220,44,37072,0.020771422238808054,-6.060049400933217e-05,0.05791487941214431,0.8096707143899738,819.0,7.900607065337625,0.6301015744416462,9.345938211237716,-0.2048632550529618,0.359,0.9999999999929399,-112.68189891788651,1.0927881065239395,220,2026-10-07 20:31:53.156243,25.0,0.5969919570284864,0.16343524841896315,0.2158625407979935
0612,cdot_cos,Q,P-Q,221,44,37202,-0.013740786824840194,-0.02113400607338573,-0.03451220906364825,0.29675358681819974,819.0,7.940458921555961,0.63044506294287,9.372262016607628,-0.10609706129926516,0.13,0.9999999999927853,287.53857378576134,1.097755419887969,221,2026-10-07 20:31:53.286243,25.0,0.3941971392477696,0.44843316384961696,0.3065527401410451
0612,cdot_cos,R,Q-R,222,44,37232,0.04033423449900926,0.13664234369809183,0.054075021323849455,0.7944360857600654,819.0,8.017199687938525,0.6313639617697686,9.407133787793361,-0.20559703763063664,0.03,0.9999999999927196,-108.28175357148925,1.1027225421418565,222,2026-10-07 20:31:53.316243,25.0,0.6163401512500356,1.9144047713342291,2.558025546085485
0612,cdot_cos,S,R-S,223,44,37281,0.0007129067313080838,-0.020817173819250304,-0.03962132776770118,0.27080677467930847,819.0,8.055323207836015,0.6316769779869166,9.432971516516943,-0.10283598424310754,0.049,0.9999999999925816,328.29306520867266,1.107689702363533,223,2026-10-07 20:31:53.365243,25.0,0.3681475921173346,0.7957883022552833,0.7780310183161059
0612,cdot_cos,T,S-T,224,44,37512,-0.034416174324511294,-0.007891658976523311,-0.035129081055819376,0.2935453172737224,819.0,8.095186941559543,0.6320161516751374,9.459174323553386,-0.108010328148249,0.231,0.9999999999924497,-15.255734996086241,1.1126572196543407,224,2026-10-07 20:31:53.596244,25.0,0.9532233759372408,0.2562992105320242,0.17257027585943108
0612,cdot_cos,P,T-P,225,45,37891,0.02408877851599197,-0.0001385966826441075,0.05850495284050326,0.8119336533762089,798.0,8.17373344310181,0.6329536106205295,9.494327403285324,-0.2141521147696549,0.379,0.999999999992387,-113.22286393780286,1.1176250326838024,225,2026-10-07 20:31:53.975244,25.0,0.6091825211742373,0.15475947522965955,0.20724670591627073
0612,cdot_cos,Q,P-Q,226,45,38020,-0.01447617502275708,-0.023256932121213787,-0.03856495353874905,0.27605329388620753,798.0,8.212494623783625,0.6332721132858667,9.520191553796435,-0.10640313121717043,0.129,0.9999999999922178,338.2985302128694,1.1225923510717188,226,2026-10-07 20:31:54.104243,25.0,0.36325557979919526,0.44795263484612735,0.30047426885128165
0612,cdot_cos,R,Q-R,227,45,38050,0.03705043224575781,0.13521023505302637,0.05152660726851489,0.7838364652349816,798.0,8.28930522289211,0.6341758469480454,9.554847011129144,-0.2121184578337786,0.03,0.999999999992144,-116.97619668360751,1.127559472102913,227,2026-10-07 20:31:54.134243,25.0,0.6075148101315437,1.9292247942739613,2.5603533036161847
0612,cdot_cos,S,R-S,228,45,38080,-0.001514301263761125,-0.01819630098615482,-0.03856473350951894,0.2760543931969016,798.0,8.328248111440063,0.6344939027394371,9.580672304024477,-0.10825835682106742,0.03,0.999999999991997,326.54680035307535,1.1325265940990539,228,2026-10-07 20:31:54.164243,25.0,0.38313318920476896,1.299986973340713,1.298096284931738
0612,cdot_cos,T,S-T,229,45,38330,-0.03991229448358564,-0.012820509786517312,-0.03839799321982451,0.27688823975865573,798.0,8.367304441292553,0.6348128014252035,9.606485341974915,-0.10904294072660872,0.25,0.9999999999918538,-2.4602920631539518,1.1374941656690625,229,2026-10-07 20:31:54.414243,25.0,0.992830640428916,0.2402178806965729,0.15622531940996254
0612,cdot_cos,P,T-P,230,46,38689,0.024562472721328044,-2.703549330189383e-05,0.06447476720491369,0.8336707357964447,799.0,8.44835705178835,0.6357722447224864,9.64198858460027,-0.22766666949557207,0.359,0.9999999999917878,-123.63808169268296,1.1424619651832884,230,2026-10-07 20:31:54.773243,25.0,0.5939018185540963,0.16845400479751185,0.22577328828912485
0612,cdot_cos,Q,P-Q,231,46,38799,-0.012146985465965692,-0.014190096252851121,-0.036709458187293736,0.28541933167069833,799.0,8.488254416737167,0.6361004766783379,9.667916268156437,-0.11282933177961568,0.11,0.9999999999916108,349.86641510281265,1.1474292512984225,231,2026-10-07 20:31:54.883244,25.0,0.3613902631234996,0.5581423050217764,0.36270331771652436
0612,cdot_cos,R,Q-R,232,46,38850,0.05820487642029863,0.14753637313479462,0.07035186188626433,0.8530588721537912,799.0,8.57114835889314,0.6370807376557487,9.703750952826823,-0.23584950108113806,0.051,0.9999999999915469,-125.49736461657733,1.1523964155659223,232,2026-10-07 20:31:54.934243,25.0,0.5935673839402404,1.1385171023589766,1.6253714148230025
0612,cdot_cos,S,R-S,233,46,38899,0.0014820909723221142,-0.019213616388894895,-0.056722785447976515,0.19496438211509115,799.0,8.604383161177783,0.6373046142146058,9.728059074220807,-0.09517798923813788,0.049,0.9999999999913751,628.3440864068582,1.1573635767409631,233,2026-10-07 20:31:54.983244,25.0,0.22809714891522898,0.7316111595476964,0.6782612711151527
0612,cdot_cos,T,S-T,234,46,39109,-0.039640370716042476,-0.0061979966775482275,-0.041122461688364594,0.2634600871953028,799.0,8.642846252528814,0.6376070494371436,9.753538774644532,-0.11057080092726645,0.21,0.9999999999912182,-50.8962268348361,1.162331080545368,234,2026-10-07 20:31:55.193243,25.0,0.8700433287221099,0.2834891612679141,0.18315757786205603
0612,cdot_cos,P,T-P,235,47,39488,0.02000212225993287,-5.807892352488605e-05,0.05964249297597535,0.8162376681208052,859.0,8.723448608910306,0.6385433454942114,9.788711061990355,-0.23304798546644256,0.379,0.999999999991148,-130.81031754287034,1.1672989495114263,235,2026-10-07 20:31:55.572243,25.0,0.5912331026891832,0.16052803343591762,0.2126711250171297
0612,cdot_cos,Q,P-Q,236,47,39617,-0.014790561728081133,-0.020391825274055267,-0.034792683988014,0.29529236117492036,859.0,8.76452650187324,0.6388818130407481,9.814716612992914,-0.11955330664566861,0.129,0.9999999999909613,335.3192351293324,1.1722662822800392,236,2026-10-07 20:31:55.701244,25.0,0.3870030163908426,0.4854700673765633,0.3184332787824295
0612,cdot_cos,R,Q-R,237,47,39646,0.057217529474002424,0.1377468416803416,0.07200809120208355,0.858173556732974,859.0,8.84869988629346,0.639864678024651,9.850619766336472,-0.24644008536509615,0.029,0.9999999999908916,-129.09889028253974,1.1772333990131203,237,2026-10-07 20:31:55.730243,25.0,0.5975730080897809,2.0238078088761826,2.902530497248963
0612,cdot_cos,S,R-S,238,47,39697,-0.0007844199457464825,-0.019333973036294177,-0.058001949419748906,0.18999406568882632,859.0,8.881907354788058,0.6400821198443853,9.874734277811173,-0.09784589617159485,0.051,0.9999999999907097,683.3744740318202,1.182200565132072,238,2026-10-07 20:31:55.781244,25.0,0.21900618578338832,0.7349733607335426,0.6511268332274247
0612,cdot_cos,T,S-T,239,47,39907,-0.03447138795545475,0.0026778408741300118,-0.03368696800970827,0.301077069982193,859.0,8.923667169088281,0.6404265746760925,9.900782938047533,-0.12351380102463731,0.21,0.9999999999905499,-74.51747657545239,1.1871680832238272,239,2026-10-07 20:31:55.991244,25.0,0.8123580699246641,0.29166784618509367,0.19885625857248898
0612,cdot_cos,P,T-P,240,48,40347,0.02272060968701129,-0.00014403208033973006,0.05719199764246604,0.8068701423531378,838.0,9.004407850185798,0.6413489807954341,9.935764590786125,-0.24017971456047282,0.44,0.9999999999904736,-126.47998651517251,1.1921361171356566,240,2026-10-07 20:31:56.431243,25.0,0.6152391391590277,0.138340105692431,0.18350154794890147
0612,cdot_cos,Q,P-Q,241,48,40476,-0.013368528005303148,-0.01915797090983996,-0.036089137692314435,0.2885927671591047,838.0,9.04540646209762,0.6416786439367481,9.961561542312976,-0.1227371820406945,0.129,0.9999999999902687,356.2501165634322,1.1971034567470027,241,2026-10-07 20:31:56.560243,25.0,0.384096331569992,0.4843788220996147,0.3178186969908731
0612,cdot_cos,R,Q-R,242,48,40507,0.05418920764713208,0.11997725693247588,0.06755773565243522,0.8440851550106399,838.0,9.129377586287498,0.6426420836388057,9.99719512986085,-0.25282238131166374,0.031,0.9999999999901887,-135.0216303035366,1.2020705762671895,242,2026-10-07 20:31:56.591244,25.0,0.5977803050707967,1.9138733448691365,2.7087459416089663
0612,cdot_cos,S,R-S,243,48,40556,-0.00010946260696894143,-0.019517842636666585,-0.05429867025410102,0.20465232923402346,838.0,9.164066609479507,0.6428755008037678,10.021467773121804,-0.10509405038007752,0.049,0.9999999999899958,632.8940331170579,1.2070377379605755,243,2026-10-07 20:31:56.640243,25.0,0.245200902403644,0.7759770200280984,0.7079392488165
0612,cdot_cos,T,S-T,244,48,40746,-0.035877325229207384,0.005536036974215556,-0.035767862622238446,0.2902445633989284,838.0,9.205423334250252,0.6432064243164872,10.047236113615043,-0.12576349548049903,0.19,0.9999999999898218,-62.45988666856667,1.2120052240460437,244,2026-10-07 20:31:56.830244,25.0,0.848443566262886,0.3241981595253083,0.21766697247760602
0612,cdot_cos,P,T-P,245,49,41185,0.02217753670498143,-4.423645454006117e-05,0.05805486193418881,0.8102094268655784,819.0,9.287261910099124,0.6441294640967383,10.082251959221395,-0.2502458858785993,0.439,0.9999999999897407,-134.86134949052416,1.2169732896503627,245,2026-10-07 20:31:57.269243,25.0,0.6080851804502322,0.14117866759417416,0.18642044612499317
0612,cdot_cos,Q,P-Q,246,49,41295,-0.012193600855246041,-0.013665574846478259,-0.03437113756022747,0.29749012246818396,819.0,9.329378204397937,0.6444681145951024,10.108119817610962,-0.12959115663247994,0.11,0.9999999999895249,356.28097353747,1.2219405920253064,246,2026-10-07 20:31:57.379244,25.0,0.3941430440805959,0.5863513579111977,0.3828754027164811
0612,cdot_cos,R,Q-R,247,49,41345,0.06393891907211681,0.14622038554588052,0.07613251992736285,0.8702660323486302,819.0,9.416259208839588,0.6454579585876926,10.144200742679008,-0.26884650312656927,0.05,0.9999999999894459,-140.68413561787037,1.226907755139207,247,2026-10-07 20:31:57.429244,25.0,0.5957266046506802,1.1924798764382594,1.7376200888330118
0612,cdot_cos,S,R-S,248,49,41395,0.0006116062389642844,-0.017343243495516206,-0.06332731283315253,0.1703451891753651,819.0,9.448626192041763,0.6456515645085179,10.167763751885916,-0.1007695201473404,0.05,0.9999999999892323,868.139684275984,1.2318749194316652,248,2026-10-07 20:31:57.479244,25.0,0.18863624727814876,0.7113749776544331,0.647339664043507
0612,cdot_cos,T,S-T,249,49,41605,-0.042939623146739186,-0.0031638450117000027,-0.04355122938570347,0.25184794353388074,819.0,9.48739670660503,0.6459377149965564,10.192758051956906,-0.12111685950862922,0.21,0.9999999999890384,-71.1071279338596,1.236842465544835,249,2026-10-07 20:31:57.689243,25.0,0.845355879978295,0.29280938483583646,0.18462149792032365
0612,cdot_cos,P,T-P,250,50,42004,0.020445811395025437,-8.453296637853344e-05,0.06338543454176462,0.8298600676632159,878.0,9.571606133672814,0.6468798647140834,10.228102147332274,-0.26445429897240336,0.399,0.999999999988953,-152.13870661661602,1.2418104688338056,250,2026-10-07 20:31:58.088243,25.0,0.5815768625221178,0.15933034789966757,0.21105119565860483
0612,cdot_cos,Q,P-Q,251,50,42133,-0.012966671017331658,-0.01702383219210681,-0.03341248241235709,0.30252303593254615,878.0,9.614542324228966,0.6472230393445046,10.253976026098458,-0.13567797591587494,0.129,0.9999999999887285,375.2501252743151,1.2467778228906552,251,2026-10-07 20:31:58.217243,25.0,0.3870768192573729,0.5018514282618,0.3328386864817937
0612,cdot_cos,R,Q-R,252,50,42164,0.05796384440092197,0.11285209055927131,0.07093051541825363,0.8548629735992445,878.0,9.701083802164359,0.6481919531888298,10.289763252811074,-0.27497048233684623,0.031,0.9999999999886392,-143.76149875119629,1.251744939802345,252,2026-10-07 20:31:58.248243,25.0,0.6025572610017025,1.9414651798695481,2.791660578561065
0612,cdot_cos,S,R-S,253,50,42213,-0.0014030359420159086,-0.01858065312530751,-0.059366880342937876,0.18479808889414057,878.0,9.734913165380878,0.6484012460000939,10.313488199005523,-0.10812741468059489,0.049,0.9999999999884178,797.1753384581124,1.2567121020746952,253,2026-10-07 20:31:58.297244,25.0,0.21373404571866725,0.7934662947907553,0.6903951676840606
0612,cdot_cos,T,S-T,254,50,42423,-0.03300788145149028,0.004828449306522855,-0.03160484550947437,0.31214265938789365,878.0,9.778843499053853,0.6487546332096751,10.339482565356247,-0.1409095097231561,0.21,0.999999999988227,-92.7653694128011,1.2616796629997635,254,2026-10-07 20:31:58.507244,25.0,0.7924337011143804,0.299786069886379,0.20919206510940502
0612,cdot_cos,P,T-P,255,51,42882,0.02024657305216623,-1.3137052794910201e-05,0.05325445450365651,0.791065730962501,839.0,9.860823314733157,0.6496494947644125,10.37410622264555,-0.26434218226912637,0.459,0.9999999999881273,-137.93493741296453,1.266647847695107,255,2026-10-07 20:31:58.966244,25.0,0.6269159636851628,0.13565017647200245,0.1786052629178739
0612,cdot_cos,Q,P-Q,256,51,43012,-0.015136924228913775,-0.02195617484976365,-0.035383497281080006,0.29222805303164967,839.0,9.903370361055151,0.6499798003273884,10.39971403512858,-0.1380019745982819,0.13,0.9999999999878817,382.4949435684623,1.2716152111809125,256,2026-10-07 20:31:59.096244,25.0,0.40031815853337244,0.49730737533884356,0.32728497170764714
0612,cdot_cos,R,Q-R,257,51,43041,0.05324300707108728,0.13645978222739347,0.06837993130000106,0.8467711978467449,839.0,9.990123232321256,0.650936093522456,10.43533699073795,-0.28286662271029217,0.029,0.9999999999877823,-151.48559966672437,1.2765823212013334,257,2026-10-07 20:31:59.125243,25.0,0.5992175357228036,2.1177198990614294,2.9914783195208687
0612,cdot_cos,S,R-S,258,51,43092,-4.703663154465699e-05,-0.0211318634141439,-0.053290043702631934,0.20878725189141661,839.0,10.026198115200714,0.6511716992240029,10.459403825089097,-0.1183151455236622,0.051,0.999999999987551,698.4189096708745,1.2815494884161103,258,2026-10-07 20:31:59.176243,25.0,0.24887870551778643,0.7784656994472208,0.7073506446952491
0612,cdot_cos,T,S-T,259,51,43322,-0.03409382141889353,-0.005050133306691099,-0.03404678478734887,0.29918756067653896,839.0,10.069526733664873,0.6515091882540844,10.485085776473227,-0.14260481446955486,0.23,0.9999999999873422,-71.97172879966426,1.2865171148761354,259,2026-10-07 20:31:59.406244,25.0,0.8433876898053605,0.2757255468649148,0.1883852976702557
0612,cdot_cos,P,T-P,260,52,43721,0.021381081851699707,-6.452832514184756e-05,0.055474903270593234,0.8000924992551196,858.0,10.153031866758575,0.6524109599898191,10.519849023870394,-0.2762358705046806,0.399,0.9999999999872341,-148.18723047052913,1.2914851812175892,260,2026-10-07 20:31:59.805243,25.0,0.6164629395239503,0.15931139383489262,0.2092860478538897
0612,cdot_cos,Q,P-Q,261,52,43851,-0.012417570960990729,-0.017364602117723876,-0.033798652812690434,0.30048985161451547,858.0,10.196657225945117,0.6527493556629815,10.54552832040105,-0.14515434903822394,0.13,0.9999999999869815,387.3616947919627,1.2964525522583044,261,2026-10-07 20:31:59.935244,25.0,0.40533182816543845,0.4986433253560057,0.33557968605032545
0612,cdot_cos,R,Q-R,262,52,43882,0.050212855573840816,0.14106753198674105,0.06263042653483154,0.8271784172547751,858.0,10.282679131351136,0.6536800823169133,10.58077657017499,-0.2876809284650572,0.031,0.9999999999868714,-153.13473491356413,1.3014196659253556,262,2026-10-07 20:31:59.966244,25.0,0.6093071176683686,1.9882721210862027,2.774900174387715
0612,cdot_cos,S,R-S,263,52,43930,-0.0006322635738195725,-0.01603585371430904,-0.050845119147660385,0.21906422188451954,858.0,10.319930097452461,0.6539263730372674,10.604943773908467,-0.12528554703965553,0.048,0.9999999999866291,659.3645964083662,1.3063868256012285,263,2026-10-07 20:32:00.014244,25.0,0.2735688264429125,0.8203744869741773,0.7760617937776123
0612,cdot_cos,T,S-T,264,52,44160,-0.04013326761023451,-0.0028565083320494004,-0.03950100403641494,0.2714011936246702,858.0,10.361435082100657,0.654231391038051,10.630042101875231,-0.14006840106338908,0.23,0.9999999999864021,-48.465513463990206,1.3113544686617982,264,2026-10-07 20:32:00.244244,25.0,0.8998382538953973,0.27744082919851837,0.1804564549921549
0612,cdot_cos,P,T-P,265,53,44579,0.02121056125606066,1.993820060829162e-06,0.06134382886629517,0.8225318022022956,879.0,10.44755287888378,0.6551550294662167,10.66519213264359,-0.29204866704058574,0.419,0.9999999999862934,-164.54519576346334,1.3163226204484892,265,2026-10-07 20:32:00.663244,25.0,0.5942865729011766,0.15603314224734424,0.20553173456592558
0612,cdot_cos,Q,P-Q,266,53,44709,-0.011200715132222845,-0.014820809879961509,-0.032411276388283505,0.30783042570210817,879.0,10.492190855303932,0.6555003981454564,10.690930391198927,-0.15225838460481944,0.13,0.999999999986027,404.75668709604633,1.3212899989106424,266,2026-10-07 20:32:00.793243,25.0,0.3992720707097733,0.5149462350314702,0.343369049385782
0612,cdot_cos,R,Q-R,267,53,44740,0.060364903446933356,0.11784860326392713,0.0715656185791562,0.8568218626221955,879.0,10.581438899991962,0.6564608393435856,10.726701293228857,-0.3059612608474228,0.031,0.999999999985917,-160.03361428267763,1.3262571109766121,267,2026-10-07 20:32:00.824243,25.0,0.6051005845596051,1.9902623619890953,2.878969183484858
0612,cdot_cos,S,R-S,268,53,44789,-0.0012472193386798601,-0.01723515775621741,-0.06161212278561322,0.17649122169125053,879.0,10.615587121747255,0.6566585158810585,10.750006027670912,-0.1177206810648601,0.049,0.9999999999856494,952.2656668768076,1.3312242733594941,268,2026-10-07 20:32:00.873244,25.0,0.20208957005257153,0.7963520623302239,0.6969024848019042
0612,cdot_cos,T,S-T,269,53,44999,-0.03592024063683957,0.0052140822717618215,-0.03467302129815971,0.2959152717144827,879.0,10.659481402100324,0.6569898298178957,10.775477299066662,-0.15180574845452827,0.21,0.9999999999854158,-102.87845937015494,1.3361918782836448,269,2026-10-07 20:32:01.083244,25.0,0.7988909639294174,0.3089626759223984,0.20902038263366018
0612,cdot_cos,P,T-P,270,54,45458,0.02195726892873167,-7.404461980601294e-05,0.05787750956557124,0.8095267016199468,819.0,10.745351445634663,0.6578954137432309,10.810368356138692,-0.2984094533593822,0.459,0.9999999999852986,-161.88859011668333,1.3411601752209907,270,2026-10-07 20:32:01.542243,25.0,0.6118404609197428,0.1403830048919547,0.1870807048678403
0612,cdot_cos,Q,P-Q,271,54,45568,-0.015292818670272651,-0.017158185093567663,-0.03725008759900432,0.2826707413760546,819.0,10.788353000591139,0.6582113553380576,10.835571734988731,-0.15026905214606884,0.11,0.9999999999850072,468.88540046320037,1.3461275052079804,271,2026-10-07 20:32:01.652243,25.0,0.37312775833326683,0.610255883872248,0.3909232268770521
0612,cdot_cos,R,Q-R,272,54,45617,0.061164121697221546,0.13501865041744465,0.0764569403674942,0.8711789872511867,819.0,10.879607740086557,0.6591841899711309,10.871589763957358,-0.32043739802331206,0.049,0.9999999999848962,-174.92011498363527,1.351094666164479,272,2026-10-07 20:32:01.701244,25.0,0.5879871383377815,1.2781121650777554,1.8623416223554865
0612,cdot_cos,S,R-S,273,54,45648,-0.002029350661089977,-0.017054832836610696,-0.06319347235831152,0.17081859509507882,819.0,10.913607992768759,0.6593747840989489,10.894705117966959,-0.12004841544034804,0.031,0.9999999999846093,1051.3911675933275,1.3560617774955932,273,2026-10-07 20:32:01.732243,25.0,0.18839118335573518,1.2351632494014133,1.0967823445871352
0612,cdot_cos,T,S-T,274,54,45877,-0.04080706646497361,-0.0029303170098685665,-0.03877771580388363,0.27499155895980654,819.0,10.956187861549445,0.6596815029206115,10.91971758944037,-0.15080389046968684,0.229,0.9999999999843572,-100.27253907220364,1.3610294511217358,274,2026-10-07 20:32:01.961244,25.0,0.8155084364149815,0.28630639458541857,0.185938291618718
0612,cdot_cos,P,T-P,275,55,46277,0.0233190853240325,-0.00014054498663940225,0.0641261517890061,0.8324587100066929,838.0,11.04473632148888,0.6606091906687588,10.955010595670238,-0.3150720048200025,0.4,0.9999999999842373,-177.0726353542692,1.3659976171346697,275,2026-10-07 20:32:02.361243,25.0,0.5937084531356928,0.1646806575244697,0.2213711498485882
0612,cdot_cos,Q,P-Q,276,55,46406,-0.014409587236179307,-0.020734893888043556,-0.037728672560211805,0.2802510193493047,838.0,11.08793238756902,0.6609212242012257,10.980096056632444,-0.15455101516444075,0.129,0.9999999999839365,514.4350621117718,1.370965007882956,276,2026-10-07 20:32:02.490243,25.0,0.3539400052668089,0.5208010741900229,0.3348532254274456
0612,cdot_cos,R,Q-R,277,55,46435,0.05821963576775385,0.14726348231707,0.07262922300393315,0.8600530408444474,838.0,11.179102998629906,0.6618779400303604,11.015892767026731,-0.32772667698526836,0.029,0.9999999999838165,-181.0105535490676,1.3759321110146254,277,2026-10-07 20:32:02.519244,25.0,0.5895387026231198,2.189067358276516,3.1438141745132904
0612,cdot_cos,S,R-S,278,55,46486,-9.770871217012571e-05,-0.01783743399593248,-0.058317344479923976,0.18878357734463633,838.0,11.214898294349059,0.6620877645358242,11.039257541281282,-0.12936621666699036,0.051,0.9999999999835231,945.3636498740301,1.3808992795118717,278,2026-10-07 20:32:02.570244,25.0,0.2158168716097899,0.784006067004076,0.7018685435127946
0612,cdot_cos,T,S-T,279,55,46696,-0.03600687202922282,0.0001291758624805346,-0.0359091633170527,0.2895173949976934,838.0,11.259071617464322,0.6624094262574703,11.064467325646856,-0.16014014903995122,0.21,0.9999999999832615,-95.67172685475242,1.3858669146610694,279,2026-10-07 20:32:02.780244,25.0,0.8251676091558469,0.3113418500105772,0.21034915769172968
0612,cdot_cos,P,T-P,280,56,47115,0.01924858050992708,-3.0625299979528663e-05,0.0552554525391499,0.7992135559847247,899.0,11.345661871353501,0.6632965939290114,11.099124186114377,-0.31533108731938747,0.419,0.9999999999831295,-174.92853184095364,1.390835170118746,280,2026-10-07 20:32:03.199244,25.0,0.6113092206840458,0.158081994950789,0.20665931715794555
0612,cdot_cos,Q,P-Q,281,56,47245,-0.013158415680715536,-0.016861485108872115,-0.03240699619064262,0.30785322580516933,899.0,11.391544329233083,0.6636380202540829,11.124651310024895,-0.167983024022885,0.13,0.9999999999828215,431.5662047021244,1.3958025715645368,281,2026-10-07 20:32:03.329243,25.0,0.4159623863690591,0.5224492956051275,0.35294198368909235
0612,cdot_cos,R,Q-R,282,56,47276,0.05188088273745903,0.12583413524395803,0.06503929841817456,0.8356185325699836,899.0,11.481498688210834,0.6645639057064855,11.159977050549614,-0.3308534941176944,0.031,0.9999999999826887,-175.9077968793847,1.4007696790100252,282,2026-10-07 20:32:03.360243,25.0,0.6112350545771762,2.0584015477280366,2.901753515411328
0612,cdot_cos,S,R-S,283,56,47325,-0.0017543288423296716,-0.01632553095105456,-0.0536352115797887,0.2073653325470727,899.0,11.519165225192221,0.6647934759438789,11.183608636946099,-0.13926401680269254,0.049,0.9999999999823865,834.5571250451117,1.4057368418680212,283,2026-10-07 20:32:03.409244,25.0,0.2526554685550098,0.8532165454578978,0.768704836354839
0612,cdot_cos,T,S-T,284,56,47554,-0.03450973443934233,0.0025600406303585683,-0.032755405597012656,0.30600036497507344,899.0,11.565113909665708,0.6651321008047586,11.209056852759817,-0.17041753189823233,0.229,0.9999999999821176,-92.00008237614765,1.410704550061544,284,2026-10-07 20:32:03.638243,25.0,0.8329289084940993,0.2928501901817568,0.2006492771767986
0612,cdot_cos,P,T-P,285,57,48014,0.02320381243677331,-0.0001778088788750727,0.057713546876115636,0.8088938511837213,798.0,11.653290612295466,0.6660264165142016,11.243872304467013,-0.3284980501734357,0.46,0.99999999998198,-176.7614239647679,1.4156729660193235,285,2026-10-07 20:32:04.098243,25.0,0.6180276446819271,0.14309689250691865,0.19168848397773422
0612,cdot_cos,Q,P-Q,286,57,48123,-0.01572246278130693,-0.018020871332592007,-0.03892627521808024,0.2742517163580456,798.0,11.696763050772073,0.6663293596944476,11.268706174756911,-0.16279920020254612,0.109,0.9999999999816406,546.9634597362929,1.4206403103546175,286,2026-10-07 20:32:04.207244,25.0,0.36138507333491066,0.6479960895729172,0.39882971079456353
0612,cdot_cos,R,Q-R,287,57,48154,0.08159521263974548,0.15418919461066177,0.09731767542105241,0.9193050408926731,798.0,11.794553759822362,0.6673438377084401,11.305576079227338,-0.36786888811152374,0.031,0.9999999999815267,-202.143057888391,1.4256074159400607,287,2026-10-07 20:32:04.238244,25.0,0.572665674629273,2.0593758961757533,3.1545390016222106
0612,cdot_cos,S,R-S,288,57,48203,-0.0016086000220906795,-0.018878272179727214,-0.08320381266183616,0.11104655716883542,798.0,11.82444435633497,0.6674662758599273,11.327332861138963,-0.1130329235097857,0.049,0.9999999999811784,2081.3444298710624,1.4305745786673532,288,2026-10-07 20:32:04.287244,25.0,0.10492298738837957,0.75469563835364,0.6100121737266974
0612,cdot_cos,T,S-T,289,57,48433,-0.03958682749970881,-0.006084467757844531,-0.03797822747761813,0.27899430090412825,798.0,11.868513932381019,0.6677737906749199,11.352209087002707,-0.16709553163408028,0.23,0.9999999999808853,-175.80488967856292,1.4355423067128115,289,2026-10-07 20:32:04.517244,25.0,0.7235807630237581,0.2926167547070057,0.19160685237412414
0612,cdot_cos,P,T-P,290,58,48812,0.023194005568149614,-4.127474769810066e-05,0.06278083306785842,0.827715287593796,839.0,11.959048063500193,0.6686852781288265,11.387355473719415,-0.3447444762950954,0.379,0.9999999999807447,-194.9000437687046,1.440510506719021,290,2026-10-07 20:32:04.896243,25.0,0.5973177050041223,0.17810702749855392,0.23887633540679176
0612,cdot_cos,Q,P-Q,291,58,48942,-0.01426305262836655,-0.020734023476014392,-0.037457058196516166,0.28162274688562783,839.0,12.003519059224923,0.6689951158021885,11.412258891457123,-0.17022012146979965,0.13,0.9999999999804033,563.2767407899512,1.4454779237915405,291,2026-10-07 20:32:05.026243,25.0,0.3586937644823986,0.5303132445056792,0.34208458249792145
0612,cdot_cos,R,Q-R,292,58,48971,0.05759496666295294,0.15370197108641062,0.07185801929131949,0.8577163051202582,839.0,12.09692950707167,0.6699378609803945,11.447960722136246,-0.35908197258285296,0.029,0.9999999999802657,-200.33181338826145,1.450445021650336,292,2026-10-07 20:32:05.055244,25.0,0.5909892302116881,2.247810074325599,3.221049925749889
0612,cdot_cos,S,R-S,293,58,49021,-6.37069410264573e-05,-0.016675917103174343,-0.057658673603979395,0.19131830273841488,839.0,12.133892043535807,0.6701479595635877,11.471142867536072,-0.14281155002414664,0.05,0.9999999999799292,1029.3759209210032,1.4554121879950317,293,2026-10-07 20:32:05.105243,25.0,0.2199453283876254,0.8029598990224684,0.7392507292827588
0612,cdot_cos,T,S-T,294,58,49232,-0.04068890546226448,0.0001549562877690616,-0.040625198521238026,0.26587950437662344,839.0,12.177225496973916,0.6704398256456031,11.495705994884501,-0.16790596207832756,0.211,0.9999999999796202,-85.97919936739875,1.460379872805196,294,2026-10-07 20:32:05.316243,25.0,0.8611770542470489,0.31810548547744244,0.2053718172422223
0612,cdot_cos,P,T-P,295,59,49651,0.020778561775722945,-0.00011147679310389224,0.061467467237987426,0.8229825498104058,878.0,12.268132558407288,0.671342411664875,11.530743053850518,-0.35369143158794847,0.419,0.9999999999794776,-205.8368571446543,1.465348234662382,295,2026-10-07 20:32:05.735244,25.0,0.5913923699440766,0.1636249810907003,0.21696196046150787
0612,cdot_cos,Q,P-Q,296,59,49780,-0.013583892268540303,-0.018058540398554528,-0.034362454044263246,0.29753549360828596,878.0,12.314343231127923,0.6716684157362425,11.555880683633095,-0.1807085650604936,0.129,0.9999999999791236,530.615663178164,1.4703156564712747,296,2026-10-07 20:32:05.864243,25.0,0.38394815609813704,0.5344354809187848,0.3582222691522098
0612,cdot_cos,R,Q-R,297,59,49812,0.04930806335237081,0.12888592366157559,0.06289195562091111,0.8281110863738933,878.0,12.406016912484334,0.6725748901490846,11.591006515160853,-0.35999360259789004,0.032,0.9999999999789705,-197.78278900921327,1.4752827624432936,297,2026-10-07 20:32:05.896243,25.0,0.6077310521581698,2.0536573474274067,2.8648025423878565
0612,cdot_cos,S,R-S,298,59,49860,-0.0012412487050661428,-0.016402768591267478,-0.05054931205743696,0.22033198056813405,878.0,12.445777301363277,0.6728158555250041,11.614663229676113,-0.15690624912696816,0.048,0.9999999999786291,842.8071987351469,1.4802499224586938,298,2026-10-07 20:32:05.944243,25.0,0.27408337975503944,0.8988745469943696,0.8283414349779713
0612,cdot_cos,T,S-T,299,59,50090,-0.03535566756831483,0.0001456320579926039,-0.03411441886324869,0.29883315280149125,878.0,12.492308868995794,0.6731425278234578,11.639783287465836,-0.18417024554634176,0.23,0.9999999999783176,-83.45977466845096,1.4852176863351092,299,2026-10-07 20:32:06.174243,25.0,0.8623992721706429,0.2972038265485875,0.20231116361963855
0612,cdot_cos,P,T-P,300,60,50529,0.021501662928680977,-5.812473209224096e-05,0.05685733049699581,0.8055630084126524,819.0,12.582491061575627,0.6740222998346006,11.674470484769426,-0.35839593770788913,0.439,0.9999999999781605,-198.03504766563552,1.490186151340111,300,2026-10-07 20:32:06.613244,25.0,0.6150041256218205,0.15574865391996737,0.2054264067877754
0612,cdot_cos,Q,P-Q,301,60,50639,-0.012944506362557995,-0.014515315349212382,-0.034446169291238976,0.29709824987570294,819.0,12.629056187137525,0.6743464581668369,11.69953758808787,-0.18596975193507204,0.11,0.9999999999777877,531.9196473626896,1.4951535170012082,301,2026-10-07 20:32:06.723244,25.0,0.3956705791380179,0.6471683336473724,0.42331932328998145
0612,cdot_cos,R,Q-R,302,60,50689,0.06208371702249871,0.1409077101871005,0.0750282233850567,0.8671170818864119,819.0,12.72486809497805,0.6752915989237299,11.7353809497934,-0.38423072335931735,0.05,0.9999999999776427,-209.76872489976623,1.5001206822262665,302,2026-10-07 20:32:06.773243,25.0,0.5969066268099462,1.321758007096765,1.9162381568104792
0612,cdot_cos,S,R-S,303,60,50738,0.0006419833820618975,-0.018977816062968746,-0.06144173364043681,0.17711119288921012,819.0,12.761231987847202,0.6754844714723099,11.758151659222884,-0.14654400885440477,0.049,0.9999999999772675,1232.3511886726237,1.5050878454027854,303,2026-10-07 20:32:06.822243,25.0,0.19751363177089734,0.8174437387537367,0.742120262635766
0612,cdot_cos,T,S-T,304,60,50948,-0.0407482659136739,-0.0029619463573953924,-0.041390249295735794,0.26216304891649167,819.0,12.804977581375915,0.6757698554411358,11.78251441036618,-0.1767649153569239,0.21,0.9999999999769267,-105.89559962621259,1.5100555584969064,304,2026-10-07 20:32:07.032243,25.0,0.8428496768595767,0.3248083057641074,0.2083123501367317
0612,cdot_cos,P,T-P,305,61,51348,0.021467319805977794,-0.00011634294935943405,0.06221558571965169,0.8256908010626157,878.0,12.897651476268127,0.6766678270630242,11.817560782395278,-0.37592562472509183,0.4,0.9999999999767715,-221.78953600931683,1.5150239276107138,305,2026-10-07 20:32:07.432243,25.0,0.5887300420129511,0.1742937502504205,0.23168473723052863
0612,cdot_cos,Q,P-Q,306,61,51477,-0.013394684184051191,-0.01771733300207102,-0.034862003990028985,0.29493186088689094,878.0,12.944412581576252,0.6769882622578176,11.842525073485225,-0.1906138589149337,0.129,0.9999999999763878,578.3127721960471,1.5199913653020527,306,2026-10-07 20:32:07.561243,25.0,0.37825598052941745,0.5460316631243299,0.36248918843507705
0612,cdot_cos,R,Q-R,307,61,51507,0.05250166607296101,0.13027772705661236,0.0658963502570122,0.8385405288397154,878.0,13.038527645354204,0.6778984047102995,11.87780714269749,-0.38516547258583556,0.03,0.999999999976226,-213.75951988655694,1.524958461203611,307,2026-10-07 20:32:07.591244,25.0,0.6034381252684341,2.2230425925661677,3.137168792598407
0612,cdot_cos,S,R-S,308,61,51557,-0.001208912402216689,-0.015779371662312882,-0.0537105784751777,0.20705581139815193,878.0,13.077795137130222,0.6781229334585943,11.90107675051692,-0.1614681775659864,0.05,0.9999999999758494,996.2968961378803,1.5299256282983504,308,2026-10-07 20:32:07.641243,25.0,0.25022480324537544,0.8504104466954843,0.785349835520357
0612,cdot_cos,T,S-T,309,61,51767,-0.03873239627730825,0.005730072159334952,-0.03752348387509156,0.28128690199602663,878.0,13.123568690023752,0.6784278256981578,11.925740545748706,-0.18873989521549472,0.21,0.9999999999755039,-89.44707050775939,1.5348933577629782,309,2026-10-07 20:32:07.851244,25.0,0.8654604021476481,0.32933498819344315,0.21796929949300275
0612,cdot_cos,P,T-P,310,62,52226,0.020728164129293396,-7.56561090677501e-05,0.059460560406601644,0.8155544679685766,878.0,13.216115832171468,0.6793109609674292,11.960572243209056,-0.38306168571083743,0.459,0.9999999999753408,-220.0362699314247,1.5398619705862053,310,2026-10-07 20:32:08.310244,25.0,0.6021275999435013,0.15233810643616982,0.2016277606704042
0612,cdot_cos,Q,P-Q,311,62,52336,-0.013793768793955294,-0.01381153485603749,-0.03452193292324869,0.2967028573007181,878.0,13.263415071732156,0.6796319322448505,11.985510477943821,-0.19671179611259185,0.11,0.9999999999749346,580.5812005839011,1.5448293484261357,311,2026-10-07 20:32:08.420243,25.0,0.3877771626882585,0.6623409631500462,0.4299930869153489
0612,cdot_cos,R,Q-R,312,62,52385,0.06546794366222773,0.12047332357962139,0.07926171245618302,0.8788455306326888,878.0,13.361830844064478,0.6805816640242958,12.021540169106508,-0.41090429804358397,0.049,0.9999999999747832,-225.52946691549786,1.54979651046749,312,2026-10-07 20:32:08.469243,25.0,0.5937653813955462,1.3648463365454513,2.00848514963922
0612,cdot_cos,S,R-S,313,62,52435,-0.0012603663095243425,-0.01707104785784282,-0.06672830997175208,0.15866327869847585,878.0,13.39717001271361,0.6807529655459664,12.043820689901056,-0.1482470395960204,0.05,0.9999999999743676,1533.3037084897364,1.554763677463729,313,2026-10-07 20:32:08.519244,25.0,0.17003451753082152,0.8387240467216728,0.7067833729826489
0612,cdot_cos,T,S-T,314,62,52626,-0.03355592853254212,0.00990015993157061,-0.03229556222301778,0.30844715102345116,878.0,13.445703248736645,0.681085842227501,12.068943266962776,-0.20412058882639256,0.191,0.9999999999740155,-167.85059552021056,1.5597313542344813,314,2026-10-07 20:32:08.710243,25.0,0.7605388068093694,0.36908471323594066,0.25410071216248603
0612,cdot_cos,P,T-P,315,63,53104,0.023426950258532295,8.69536675974924e-07,0.056982878791074415,0.8060541566118317,819.0,13.53816037316974,0.6819548648198447,12.103570362089881,-0.3903293130630391,0.478,0.999999999973843,-214.2737437175935,1.5647000772434627,315,2026-10-07 20:32:09.188244,25.0,0.6206081185684259,0.14513209461821117,0.19342494651275002
0612,cdot_cos,Q,P-Q,316,63,53214,-0.014165510495288632,-0.016020634686386436,-0.03759246075382093,0.2809384164707134,819.0,13.584449531191655,0.6822574528367304,12.128148379038107,-0.19632577420731373,0.11,0.9999999999734119,641.1474613317819,1.5696674609202346,316,2026-10-07 20:32:09.298244,25.0,0.37225673283279725,0.6590975047939778,0.4208105274719578
0612,cdot_cos,R,Q-R,317,63,53263,0.0630560789605587,0.14035478720159233,0.07722158945584734,0.8733091484968514,819.0,13.683161824224415,0.6831970772783031,12.164053108290007,-0.42023830326962225,0.049,0.9999999999732496,-238.30002621849133,1.5746346227028867,317,2026-10-07 20:32:09.347244,25.0,0.5869458268530402,1.3762682290080552,2.014536592505301
0612,cdot_cos,S,R-S,318,63,53294,-0.0018643851918639844,-0.016273742610777808,-0.06492046415242268,0.16478995188356074,819.0,13.719323817634445,0.6833742134676775,12.18638300381994,-0.154664442735331,0.031,0.9999999999728174,1499.2637104385967,1.5796017192807925,318,2026-10-07 20:32:09.378243,25.0,0.1795867206982396,1.3498736790706327,1.1665159164525702
0612,cdot_cos,T,S-T,319,63,53504,-0.03713710517326033,0.0028944913310954105,-0.03527271998139635,0.29280118644012826,819.0,13.766853992326794,0.6836888204445376,12.211147898021629,-0.20379786431144914,0.21,0.9999999999724455,-156.1739732108996,1.5845694806309274,319,2026-10-07 20:32:09.588243,25.0,0.7857716962771375,0.3368457579259304,0.22633416520166452
0612,cdot_cos,P,T-P,320,64,53923,0.022065092251783325,-6.806847901069797e-05,0.05920219742504366,0.8145808782653557,839.0,13.860799035963336,0.6845631809105226,12.245914495513462,-0.40428338857536017,0.419,0.9999999999722659,-229.2939034452553,1.5895380259257645,320,2026-10-07 20:32:10.007244,25.0,0.6090204435388956,0.16925854194318712,0.2242125146456831
0612,cdot_cos,Q,P-Q,321,64,54052,-0.01280491168636201,-0.018460313238744724,-0.034870003938145336,0.2948902734507323,839.0,13.908692650475185,0.6848793907902628,12.270701217877733,-0.2070518957957083,0.129,0.9999999999718319,623.7360228645465,1.5945054874726219,321,2026-10-07 20:32:10.136243,25.0,0.3857482476881206,0.5698335172038574,0.3712683295492216
0612,cdot_cos,R,Q-R,322,64,54083,0.06295028023388541,0.15564651458404546,0.07575519192024742,0.8691972700924226,839.0,14.00781608340193,0.6858104313532297,12.306506874060679,-0.43010576303839226,0.031,0.9999999999716616,-239.5748113614857,1.599472581426319,322,2026-10-07 20:32:10.167244,25.0,0.5953520497880584,2.1961201211246753,3.1975300944111495
0612,cdot_cos,S,R-S,323,64,54132,-7.61444312883495e-05,-0.01762085866511979,-0.06302642466517376,0.17141092274379618,839.0,14.044852097984915,0.6859938621060622,12.328898102825057,-0.16143584590474824,0.049,0.9999999999712192,1464.6939675325718,1.6044397450200991,323,2026-10-07 20:32:10.216243,25.0,0.18933223994171444,0.8494046968122431,0.7558370323058005
0612,cdot_cos,T,S-T,324,64,54343,-0.039091060282511,0.0001786567916665612,-0.039014915851222645,0.2738108663576236,839.0,14.09105774368953,0.6862867528641339,12.353240363404613,-0.20190044663518372,0.211,0.999999999970824,-138.15594932677521,1.609407526586473,324,2026-10-07 20:32:10.427244,25.0,0.8183881208207248,0.3342734929539917,0.21898410286547682
0612,cdot_cos,P,T-P,325,65,54762,0.02065118531622929,-0.00012692611525006936,0.059742245598740286,0.8166114298814688,858.0,14.1859155120115,0.6871593862606622,12.388021774960446,-0.41593780735349956,0.419,0.9999999999706395,-245.2775261293465,1.6143761092442128,325,2026-10-07 20:32:10.846244,25.0,0.5977457286874563,0.1713584087097367,0.22639085518369667
0612,cdot_cos,Q,P-Q,326,65,54891,-0.013203237823023524,-0.018318560482277504,-0.03385442313925281,0.30019686608962803,858.0,14.23465609018829,0.6874798449380299,12.412853763065621,-0.2146861986991871,0.129,0.9999999999701928,628.0111067904305,1.61934357901173,326,2026-10-07 20:32:10.975244,25.0,0.39163609485256523,0.5573564734412558,0.37783393935496473
0612,cdot_cos,R,Q-R,327,65,54922,0.046213478565418444,0.13032325483138327,0.05941671638844197,0.8153895296114726,858.0,14.329713482159343,0.6883493646439306,12.447601318014375,-0.42017415144931536,0.031,0.9999999999699946,-236.32351441337602,1.6243106712853257,327,2026-10-07 20:32:11.006243,25.0,0.6132060622259876,2.229114303006215,3.0663674829372116
0612,cdot_cos,S,R-S,328,65,54971,-0.00071774671396629,-0.017107948512674054,-0.04693122527938473,0.2362625066273053,858.0,14.372861176974675,0.6886010640785183,12.471178180109137,-0.19156055867640842,0.049,0.999999999969564,908.2801204833731,1.629277835036609,328,2026-10-07 20:32:11.055244,25.0,0.30318040319580086,0.9257693306449958,0.8805652003128931
0612,cdot_cos,T,S-T,329,65,55201,-0.037494091668195076,-0.002559871246083618,-0.03677634495422879,0.28507840658675887,858.0,14.420438876562553,0.6889046206434178,12.495680662187777,-0.21178256329572326,0.23,0.9999999999691592,-66.61692401877795,1.6342457076419332,329,2026-10-07 20:32:11.285243,25.0,0.9089322248731039,0.3094094122042225,0.20685956342555578
0612,cdot_cos,P,T-P,330,66,55620,0.019813490798516263,-4.117454544682362e-05,0.05730758246671134,0.8073200347505255,859.0,14.515189506588618,0.6897633879034919,12.530257898901267,-0.42320425404094764,0.419,0.9999999999689609,-246.19207155963585,1.6392143280473528,330,2026-10-07 20:32:11.704243,25.0,0.6067893136974186,0.17461166546800694,0.22613515519347147
0612,cdot_cos,Q,P-Q,331,66,55769,-0.00898390074376053,-0.017088470488075692,-0.02879739154227679,0.32740734309822744,859.0,14.566763452224743,0.6901112875889545,12.555560413253845,-0.23137757302428666,0.149,0.9999999999685096,551.3850372173004,1.6441818851643737,331,2026-10-07 20:32:11.853244,25.0,0.43645787452937845,0.48359361924161837,0.34613386332969986
0612,cdot_cos,R,Q-R,332,66,55801,0.04151940778404102,0.13109110454419318,0.05050330852780155,0.7794703870593265,859.0,14.65930040512262,0.690938678891979,12.589588496426838,-0.41659246643872705,0.032,0.9999999999682835,-223.85404915108518,1.6491489793204481,332,2026-10-07 20:32:11.885243,25.0,0.6410839150592479,2.1739502054862467,2.8917797780586563
0612,cdot_cos,S,R-S,333,66,55849,0.0018737305664127898,-0.01768912201003329,-0.03964567721762823,0.27068658402153306,859.0,14.705896265375863,0.6912257211798771,12.613772380221484,-0.21066085894994552,0.048,0.9999999999678502,717.4260245649955,1.654116138825321,333,2026-10-07 20:32:11.933243,25.0,0.37623158687739494,0.9699008680646437,0.9707470886092251
0612,cdot_cos,T,S-T,334,66,56059,-0.03804517990742604,-0.002578267686157977,-0.03991891047383883,0.26934018723225567,859.0,14.752410888456826,0.6915111892518816,12.637914884357098,-0.21085238437406,0.21,0.9999999999674197,-0.6709171458988703,1.6590839495710448,334,2026-10-07 20:32:12.143244,25.0,0.9990920735090713,0.34022613757448894,0.2214982051474428
0612,cdot_cos,P,T-P,335,67,56479,0.021893023336878356,-0.00017145642640491288,0.0599382032443044,0.8173439439626671,858.0,14.848791243157148,0.6923765792649844,12.67265988639465,-0.4383300811576277,0.42,0.9999999999672209,-262.8614767207174,1.664052612179972,335,2026-10-07 20:32:12.563244,25.0,0.5951365670067115,0.1728703344355323,0.22947703500076752
0612,cdot_cos,Q,P-Q,336,67,56588,-0.013348224967133438,-0.013725856059275777,-0.03524124830401179,0.2929641329406817,858.0,14.897621969382673,0.6926864361252919,12.697242211315656,-0.22304301753204048,0.109,0.9999999999667364,694.7952141900142,1.669020017086609,336,2026-10-07 20:32:12.672243,25.0,0.3808968613773294,0.6938661566505964,0.44798831399564
0612,cdot_cos,R,Q-R,337,67,56638,0.06649529126734517,0.1292976588230507,0.0798435162344786,0.8803857209081352,858.0,15.000054065306978,0.6936165400043927,12.733197561584022,-0.4694612295210708,0.05,0.9999999999665565,-264.93622650759573,1.6739871835533273,337,2026-10-07 20:32:12.722244,25.0,0.5916170273688008,1.3898269229814098,2.048641918486105
0612,cdot_cos,S,R-S,338,67,56688,-0.0008182745870372137,-0.018822894636034416,-0.06731356585438239,0.15671988501537806,858.0,15.036604661680814,0.6937819454950606,12.755116506379846,-0.16824527920126234,0.05,0.9999999999660524,1821.07588510821,1.6789543514273424,338,2026-10-07 20:32:12.772243,25.0,0.16690371328881776,0.8612843169937179,0.7310119274767146
