record_id,input,event,transition,event_index,k,peak,value_cos,value_sin,value_return,x_input,rr,knowledge,decision,decision_norm,entropy,delta_t,cosine_similarity,delta_h_over_delta_d,frobenius_norm,matrix_size,timestamp,scale,P,zdot,zdot_back
0214,cdot_cos,Q,P-Q,1,0,1011,-0.0779088221204691,-0.13980474948207075,-0.0851454899304526,0.10634443172795158,841.0,0.0005282278433321033,0.5001320569577624,0.5001320569577624,,,1.0,,0.004967141530112327,1,2026-10-08 00:16:17.095244,25.0,,,
0214,cdot_cos,R,Q-R,2,0,1064,-0.03335941906194827,0.08906463281507179,0.04454940305852083,0.7528247892043546,841.0,0.006035319179835778,0.5010669021604225,0.7086156086915422,-6.518436737612166e-06,,1.0000000000000002,,0.009934283060224654,2,2026-10-08 00:16:17.148243,25.0,,,
0214,cdot_cos,S,R-S,3,0,1086,0.10727893288082618,-0.07856722417226428,0.14063835194277446,0.971138450418623,841.0,0.0157467619440295,0.5022728336570287,0.869962067155565,-3.814685197387769e-05,0.022,0.9999999999999998,-0.026227373051683395,0.014901424594228841,3,2026-10-08 00:16:17.170244,25.0,0.43643206506934806,0.27835802660741604,0.44142921655426
0214,cdot_cos,T,S-T,4,0,1323,-0.07614733557143444,-0.06102702624180733,-0.18342626845226062,0.01009412080435138,841.0,0.018283072350562084,0.5022853681282556,1.004570736257198,-1.556459113470584e-05,0.237,0.9999999999999998,1.801612563488891,0.01986856622443518,4,2026-10-08 00:16:17.407244,25.0,0.2343653595953729,0.03060727088964446,0.010701731673133272
0214,cdot_cos,P,T-P,5,1,1645,0.004913513950277729,-3.4869880180309924e-05,0.08106084952171216,0.8835536372060271,854.0,0.03025460834572097,0.5033825164323786,1.1255975254497153,-0.00010478366189537479,0.322,1.0000000000000002,-0.0813190618126927,0.024835707956068848,5,2026-10-08 00:16:17.729243,25.0,0.4267914673520083,0.024614557768717685,0.03717868321477916
0214,cdot_cos,Q,P-Q,6,1,1850,-0.09192914919467461,-0.16514647586197723,-0.09684266314495234,0.08158030642895951,854.0,0.034134847553616274,0.5034838168878673,1.2332784451802148,-4.5054349356619506e-05,0.205,1.0,0.5896253106726317,0.029802849660276246,6,2026-10-08 00:16:17.934243,25.0,0.2656124721849256,0.04296379256355045,0.018927996136074647
0214,cdot_cos,R,Q-R,7,1,1906,-0.026481520195142088,0.07620714181265704,0.06544762899953252,0.8370159420583781,854.0,0.047869763296776655,0.5045231440382716,1.3348427698962115,-0.00020310157043013717,0.056,1.0,-0.15206686461720142,0.03476999120718294,7,2026-10-08 00:16:17.990243,25.0,0.45924640398730276,0.2760934674493035,0.24526635255643536
0214,cdot_cos,S,R-S,8,1,1928,0.15037895059081166,-0.10028472798994362,0.17686047078595374,0.9881266181436948,854.0,0.06505731590793827,0.5057500551125815,1.430477174325202,-0.00034997679339086055,0.022,1.0000000000000002,-0.11971138417128634,0.039737132732075554,8,2026-10-08 00:16:18.012243,25.0,0.6572628132535148,0.4830721343190141,0.7812523914164371
0214,cdot_cos,T,S-T,9,1,2161,-0.041754093812939264,-0.03081854992334179,-0.19213304440375092,0.008135687157940864,854.0,0.06912493720681327,0.5057601565515045,1.5172804697665734,-9.84152731895563e-05,0.233,1.0,24.903533260858637,0.04470427498627032,9,2026-10-08 00:16:18.245243,25.0,0.07760505091702302,0.043065500733925295,0.017457602141094427
0214,cdot_cos,P,T-P,10,2,2499,0.009019955100874819,-0.0005177081654499685,0.05077404891381408,0.7806316677337257,840.0,0.08512583924994746,0.5067293820301667,1.6024190048718658,-0.0004450181282756483,0.338,1.0000000000000002,-0.35760807233885966,0.04967141773786196,10,2026-10-08 00:16:18.583244,25.0,0.45893298038407265,0.03193694997937526,0.047339946873178065
0214,cdot_cos,Q,P-Q,11,2,2710,-0.08500306496613265,-0.15218516522252962,-0.09402302006700747,0.08702003937279046,840.0,0.09071431539287095,0.5068374223532599,1.6809895603135048,-0.00017718003739079335,0.211,1.0,2.479056737490685,0.05463856005197229,11,2026-10-08 00:16:18.794244,25.0,0.2205409382817329,0.05643196956916553,0.026485668923808
0214,cdot_cos,R,Q-R,12,2,2752,-0.023033829612639202,0.07522456885321945,0.06196923535349345,0.824802619807025,840.0,0.10894013040813531,0.5078614285409073,1.7592835957813524,-0.0006560593371680084,0.042,0.9999999999999999,-0.4676527403388117,0.05960570155006822,12,2026-10-08 00:16:18.836244,25.0,0.4819413234292487,0.4788843760850538,0.43394797655391343
0214,cdot_cos,S,R-S,13,2,2772,0.1327556617892481,-0.10120016997337525,0.1557894914018873,0.9800570929645465,840.0,0.13094060298401547,0.5090780992906543,1.8355071911408254,-0.0009514122564610189,0.02,1.0000000000000002,-0.24275500940121778,0.06457284298573046,13,2026-10-08 00:16:18.856243,25.0,0.7331270087658074,0.6773261765467806,1.1000236287940077
0214,cdot_cos,T,S-T,14,2,3019,-0.0597827885598779,-0.043072946867092864,-0.192538450349126,0.008054307980225422,840.0,0.13603317747000654,0.5090880977118947,1.9048332422712702,-0.00024510210991590453,0.247,1.0,70.64216735459108,0.06953998646105249,14,2026-10-08 00:16:19.103244,25.0,0.05603955281147137,0.05266478255337428,0.02061771046959947
0214,cdot_cos,P,T-P,15,3,3339,0.0063865136492264,0.00027982645732353516,0.0661693022091043,0.8394622721513828,858.0,0.15695700556538236,0.5101301443000781,1.9757255549400397,-0.0011050971499288872,0.32,1.0,-0.8252942332570794,0.07450713080780226,15,2026-10-08 00:16:19.423244,25.0,0.45922837875027783,0.04384506862278675,0.06538696279804945
0214,cdot_cos,Q,P-Q,16,3,3549,-0.08144293935933052,-0.15627146261421046,-0.08782945300855692,0.10013402244994778,858.0,0.16409402138859006,0.5102544375955987,2.0410177530147684,-0.0004130404319964754,0.21,0.9999999999999997,5.567932807907346,0.07947427419199853,16,2026-10-08 00:16:19.633244,25.0,0.18721116111465433,0.06833693683685842,0.03398578963432235
0214,cdot_cos,R,Q-R,17,3,3605,-0.024382029131718087,0.066485421883689,0.05706091022761243,0.806358942570196,858.0,0.1856585190368629,0.5112552987269079,2.1079596016585924,-0.001359454418726242,0.056,0.9999999999999994,-0.9455997012211224,0.08444141584928816,17,2026-10-08 00:16:19.689243,25.0,0.4984899174772334,0.4236585990197067,0.3850803151477293
0214,cdot_cos,S,R-S,18,3,3626,0.11885129054547458,-0.08719535752597667,0.14323331967719266,0.9729022520006233,858.0,0.2115437844787972,0.5124627543016087,2.1741953355186485,-0.0018530154077575764,0.021,0.9999999999999996,-0.408761199478193,0.089408557152631,18,2026-10-08 00:16:19.710243,25.0,0.7661666474465008,0.75917967698846,1.2326316877111576
0214,cdot_cos,T,S-T,19,3,3859,-0.06745951479302326,-0.05048604940512366,-0.18631080533849784,0.009398426439248105,858.0,0.21754406547037822,0.5124744178725279,2.2338242021723356,-0.0004640149247678008,0.233,0.9999999999999993,119.08878443940007,0.0943757021208257,19,2026-10-08 00:16:19.943244,25.0,0.0501147833099314,0.06611809712625967,0.02575227893382407
0214,cdot_cos,P,T-P,20,4,4197,0.0059884231561612876,0.0002862122807336284,0.07344793794918454,0.8624984840008533,880.0,0.24235481773963422,0.5135447303837919,2.2966418582484227,-0.0020562126191199363,0.338,0.9999999999999992,-1.4876007498705384,0.09934284923917117,20,2026-10-08 00:16:20.281244,25.0,0.46101018455563497,0.049214836160836946,0.07340459251259171
0214,cdot_cos,Q,P-Q,21,4,4408,-0.07818901632854837,-0.13707869265496153,-0.08417743948470965,0.10866641378729329,880.0,0.250813294715104,0.513679570734437,2.353975523076951,-0.0007517033927630267,0.211,0.9999999999999987,9.674472219298107,0.10430999416481143,21,2026-10-08 00:16:20.492243,25.0,0.17632891340456616,0.07877481647405167,0.04008756860412219
0214,cdot_cos,R,Q-R,22,4,4462,-0.020067491909053586,0.06641593761123456,0.05812152441949478,0.8104655618337303,880.0,0.275597790291684,0.5146851849537335,2.4140875116046536,-0.0023507956047862746,0.054,0.9999999999999981,-1.5901646787989887,0.10927713588539474,22,2026-10-08 00:16:20.546243,25.0,0.5064982177093075,0.49316483544535655,0.4589721403070375
0214,cdot_cos,S,R-S,23,4,4484,0.08686024391020358,-0.0816634715993177,0.10692773581925717,0.9354261937747866,880.0,0.3040750969432025,0.5158457002375427,2.4739090793779694,-0.002973925268190818,0.022,0.9999999999999982,-0.5369422291098216,0.11424427701331871,23,2026-10-08 00:16:20.568243,25.0,0.8109644642298064,0.8045193165257309,1.2944230296144768
0214,cdot_cos,T,S-T,24,4,4717,-0.07872339012880668,-0.04696089401396723,-0.16558363403901027,0.015679601519313142,880.0,0.3109966402188162,0.5158651513582011,2.5272128028906042,-0.0007669654294071335,0.233,0.9999999999999981,113.46183479836398,0.11921142409943894,24,2026-10-08 00:16:20.801243,25.0,0.05627404149058668,0.07663622636410543,0.02970619431593851
0214,cdot_cos,P,T-P,25,5,5077,0.009629707060929065,-0.0006246511325105508,0.08835309718973575,0.9010394209563871,859.0,0.33978757842887564,0.5169828411923031,2.5849142177162103,-0.003375017751927886,0.36,0.9999999999999974,-2.333431192577862,0.12417857526554944,25,2026-10-08 00:16:21.161243,25.0,0.4617405253281651,0.05227991336149136,0.07997482836127627
0214,cdot_cos,Q,P-Q,26,5,5267,-0.08606264546257093,-0.12453070136515515,-0.0956923525235,0.08376107131312654,859.0,0.34863817783908996,0.5170867337339637,2.636635361613765,-0.0010975059161379434,0.19,0.9999999999999971,21.921803041733206,0.12914572148129752,26,2026-10-08 00:16:21.351244,25.0,0.12553502937687225,0.0988075835862228,0.04658210215902275
0214,cdot_cos,R,Q-R,27,5,5327,-0.01524548627510733,0.06442894683016058,0.0708171591874636,0.8545110107622635,859.0,0.3773344601916403,0.518146535361382,2.692368393490186,-0.0037519584213619554,0.06,0.9999999999999969,-2.504669210303468,0.1341128635325184,27,2026-10-08 00:16:21.411244,25.0,0.4928824750667235,0.5051498268954314,0.4782713725425057
0214,cdot_cos,S,R-S,28,5,5348,0.10344130028587327,-0.0964490059001954,0.1186867865609806,0.9510687296839182,859.0,0.4092561570665417,0.5193258996838176,2.748014378916246,-0.004521369270520838,0.021,0.9999999999999964,-0.6523945438419864,0.13908000437390777,28,2026-10-08 00:16:21.432243,25.0,0.8435196445388895,0.9428985023127286,1.5200808035667346
0214,cdot_cos,T,S-T,29,5,5577,-0.06056489051371704,-0.03546111256414024,-0.1640061907995903,0.01630001755302881,859.0,0.4169361972887749,0.5193461105362535,2.7967644162409973,-0.0011425587851052622,0.229,0.9999999999999963,167.17802953327188,0.14404715400576543,29,2026-10-08 00:16:21.661243,25.0,0.051962592281278294,0.0827822294116427,0.03353729354686976
0214,cdot_cos,P,T-P,30,6,5936,0.008604410102522851,-0.00032444275533925277,0.06916930061623988,0.8493142242342389,862.0,0.4471704181370741,0.5203991100953339,2.850343338410339,-0.004703565320685231,0.359,0.9999999999999953,-3.3817740044351847,0.14901430968275148,30,2026-10-08 00:16:22.020243,25.0,0.46903088722662006,0.056872583618200793,0.08421788537130694
0214,cdot_cos,Q,P-Q,31,6,6146,-0.07262407505366275,-0.1231491861756805,-0.08122848515618561,0.11601586887082121,862.0,0.45777071232664307,0.5205429354122915,2.8982604355085146,-0.0017269869995008849,0.21,0.9999999999999941,20.69578836431645,0.1539814589807188,31,2026-10-08 00:16:22.230243,25.0,0.1784285031168174,0.09552573634749027,0.050477591378899914
0214,cdot_cos,R,Q-R,32,6,6195,-0.019644467833909614,0.06618767580502183,0.05297960721975314,0.7899277855243413,862.0,0.48729122740302,0.5215221201650726,2.9501746563096534,-0.00502184548140772,0.049,0.9999999999999932,-3.3648997010508874,0.15894860069707784,32,2026-10-08 00:16:22.279244,25.0,0.5188683390492332,0.6506502138681944,0.6024594913546312
0214,cdot_cos,S,R-S,33,6,6216,0.08719861803168001,-0.080353974161856,0.10684308586558963,0.935298245964402,862.0,0.5215344332857261,0.5226812899457722,3.0025754495304393,-0.00621699463977511,0.021,0.999999999999993,-1.0310389196361232,0.16391574120097727,33,2026-10-08 00:16:22.300243,25.0,0.8251096004782073,1.0115161036743237,1.6306288515574345
0214,cdot_cos,T,S-T,34,6,6455,-0.08380128130980095,-0.054502568537860216,-0.17099989934148097,0.013721193337574886,862.0,0.5297749037573416,0.5226982936350214,3.0478286410355855,-0.0015590898407595241,0.239,0.9999999999999923,273.93495204236825,0.16888289443599494,34,2026-10-08 00:16:22.539244,25.0,0.0504093064442293,0.08919320673206473,0.03447895594818188
0214,cdot_cos,P,T-P,35,7,6798,0.007403842409589681,0.00015226009297379133,0.09120512371939063,0.9072178294979698,856.0,0.5641687861036531,0.5238224248989856,3.09897529991128,-0.006769767247723137,0.343,0.9999999999999917,-4.635292669103951,0.1738500544147494,35,2026-10-08 00:16:22.882244,25.0,0.4631528443966756,0.06616105167632919,0.10027370946446491
0214,cdot_cos,Q,P-Q,36,7,7005,-0.0803439250316525,-0.14009973436050216,-0.08774776744124217,0.100318184212898,856.0,0.5751613852073034,0.5239467142896364,3.1436803377288056,-0.002253394444811034,0.207,0.9999999999999896,36.33755688449364,0.17881720639789744,36,2026-10-08 00:16:23.089243,25.0,0.134760910958146,0.1040811883264659,0.05310434349589545
0214,cdot_cos,R,Q-R,37,7,7059,-0.024956643887749885,0.07227339973408739,0.05538728114390261,0.7997419020104062,856.0,0.60725839807081,0.5249374485739413,3.193069901083745,-0.00682714613892957,0.054,0.9999999999999883,-4.616527121928762,0.18378434854289624,37,2026-10-08 00:16:23.143244,25.0,0.5117412743353817,0.6424485512134269,0.5943891271019727
0214,cdot_cos,S,R-S,38,7,7081,0.09414416729496287,-0.07966689246318291,0.11910081118271276,0.951548173564131,856.0,0.6445458287383535,0.5261159868001658,3.2431968154314186,-0.00839454132639705,0.022,0.9999999999999879,-1.3299485350498248,0.18875148873891295,38,2026-10-08 00:16:23.165244,25.0,0.8296793309533936,1.0478816616473234,1.6948832121610722
0214,cdot_cos,T,S-T,39,7,7313,-0.08002976195230121,-0.05556820387824117,-0.1741739292472641,0.012687764529730626,856.0,0.6533651911832922,0.5261316992710577,3.28569146817742,-0.0020586322896594756,0.232,0.9999999999999868,403.2407811802953,0.19371864524950316,39,2026-10-08 00:16:23.397243,25.0,0.04606382170542971,0.09822067984909982,0.0380144932971493
0214,cdot_cos,P,T-P,40,8,7654,0.010147374192269819,-0.00059704047237239,0.09017713614457104,0.9050318361959426,842.0,0.6901202241883359,0.5272523512733791,3.3346367319089625,-0.008878553548930287,0.341,0.9999999999999857,-6.085672666576015,0.1986858109923029,40,2026-10-08 00:16:23.738244,25.0,0.46387773150835604,0.07166498413831852,0.10778602054265007
0214,cdot_cos,Q,P-Q,41,8,7863,-0.07286160106629488,-0.13189540128251537,-0.08300897525856471,0.11152830434346811,842.0,0.7022407103656254,0.5273904319698484,3.3769465400194134,-0.0030342486649068707,0.209,0.9999999999999831,42.32528538357035,0.20365296644952147,41,2026-10-08 00:16:23.947244,25.0,0.14571353138443546,0.1061163649802622,0.05799275682913664
0214,cdot_cos,R,Q-R,42,8,7910,-0.03164926891510621,0.09231978975622257,0.04121233215118868,0.7369756625858511,842.0,0.7344768647500854,0.5283027587198815,3.4237932807206777,-0.00832540536454716,0.047,0.9999999999999815,-5.799629024850956,0.20862010819082966,42,2026-10-08 00:16:23.994244,25.0,0.529647582557756,0.7749750599015546,0.6858756252012773
0214,cdot_cos,S,R-S,43,8,7933,0.12395302953669834,-0.08897612458274404,0.15560229845180457,0.9799654191463784,842.0,0.7750883659963715,0.5295155967748265,3.4722660658711897,-0.011017154961557273,0.023,0.999999999999981,-2.2193808860427016,0.21358724807715337,43,2026-10-08 00:16:24.017244,25.0,0.783234235719946,1.0865848241248592,1.7657174454906999
0214,cdot_cos,T,S-T,44,8,8173,-0.05095356451847483,-0.03763436329039063,-0.17490659405517317,0.012460352382710808,842.0,0.784459766659829,0.5295310159113316,3.512511481831068,-0.002626456623732461,0.24,0.9999999999999786,544.1743339569571,0.21855440953665642,44,2026-10-08 00:16:24.257244,25.0,0.04097948243470864,0.0936909949478706,0.03904750276440596
0214,cdot_cos,P,T-P,45,9,8496,0.005097510633649699,9.820866067123038e-06,0.056051075152124534,0.8023864317613082,854.0,0.8200600435713494,0.5305238137522421,3.558862039084547,-0.010262695717228328,0.323,0.999999999999977,-7.691635475850979,0.2235215799130992,45,2026-10-08 00:16:24.580243,25.0,0.47517253139599275,0.07377261265018753,0.11021757557746271
0214,cdot_cos,Q,P-Q,46,9,8701,-0.08798637444629225,-0.1555569163144491,-0.09308388507994195,0.08890351461072156,854.0,0.8321168744318501,0.5306337999161025,3.5989336543997448,-0.0035788292951848895,0.205,0.9999999999999727,60.770065865088206,0.22848873852035934,46,2026-10-08 00:16:24.785243,25.0,0.1544920675714251,0.11917393457406075,0.05881380907561312
0214,cdot_cos,R,Q-R,47,9,8758,-0.02824218324790381,0.08172508286739547,0.05974419119838843,0.8166187139583035,854.0,0.8689213567467143,0.5316439316800325,3.6447673004872754,-0.011244919281460824,0.057,0.9999999999999711,-7.589198023483555,0.23345588144585566,47,2026-10-08 00:16:24.842243,25.0,0.5057372025422998,0.6994437500799761,0.6456926721906003
0214,cdot_cos,S,R-S,48,9,8779,0.12813709333978401,-0.09005543710808611,0.15637927658768783,0.9803432488443493,854.0,0.9118534619409674,0.5328562423744604,3.691736476335794,-0.013727654487036528,0.021,0.9999999999999704,-2.0479364052359905,0.23842302066484442,48,2026-10-08 00:16:24.863244,25.0,0.8345551293195672,1.2564963843534365,2.044385961631098
0214,cdot_cos,T,S-T,49,9,9012,-0.05089811435563621,-0.03800511417272945,-0.17903520769542022,0.011252149229324474,854.0,0.9216942048895587,0.5328701547671643,3.7300912201277865,-0.0032398406338559078,0.233,0.9999999999999677,753.8468814397428,0.24339018604026721,49,2026-10-08 00:16:25.096244,25.0,0.03927611091360086,0.10160777324536328,0.042234948277215766
0214,cdot_cos,P,T-P,50,10,9350,0.004928273730443841,9.486249846892976e-05,0.05582638808608005,0.8014942454081632,861.0,0.9592026842733067,0.5338610062271928,3.774967530148776,-0.01266434177815549,0.338,0.9999999999999657,-9.511517643651873,0.24835736515693219,50,2026-10-08 00:16:25.434243,25.0,0.4751255695364275,0.07465434771082505,0.1109718324962959
0214,cdot_cos,Q,P-Q,51,10,9560,-0.08466883681303172,-0.15935596717976422,-0.08959711054347556,0.09622182343596228,861.0,0.9721605439420764,0.5339799431548135,3.8133797237373477,-0.004492326640276396,0.21,0.9999999999999605,68.70881316140127,0.25332452840010555,51,2026-10-08 00:16:25.644243,25.0,0.162170782508715,0.12342009542807102,0.0617040936608082
0214,cdot_cos,R,Q-R,52,10,9614,-0.023843835066701978,0.06946632775377427,0.060825001746329745,0.8206305030083715,861.0,1.0110391243530965,0.5349941417229569,3.8578978126634715,-0.013836582332959403,0.054,0.9999999999999575,-9.21343806448897,0.25829167124011443,52,2026-10-08 00:16:25.698244,25.0,0.50898855377573,0.7770228096651453,0.7199737113151871
0214,cdot_cos,S,R-S,53,10,9636,0.12787614013019474,-0.0945790842075317,0.15171997519689673,0.9779683958557851,861.0,1.056079007385912,0.5362024121103258,3.903612678162855,-0.0167018408102568,0.022,0.9999999999999571,-2.371371927385106,0.2632588100501616,53,2026-10-08 00:16:25.720243,25.0,0.8423552396534086,1.2563753922351448,2.047267410582527
0214,cdot_cos,T,S-T,54,10,9869,-0.06071769552730485,-0.0438953627234157,-0.1885938356574996,0.008881656250240311,861.0,1.0663196416114429,0.5362133833840488,3.940347742951453,-0.003899008837217445,0.233,0.999999999999953,1166.9412591764071,0.26822598050294033,54,2026-10-08 00:16:25.953243,25.0,0.03749259094774429,0.10987479982046977,0.04395121985206346
0214,cdot_cos,P,T-P,55,11,10211,0.007163408360253089,0.00031296426846189615,0.06788110388755794,0.8451461231823257,874.0,1.107280664102251,0.5372572080246791,3.984406309369691,-0.015966764858462566,0.342,0.9999999999999505,-11.5610951797014,0.2731931682509396,55,2026-10-08 00:16:26.295244,25.0,0.4696325464583287,0.08217812331231616,0.11976907161055007
0214,cdot_cos,Q,P-Q,56,11,10437,-0.06523449128289004,-0.13495193040027056,-0.07239789964314312,0.1406444720318945,874.0,1.1225294779570671,0.5374308840189621,4.021764721687604,-0.006097442933162455,0.226,0.9999999999999437,56.82605685400506,0.2781603386924033,56,2026-10-08 00:16:26.521244,25.0,0.19817592549770785,0.11818328571741317,0.06747262767617758
0214,cdot_cos,R,Q-R,57,11,10477,-0.020914244912382043,0.06441132972073055,0.04432024637050799,0.7517572110611135,874.0,1.1606995092465218,0.538359042609846,4.06452190694736,-0.01562402302697333,0.04,0.9999999999999402,-10.263957245429863,0.2831274794980682,57,2026-10-08 00:16:26.561243,25.0,0.543492565891367,1.0610273711790685,0.9542507822363655
0214,cdot_cos,S,R-S,58,11,10498,0.11401403431348543,-0.09188263744244417,0.13492827922586748,0.9668566125509982,874.0,1.2074116676513926,0.5395523823917335,4.109108793318048,-0.01982395972556571,0.021,0.9999999999999388,-3.5194810081243646,0.2880946175388546,58,2026-10-08 00:16:26.582243,25.0,0.8090766304070973,1.369938792977426,2.224388495470041
0214,cdot_cos,T,S-T,59,11,10730,-0.06213493336937748,-0.03979359175497051,-0.17614896768286292,0.012083895164651743,874.0,1.2182369385515737,0.5395672940621808,4.144495296905959,-0.00470568644418853,0.232,0.9999999999999333,1013.8551099819446,0.293061793382707,59,2026-10-08 00:16:26.814244,25.0,0.04024510804595344,0.11694719392782293,0.04666065043181482
0214,cdot_cos,P,T-P,60,12,11085,0.011073075598264226,-0.0005216540395935608,0.07320800896764171,0.8617855774979726,844.0,1.2616751656339025,0.5406305634840325,4.187706633767486,-0.01929814696851817,0.355,0.9999999999999306,-13.724141994902322,0.2980289923875669,60,2026-10-08 00:16:27.169244,25.0,0.4694663580115941,0.08229095383377288,0.12236120304881354
0214,cdot_cos,Q,P-Q,61,12,11298,-0.06998586407011811,-0.12067461397569743,-0.08105893966838235,0.11645127534217961,844.0,1.2766635157735524,0.5407742126986089,4.223581956479696,-0.006815381648149448,0.213,0.9999999999999226,86.89755357991639,0.3029961658174579,61,2026-10-08 00:16:27.382244,25.0,0.1601638723453657,0.1282086251523397,0.07036784103122039
0214,cdot_cos,R,Q-R,62,12,11340,-0.026730925416213986,0.08375233829326674,0.04325493865390413,0.7467538110870904,844.0,1.3162920399487992,0.5416952135834278,4.265312738410614,-0.018401655720911812,0.042,0.9999999999999173,-12.580090056093098,0.3079633068779743,62,2026-10-08 00:16:27.424243,25.0,0.5327877504279032,1.0299590813838873,0.9435362898868276
0214,cdot_cos,S,R-S,63,12,11362,0.07157083444818196,-0.06760836485211599,0.09830175986439595,0.9211113813182541,844.0,1.363180078609799,0.5428308635052393,4.308586770197188,-0.022490405324051423,0.022,0.9999999999999151,-3.6003609251495745,0.3129304444318887,63,2026-10-08 00:16:27.446244,25.0,0.83376830293271,1.3210274774179436,2.131274484590899
0214,cdot_cos,T,S-T,64,12,11587,-0.1062381399586593,-0.0769121800790339,-0.17780897440684126,0.011598372201913084,844.0,1.3744172489551887,0.5428451604730735,4.342761647833118,-0.005506940291704574,0.225,0.9999999999999086,1187.9067806080543,0.31789762467132326,64,2026-10-08 00:16:27.671244,25.0,0.04577527831853446,0.13276136686931445,0.049942979312843264
0214,cdot_cos,P,T-P,65,13,11929,0.006857645640706363,-8.17331390479789e-05,0.11309578559936566,0.9441383513494102,854.0,1.4229226937009904,0.5440087328866621,4.385939016028315,-0.0242796639664431,0.342,0.9999999999999055,-16.133696068680322,0.32286483085787715,65,2026-10-08 00:16:28.013243,25.0,0.4615397350432468,0.09272760860127922,0.1418287858064379
0214,cdot_cos,Q,P-Q,66,13,12138,-0.08124156284686868,-0.14942795307527132,-0.08809920848757503,0.0995279862424826,854.0,1.4378429332384637,0.544131365135083,4.420544549432254,-0.007637409700891725,0.209,0.9999999999998953,135.70862868330317,0.32783200900751447,66,2026-10-08 00:16:28.222244,25.0,0.11314961325592741,0.1370701089470727,0.07138870592092457
0214,cdot_cos,R,Q-R,67,13,12190,-0.03169561778745956,0.08921928076660499,0.04954594505940912,0.7753287005563517,854.0,1.4802179992408668,0.5450864930241337,4.461725707369409,-0.022117881795705875,0.052,0.9999999999998899,-15.160767747244753,0.33279915234437507,67,2026-10-08 00:16:28.274244,25.0,0.5196003880156478,0.90199606200828,0.8149051154308299
0214,cdot_cos,S,R-S,68,13,12213,0.1414485324919996,-0.09437287322962758,0.17314415027945915,0.986985660937377,854.0,1.5316505236873248,0.5463018805545687,4.5049211892786145,-0.02769606446769672,0.023,0.9999999999998876,-4.589632962577924,0.33776628949065235,68,2026-10-08 00:16:28.297244,25.0,0.8175795671358308,1.3709350633636628,2.2361967150633895
0214,cdot_cos,T,S-T,69,13,12446,-0.04266433905868514,-0.03114401962985036,-0.18411287155068473,0.009924037860354479,854.0,1.5432810121555953,0.546314098371976,4.538026201956023,-0.006394044293443602,0.233,0.9999999999998791,1743.5209141070002,0.34273347825838024,69,2026-10-08 00:16:28.530244,25.0,0.035737993416627346,0.11839025099562431,0.04991625952047436
0214,cdot_cos,P,T-P,70,14,12783,0.007855558769852297,-0.0005115929298797987,0.05051989782853744,0.7795416697827935,862.0,1.5868203806512857,0.5472736429215623,4.5788203196930075,-0.02435708877962521,0.337,0.9999999999998743,-18.720386139367054,0.3477006936374042,70,2026-10-08 00:16:28.867244,25.0,0.47831425046868564,0.08484981697224694,0.12919693915635133
0214,cdot_cos,Q,P-Q,71,14,12975,-0.10493449612462213,-0.1503286306875237,-0.11279005489447443,0.05626613430807765,862.0,1.6004697887948898,0.54734288788406,4.611993720974203,-0.007775150289075432,0.192,0.9999999999998616,239.46779509190438,0.352667873026598,71,2026-10-08 00:16:29.059244,25.0,0.11851876417601298,0.16265598919629892,0.07109066741460442
0214,cdot_cos,R,Q-R,72,14,13035,-0.02064611520385596,0.08215021726173985,0.08428838092076618,0.8916019339897192,862.0,1.6492802805026645,0.5484399080380099,4.653667538214946,-0.028336896277253047,0.06,0.999999999999856,-18.74327095463504,0.3576350187830126,72,2026-10-08 00:16:29.119244,25.0,0.4840256223895662,0.8459306071192959,0.8135081951295791
0214,cdot_cos,S,R-S,73,14,13056,0.12251796583933156,-0.10572558705955205,0.1431640810431875,0.9728565803772143,862.0,1.7019814616492053,0.5496363660609948,4.69609577864384,-0.03153639200545753,0.021,0.9999999999998529,-2.674139557543841,0.3626021547154672,73,2026-10-08 00:16:29.140243,25.0,0.9035226655499359,1.5419574142977137,2.5095800545971794
0214,cdot_cos,T,S-T,74,14,13285,-0.05980116741821178,-0.03485477579767557,-0.18231913325754334,0.010374473153303464,862.0,1.7140424919031685,0.5496491219358319,4.72826113827319,-0.007356756970143687,0.229,0.9999999999998428,1895.5685395124915,0.3675693494191069,74,2026-10-08 00:16:29.369244,25.0,0.037376066005998604,0.1312802726182986,0.052668254384118825
0214,cdot_cos,P,T-P,75,15,13645,0.009280763350904128,-0.0006519186278543848,0.06908193076911591,0.849034472005147,857.0,1.762107826508386,0.5506928247206383,4.76914041169932,-0.029821385945396264,0.36,0.9999999999998379,-21.523971481421643,0.37253658253240646,75,2026-10-08 00:16:29.729243,25.0,0.47080748724725563,0.08679923400582434,0.13351481834782655
0214,cdot_cos,Q,P-Q,76,15,13838,-0.09880626670385126,-0.14633611551348705,-0.10808703005475538,0.06284509195775448,857.0,1.776537940387362,0.550770061436098,4.801502803154731,-0.009113609286799907,0.193,0.9999999999998219,268.1079397972147,0.3775037679354094,76,2026-10-08 00:16:29.922244,25.0,0.10308702488698597,0.1668952741296812,0.07476742942474596
0214,cdot_cos,R,Q-R,77,15,13898,-0.019233505410388006,0.07372771747113864,0.07957276129346325,0.8796710758246411,857.0,1.826529402322443,0.5518509199326788,4.842472932282382,-0.03213342572385945,0.06,0.9999999999998153,-21.297715204979017,0.3824709143336708,77,2026-10-08 00:16:29.982244,25.0,0.4885163837365099,0.8697004192574853,0.8331910322513496
0214,cdot_cos,S,R-S,78,15,13917,0.11973862095128338,-0.10413947576805778,0.1389721263616714,0.9699477059370266,857.0,1.8809019906982603,0.5530421340102316,4.884336647376033,-0.035943673935582066,0.019,0.9999999999998113,-3.1986259090810396,0.3874380487893409,78,2026-10-08 00:16:30.001244,25.0,0.8994191736598979,1.7592809924377582,2.861715177674593
0214,cdot_cos,T,S-T,79,15,14161,-0.062279527039950655,-0.03872737971600747,-0.18201814799123403,0.010452012677899162,857.0,1.8933820800350778,0.5530549670656854,4.9156608412434775,-0.008398838557511437,0.244,0.9999999999997994,2146.3972845249073,0.3924052558153771,79,2026-10-08 00:16:30.245243,25.0,0.037643291198871096,0.12725590244252835,0.0511479071181047
0214,cdot_cos,P,T-P,80,16,14502,0.006482902436949979,0.00038483060698578137,0.06876242947690063,0.8480078137654881,880.0,1.943002871090214,0.5540959200510679,4.955985399383782,-0.03392788525039109,0.341,0.9999999999997928,-24.524687523229538,0.3973724955122867,80,2026-10-08 00:16:30.586244,25.0,0.47121054016398073,0.09732891128421814,0.14551551629072224
0214,cdot_cos,Q,P-Q,81,16,14713,-0.07964062151796682,-0.1484451272104877,-0.08612352395491679,0.10404300434869765,880.0,1.9597603975309146,0.5542236032240679,4.9880133358143555,-0.011655441989682613,0.211,0.9999999999997754,174.43522695586563,0.402339693128994,81,2026-10-08 00:16:30.797244,25.0,0.147946423229217,0.15460034959646868,0.07941955659099763
0214,cdot_cos,R,Q-R,82,16,14770,-0.021696995363972748,0.06655066505062494,0.057943626153994066,0.8097814394758865,880.0,2.008244218619924,0.5552171335864976,5.0277059354873606,-0.03427081602087566,0.057,0.999999999999766,-22.762640062541745,0.40730683913385246,82,2026-10-08 00:16:30.854244,25.0,0.5169020789410999,0.9117728289308554,0.8505933524387593
0214,cdot_cos,S,R-S,83,16,14791,0.10120044418161346,-0.08695602262345156,0.12289743954558621,0.9557413288147283,880.0,2.063702500029032,0.5563891755651118,5.068947592416116,-0.04020627396864856,0.021,0.9999999999997612,-5.064202525229396,0.4122739732588407,83,2026-10-08 00:16:30.875243,25.0,0.8627544423469076,1.629358258840083,2.640870543290869
0214,cdot_cos,T,S-T,84,16,15022,-0.07280118159316815,-0.04565520699577995,-0.17400162577478162,0.012741838168800517,880.0,2.0766772654912073,0.5564047968904183,5.099535162023923,-0.0095644927563956,0.231,0.9999999999997468,1961.535312208986,0.41724118397895193,84,2026-10-08 00:16:31.106244,25.0,0.04061159554239599,0.14182673800826395,0.05616781585357247
0214,cdot_cos,P,T-P,85,17,15382,0.006278890303867659,0.0002906078111839208,0.07908007189703581,0.8783611889365536,883.0,2.12922645298885,0.5574813856166008,5.139725444209419,-0.03933070876368344,0.36,0.999999999999739,-27.648641754626464,0.4222084434230101,85,2026-10-08 00:16:31.466244,25.0,0.4691565817156394,0.09698353222494979,0.14596996527122974
0214,cdot_cos,Q,P-Q,86,17,15591,-0.07986544372281322,-0.1418960575815084,-0.08614433402668088,0.10399451747625146,883.0,2.146505408693171,0.5576088139457989,5.171052534964107,-0.013146452768234269,0.209,0.9999999999997179,205.48222016427377,0.42717564745915043,86,2026-10-08 00:16:31.675244,25.0,0.13645840335649315,0.162184376346678,0.08267442920727819
0214,cdot_cos,R,Q-R,87,17,15647,-0.0187456089888083,0.06311122234716834,0.061119834734004924,0.821712896580039,883.0,2.1970195223017615,0.5586154211290993,5.210418958467964,-0.03902380880239105,0.056,0.9999999999997077,-25.707501857188937,0.4321427936004238,87,2026-10-08 00:16:31.731244,25.0,0.5152427508767726,0.9598507074374263,0.9020377430105404
0214,cdot_cos,S,R-S,88,17,15668,0.10149470335999983,-0.09029759027966221,0.12024031234880812,0.9528448027763952,883.0,2.254008687926163,0.5597820628514205,5.25122240973944,-0.04509037844103573,0.021,0.9999999999997015,-5.200028014234332,0.4371099267032222,88,2026-10-08 00:16:31.752243,25.0,0.8741157786253868,1.67842943571125,2.713769791638166
0214,cdot_cos,T,S-T,89,17,15901,-0.06411865071554362,-0.0379021408518396,-0.16561335407554345,0.015668138353320062,883.0,2.267513558601634,0.5598012410859035,5.281155536672438,-0.010854312332627486,0.233,0.9999999999996839,1785.1521285163135,0.44207714671386483,89,2026-10-08 00:16:31.985244,25.0,0.042674907264526135,0.14263993953974638,0.057960818349661006
0214,cdot_cos,P,T-P,90,18,16265,0.0066655754968485146,-1.442071221667058e-05,0.07078422621239214,0.854408623597086,857.0,2.3204788997516848,0.5608467890703929,5.320661077130241,-0.043173702157184995,0.364,0.999999999999675,-30.91143620762699,0.4470444221532411,90,2026-10-08 00:16:32.349244,25.0,0.4730331894469436,0.09592637508759849,0.14550917898365606
0214,cdot_cos,Q,P-Q,91,18,16469,-0.08854753819383222,-0.1510262216006412,-0.09521311369068074,0.08468515004413459,857.0,2.3373479596654057,0.5609503898382722,5.351127046784257,-0.013959080364749936,0.204,0.9999999999996501,281.9923287293809,0.45201163148705853,91,2026-10-08 00:16:32.553244,25.0,0.12333194461199057,0.17230818878532952,0.08269147016529851
0214,cdot_cos,R,Q-R,92,18,16522,-0.018312349438076404,0.06000615786610871,0.07023518875575582,0.8526928727343649,857.0,2.390780640776099,0.5619932461380176,5.390451291643214,-0.04485931820894082,0.053,0.9999999999996377,-29.630389011155078,0.45697877682509697,92,2026-10-08 00:16:32.606244,25.0,0.5021655660668994,1.0635475965313381,1.0081637945413877
0214,cdot_cos,S,R-S,93,18,16544,0.11744028454221019,-0.09615823643601006,0.13575263398028659,0.9675107053308791,857.0,2.4500840048977275,0.5631758628554319,5.431072788580103,-0.05094451685742778,0.022,0.9999999999996309,-5.145537483853567,0.46194590930603263,93,2026-10-08 00:16:32.628243,25.0,0.8874105351877093,1.6593079403500544,2.6956074600740134
0214,cdot_cos,T,S-T,94,18,16779,-0.05962317009658672,-0.04164876054142913,-0.1770634546387969,0.011813991877911819,857.0,2.4637901901515016,0.5631902990342604,5.460333987746234,-0.011951780629696733,0.235,0.9999999999996103,2701.042754510859,0.46691313928390654,94,2026-10-08 00:16:32.863244,25.0,0.03829238052847021,0.14619216349483596,0.05832419256925147
0214,cdot_cos,P,T-P,95,19,17122,0.015068203980468747,-0.0009099806150213843,0.07469137407705546,0.866143741536984,835.0,2.5187943217403004,0.5642483954063083,5.499614602148827,-0.04860756099557433,0.343,0.9999999999996004,-34.64313963663998,0.47188042041983286,95,2026-10-08 00:16:33.206244,25.0,0.47042589200042456,0.1086471150621753,0.16036189967579823
0214,cdot_cos,Q,P-Q,96,19,17332,-0.06112744771203233,-0.10754268187114015,-0.07619565169250107,0.12955587751717149,835.0,2.538322111084154,0.5644066130862982,5.5300344955341965,-0.017513539915788367,0.21,0.9999999999995726,196.5268425233399,0.4768476405291822,96,2026-10-08 00:16:33.416243,25.0,0.1694110041260459,0.15599907225973292,0.09298947306596887
0214,cdot_cos,R,Q-R,97,19,17378,-0.03269451439992163,0.09283764552230983,0.0284329333121107,0.6705830607307275,835.0,2.584313932089388,0.5652253397300925,5.5668257287816765,-0.041764229016977315,0.046,0.9999999999995556,-29.620007220973985,0.48181478294218694,97,2026-10-08 00:16:33.462244,25.0,0.5595306720278822,1.1471629859789783,0.9998221957659643
0214,cdot_cos,S,R-S,98,19,17400,0.07792212259460134,-0.06461042213535495,0.11061663699452297,0.9407781017809268,835.0,2.64386110579422,0.5663733517656435,5.606811868458726,-0.055153688079683696,0.022,0.9999999999995475,-11.663169590621521,0.4867819143783262,98,2026-10-08 00:16:33.484244,25.0,0.7844547870675297,1.6714484561760512,2.706689713855984
0214,cdot_cos,T,S-T,99,19,17637,-0.10217182770606283,-0.08100328410591355,-0.18009395030066416,0.0109614497839733,835.0,2.6578576641611344,0.5663867236231083,5.635478486417926,-0.013146136087949116,0.237,0.9999999999995236,3141.4896623353734,0.49174915441100947,99,2026-10-08 00:16:33.721244,25.0,0.040948931149265594,0.15675705918958535,0.059057208299217734
0214,cdot_cos,P,T-P,100,20,17957,0.011222014438652658,-0.00042558122921447045,0.11339384214471548,0.9445300491661904,856.0,2.7181639518500833,0.5675385894880957,5.675387728759446,-0.05739986454156723,0.32,0.9999999999995132,-38.41916823718238,0.4967164382741114,100,2026-10-08 00:16:34.041243,25.0,0.4625629152058921,0.12277351113238119,0.18845714902796518
0214,cdot_cos,Q,P-Q,101,20,18167,-0.07923069965941365,-0.14372701615703115,-0.09045271409806631,0.09437767118112181,856.0,2.7364327112858584,0.5676536443009303,5.704850485330839,-0.01764133567200795,0.21,0.9999999999994819,345.5616317996489,0.5016836666655612,101,2026-10-08 00:16:34.251244,25.0,0.10500847592476022,0.1699203252883181,0.08699409255131003
0214,cdot_cos,R,Q-R,102,20,18216,-0.026457948358602205,0.08192175414910863,0.052772751300811445,0.7890683473588621,856.0,2.789530488471177,0.5686153023939245,5.742735102098528,-0.051917301864125964,0.049,0.9999999999994658,-35.642570308327606,0.5066508109008221,102,2026-10-08 00:16:34.300243,25.0,0.5167463471865907,1.184589977293737,1.0836281058228263
0214,cdot_cos,S,R-S,103,20,18237,0.12717860785934504,-0.09552590151199265,0.15363655621794725,0.978977469922374,856.0,2.8525225290606446,0.5698076881339587,5.782918498189843,-0.06284320028706138,0.021,0.9999999999994573,-9.163056933759442,0.5116179408548673,103,2026-10-08 00:16:34.321243,25.0,0.8404148199914795,1.840923727530752,2.999620980450844
0214,cdot_cos,T,S-T,104,20,18477,-0.056111322164739796,-0.03839226797834676,-0.18328993002408484,0.01012823585919351,856.0,2.8668492850274685,0.5698200200274468,5.811048861203126,-0.014488673787190038,0.24,0.9999999999994306,3921.0950488942076,0.5165851931229248,104,2026-10-08 00:16:34.561243,25.0,0.035529148457706064,0.14667673673935772,0.05969481652843278
0214,cdot_cos,P,T-P,105,21,18813,0.007774109299320939,-0.0004434476891961226,0.06388543146406074,0.8316176910337066,862.0,2.9229273626955363,0.5708322805469208,5.849292439389911,-0.057376625711398656,0.336,0.9999999999994161,-42.3684922005001,0.5215525007381875,105,2026-10-08 00:16:34.897243,25.0,0.47355782548763586,0.10949365838124586,0.16689904067877329
0214,cdot_cos,Q,P-Q,106,21,19007,-0.09526815632715283,-0.13944240545281145,-0.10304226562647377,0.07069536167960554,862.0,2.9404290234596657,0.570918305059709,5.877966029718239,-0.018133600379566826,0.194,0.99999999999938,456.1842207519205,0.5265197285520434,106,2026-10-08 00:16:35.091244,25.0,0.11485261790235944,0.19616022444185763,0.09021474620685258
0214,cdot_cos,R,Q-R,107,21,19065,-0.018747460791838855,0.07647505918971442,0.07652069553531397,0.8713577563916258,862.0,2.999037529778977,0.5719782493244278,5.916591422196769,-0.06147491617623474,0.058,0.9999999999993641,-40.89018379486867,0.5314868783922422,107,2026-10-08 00:16:35.149244,25.0,0.4940965189218429,1.0540463712715806,1.0104914882639888
0214,cdot_cos,S,R-S,108,21,19086,0.11095185416913952,-0.10019657863967936,0.1296993149609784,0.9624020538683861,862.0,3.062698402527169,0.5731481747896571,5.956332975979032,-0.068101731477594,0.021,0.9999999999993546,-5.664305546217298,0.5364540072196129,108,2026-10-08 00:16:35.170244,25.0,0.9072768947562821,1.868443334586874,3.031470130866285
0214,cdot_cos,T,S-T,109,21,19318,-0.06265120947074422,-0.035897752109599536,-0.17360306363988376,0.012867791284730147,862.0,3.077512149831626,0.5731638117584191,5.984008296697122,-0.01605213233663665,0.232,0.9999999999993237,3328.6246159970797,0.5414212654213069,109,2026-10-08 00:16:35.402244,25.0,0.039064744701185046,0.15757926578875844,0.06385235907093416
0214,cdot_cos,P,T-P,110,22,19675,0.006350845115589377,-0.0003979225075648425,0.0690020545863336,0.8487783404514032,862.0,3.135815181853153,0.5741949246907975,6.022209713001733,-0.06388958281981476,0.357,0.9999999999993082,-46.39399718597004,0.5463886022935039,110,2026-10-08 00:16:35.759244,25.0,0.4729564522141119,0.10583276096745454,0.1633138151863507
0214,cdot_cos,Q,P-Q,111,22,19866,-0.10509392505325368,-0.1509045008694937,-0.11144477016884306,0.05807889058746,862.0,3.1530767411623883,0.5742654566148235,6.050264735924107,-0.01914477515312461,0.191,0.9999999999992665,634.3908561200773,0.5513558365513458,111,2026-10-08 00:16:35.950243,25.0,0.09659955416725813,0.20672560408883636,0.09037465606929498
0214,cdot_cos,R,Q-R,112,22,19925,-0.01526076350729843,0.06499728494909987,0.08983316154595525,0.9042901488174717,862.0,3.2147843626150885,0.5753632493161217,6.089075101331321,-0.0692526781597371,0.059,0.9999999999992503,-45.64423041559522,0.55632298784678,112,2026-10-08 00:16:36.009243,25.0,0.4850264544276647,1.0804778792622145,1.045891889028816
0214,cdot_cos,S,R-S,113,22,19946,0.13089523185113533,-0.11831538528172254,0.14615599535843377,0.9747634105990954,862.0,3.2805731309153296,0.5765457629581378,6.128768363373272,-0.07525572922839278,0.021,0.9999999999992396,-5.076517390887083,0.5612901154434267,113,2026-10-08 00:16:36.030244,25.0,0.9233298954927942,1.9232967118307795,3.1327984904876742
0214,cdot_cos,T,S-T,114,22,20175,-0.054815210277483664,-0.031175811364634785,-0.18571044212861898,0.009539196330947974,862.0,3.2955628245119812,0.5765573309244256,6.155950574649864,-0.017359819157408477,0.229,0.9999999999992044,5004.847751992269,0.566257382642711,114,2026-10-08 00:16:36.259244,25.0,0.0356127128215203,0.15947676722541465,0.06545717727795453
0214,cdot_cos,P,T-P,115,23,20537,0.0055790814338011335,2.9237295325075787e-05,0.0603942917112848,0.8190400566828531,876.0,3.3536134903045696,0.5775502479371863,6.193539369012815,-0.06793356005026187,0.362,0.9999999999991872,-50.934509372779836,0.5712247411316933,115,2026-10-08 00:16:36.621243,25.0,0.4749912656274575,0.10722752625565825,0.16036095522814456
0214,cdot_cos,Q,P-Q,116,23,20744,-0.0850235281602881,-0.14030635230940297,-0.09060260959408924,0.09405786649255905,876.0,3.373195553521078,0.577664233736647,6.221637376458664,-0.02318170691949264,0.207,0.9999999999991414,392.6090209703656,0.5761919949854996,116,2026-10-08 00:16:36.828243,25.0,0.14507834657415597,0.19215121449869718,0.09459933921018474
0214,cdot_cos,R,Q-R,117,23,20795,-0.01684701864279731,0.06481057523973609,0.0681765095174908,0.8461101854964441,876.0,3.43316409310703,0.5786892350635484,6.259484416205274,-0.0717845205515833,0.051,0.9999999999991201,-47.41731776974084,0.581159141496682,117,2026-10-08 00:16:36.879244,25.0,0.5081059047277904,1.2396073039484927,1.1758537173716155
0214,cdot_cos,S,R-S,118,23,20816,0.11090268570872217,-0.09862725090387013,0.12774970435151947,0.9605981202865532,876.0,3.499635498523824,0.5798521082948882,6.298809473198941,-0.08098552690892373,0.021,0.9999999999991073,-7.9123038602751325,0.5861262677195679,118,2026-10-08 00:16:36.900243,25.0,0.892603352011544,1.952178427782143,3.1653050198473265
0214,cdot_cos,T,S-T,119,23,21055,-0.061260036109370766,-0.03448600053726958,-0.17216272181809295,0.013333294494924531,876.0,3.51515558707388,0.5798682430039412,6.325619030907155,-0.01913234971677931,0.239,0.9999999999990677,3833.547725516154,0.5910935530779764,119,2026-10-08 00:16:37.139244,25.0,0.03944252808682016,0.16099791867321145,0.06493760899605086
0214,cdot_cos,P,T-P,120,24,21413,0.010763112732813534,-0.00037894683360071505,0.0720231488421843,0.8582193678312594,881.0,3.576592503649619,0.5809064194811284,6.363514445591163,-0.0765146101520919,0.358,0.9999999999990488,-55.27216392995459,0.596060927546065,120,2026-10-08 00:16:37.497243,25.0,0.47238937799980796,0.11400336829489895,0.17161149881491317
0214,cdot_cos,Q,P-Q,121,24,21623,-0.07833452080199273,-0.12660732273558103,-0.08909763353480626,0.09731321476997451,881.0,3.596781998773028,0.5810240929473942,6.391268703968177,-0.02543177498983482,0.21,0.9999999999989978,434.10665788391503,0.6010281934452443,121,2026-10-08 00:16:37.707244,25.0,0.1341733728170272,0.19178555079667006,0.096140452968613
0214,cdot_cos,R,Q-R,122,24,21669,-0.01495700034022598,0.06456243797043865,0.06337752046176674,0.8298321306540332,881.0,3.6571424349842205,0.5820271701020762,6.428704026421873,-0.07683536772181179,0.046,0.9999999999989734,-51.245901167269224,0.6059953364966213,122,2026-10-08 00:16:37.753243,25.0,0.5122156642984111,1.3856578093033456,1.3121833958954934
0214,cdot_cos,S,R-S,123,24,21690,0.1002735377918925,-0.0988672436432106,0.11523053813211849,0.9468872721190732,881.0,3.7242625172289356,0.5831709114058857,6.46768210722551,-0.0868740057647709,0.021,0.9999999999989581,-8.77701802804751,0.6109624612769666,123,2026-10-08 00:16:37.774244,25.0,0.8908724722256471,1.975928191555718,3.196194392605481
0214,cdot_cos,T,S-T,124,24,21932,-0.07065215318708454,-0.036601731599608056,-0.17092569097897703,0.013746322400414703,881.0,3.7401314190295607,0.5831875089742291,6.494105083493742,-0.02076992370950317,0.242,0.9999999999989133,3982.7570332997484,0.6159297609749309,124,2026-10-08 00:16:38.016243,25.0,0.04147423244087676,0.16542525342558909,0.06557397438274817
0214,cdot_cos,P,T-P,125,25,22294,0.01095653440627258,-0.0007100019542603897,0.08160868759335711,0.8849553817599624,856.0,3.8043283398869208,0.5842556223924952,6.532180428694959,-0.08486255249841243,0.362,0.9999999999988928,-60.00545231699692,0.6208971581238601,125,2026-10-08 00:16:38.378243,25.0,0.4698920967822901,0.11744967571734487,0.1773395603794477
0214,cdot_cos,Q,P-Q,126,25,22502,-0.07635355881743859,-0.12610215312155726,-0.08731009322371117,0.10131006316431883,856.0,3.8251649842489184,0.584377850189231,6.559629346637095,-0.027852258658985454,0.208,0.9999999999988357,466.42658512958593,0.6258644327472216,126,2026-10-08 00:16:38.586244,25.0,0.12913689330797684,0.19682857535637086,0.10017617481729622
0214,cdot_cos,R,Q-R,127,25,22545,-0.015732178410749958,0.06190907989831555,0.06062138040668863,0.8198799730511498,856.0,3.886209027235171,0.5853666296456576,6.5967512810861075,-0.08241603619033407,0.043,0.9999999999988083,-55.1829603423849,0.6308315733692105,127,2026-10-08 00:16:38.629244,25.0,0.5157913677046897,1.512652108789659,1.4196289066570387
0214,cdot_cos,S,R-S,128,25,22566,0.10826272873472108,-0.09928300398743711,0.12399490714547104,0.9568874928719937,856.0,3.955253065604829,0.5865197712198853,6.635718121310728,-0.09471201714960531,0.021,0.9999999999987921,-10.66302805664241,0.6357986966506641,128,2026-10-08 00:16:38.650244,25.0,0.878249172891235,2.0259987601180236,3.287811350936095
0214,cdot_cos,T,S-T,129,25,22810,-0.07121898540370189,-0.044854033451414685,-0.17948171413842295,0.011128633764415115,856.0,3.971300975160128,0.5865331767413444,6.661740705813937,-0.022252595904260337,0.244,0.9999999999987416,5405.192290826527,0.6407660108159158,129,2026-10-08 00:16:38.894243,25.0,0.03853365364192538,0.1671663900531592,0.06577012112827459
0214,cdot_cos,P,T-P,130,26,23150,0.01071674531029169,-0.0006046239950492406,0.08193573071399358,0.8857851666730163,780.0,4.036830263950771,0.5875997781918135,6.699672851856381,-0.09173004280330087,0.34,0.9999999999987188,-65.13908908382164,0.6457334095359641,130,2026-10-08 00:16:39.234244,25.0,0.46887825532669924,0.12447337007658517,0.19273320232541963
0214,cdot_cos,Q,P-Q,131,26,23340,-0.09686876018885252,-0.1740647887849518,-0.10758550549914421,0.06358759151321573,780.0,4.055942866812206,0.5876763144813799,6.726267706108519,-0.027035735570050488,0.19,0.9999999999986552,845.2762421561499,0.6507006790709311,131,2026-10-08 00:16:39.424243,25.0,0.09136266795531765,0.2186532288464508,0.10059264663913281
0214,cdot_cos,R,Q-R,132,26,23399,-0.027396970481885177,0.060789371330662575,0.06947178970696734,0.8502794804344604,780.0,4.119918490912422,0.5886993324692489,6.76364537833443,-0.09135776063469,0.059,0.9999999999986267,-62.8747742731559,0.6556678339614546,132,2026-10-08 00:16:39.483244,25.0,0.4945695728482603,1.1563692763680704,1.084332611868069
0214,cdot_cos,S,R-S,133,26,23421,0.1725099508129202,-0.08426899279138468,0.19990692129480536,0.9932916614916801,780.0,4.192394441423638,0.5898934453531561,6.80298809752744,-0.10513093294736418,0.022,0.9999999999986104,-11.534229718388984,0.6606349567432486,133,2026-10-08 00:16:39.505243,25.0,0.8772092626954288,2.0131182736136326,3.294361386873466
0214,cdot_cos,T,S-T,134,26,23669,-0.029076741601239544,-0.036352509959779726,-0.20158669241415975,0.0064342349479241485,780.0,4.208495694951422,0.5899011770084481,6.828604829533738,-0.02360463662600379,0.248,0.9999999999985545,10544.4815168798,0.6656022882185529,134,2026-10-08 00:16:39.753243,25.0,0.031624424871776136,0.14900314926011204,0.0649244093862241
0214,cdot_cos,P,T-P,135,27,23930,0.010704322730552279,-0.0006676738266794972,0.03978106433179182,0.7299810845165144,759.0,4.266300003456654,0.5907780645612085,6.864226035467143,-0.08543132670209308,0.261,0.9999999999985225,-70.50697650053628,0.6705696329682469,135,2026-10-08 00:16:40.014244,25.0,0.484954379272002,0.15315083238904267,0.2214724463801992
0214,cdot_cos,Q,P-Q,136,27,24140,-0.07295533718450967,-0.18662015317843073,-0.08365965991506194,0.10992655724463825,759.0,4.288440429458502,0.5909100636372424,6.891141748522125,-0.03302763613651561,0.21,0.9999999999984581,397.0004347009299,0.6755369312215952,136,2026-10-08 00:16:40.224244,25.0,0.20460748154352484,0.19101670046219138,0.10543060000880139
0214,cdot_cos,R,Q-R,137,27,24186,-0.03349411375253355,0.05871834846175599,0.03946122343197612,0.7284021036825904,759.0,4.346527017650774,0.5917843920874473,6.926664330557327,-0.08740456448371221,0.046,0.999999999998422,-62.19279303384925,0.6805040749891408,137,2026-10-08 00:16:40.270243,25.0,0.5368002858909131,1.4349897276346242,1.2627519172233062
0214,cdot_cos,S,R-S,138,27,24207,0.18402302428444783,-0.07023852674989361,0.2175171380369814,0.9956703453845627,759.0,4.4204594844008875,0.5929785925616325,6.965926840187304,-0.11284601269309338,0.021,0.9999999999984065,-21.30416857080725,0.6854711957331084,138,2026-10-08 00:16:40.291244,25.0,0.798154741806364,2.1473256391440776,3.5205936547673016
0214,cdot_cos,T,S-T,139,27,24446,-0.03126054077938081,-0.053772781818137896,-0.21528356506382865,0.004577158936848875,759.0,4.4367146944948255,0.5929840798511689,6.991184821847176,-0.02506609858528358,0.239,0.9999999999983458,15996.953236558687,0.6904385317224172,139,2026-10-08 00:16:40.530244,25.0,0.030138928434145694,0.1595201978180838,0.06801343135538884
0214,cdot_cos,P,T-P,140,28,24689,0.01262886922507522,-0.0010118664602752371,0.043889410004456036,0.7497417163948104,739.0,4.496710138957932,0.5938825874993706,7.026919377894768,-0.09324657431499161,0.243,0.999999999998314,-75.88190914808762,0.6954058729464883,140,2026-10-08 00:16:40.773243,25.0,0.48133837306669564,0.17057497995773538,0.24689483318150665
0214,cdot_cos,Q,P-Q,141,28,24901,-0.06840640850042215,-0.19151507228382,-0.08103527772549737,0.11651215380787712,739.0,4.519614134754285,0.594022162089054,7.053628418504018,-0.03592445960528733,0.212,0.9999999999982464,410.6916225921482,0.7003731845094832,141,2026-10-08 00:16:40.985244,25.0,0.20278091007564092,0.17762835211627315,0.1080377160205343
0214,cdot_cos,R,Q-R,142,28,24945,-0.04964560547121583,0.0744357246811731,0.018760803029206317,0.6151517952498409,739.0,4.572024560255231,0.594758824851078,7.087375609864508,-0.0828435561975559,0.044,0.9999999999982037,-63.69141893823604,0.7053403268041101,142,2026-10-08 00:16:41.029243,25.0,0.5675889348640781,1.4493059563146302,1.1911460341124216
0214,cdot_cos,S,R-S,143,28,24966,0.15661082660087147,-0.05244028103292709,0.2062564320720873,0.9942706695661191,739.0,4.647153058909972,0.5959485908294467,7.126514902686613,-0.12030584168507352,0.021,0.9999999999981879,-31.487104328602197,0.7103074465078001,143,2026-10-08 00:16:41.050244,25.0,0.7324266545396977,2.1856617624480017,3.5775475549876625
0214,cdot_cos,T,S-T,144,28,25190,-0.03863446557891645,-0.08543213691518203,-0.19524529217978792,0.007531266374724705,739.0,4.6638223542780475,0.5959575986226486,7.151497447715967,-0.02695871983802514,0.224,0.999999999998123,10362.929049856037,0.7152747795809168,144,2026-10-08 00:16:41.274244,25.0,0.03134831527548445,0.1763903868877604,0.07441649717890694
0214,cdot_cos,P,T-P,145,29,25428,0.010196233998623551,0.0007714427395978046,0.04883069957754,0.7721985851090241,777.0,4.726175952235689,0.5968808447474154,7.187403620623152,-0.10162311733766352,0.238,0.9999999999980917,-80.87160671104675,0.720242128794573,145,2026-10-08 00:16:41.512243,25.0,0.47964039663058866,0.18790140737727537,0.26198990738504835
0214,cdot_cos,Q,P-Q,146,29,25657,-0.0503937241576143,-0.1800126629413008,-0.06058995815623785,0.18023606453835542,777.0,4.7532634241896305,0.5970962377608877,7.21474799867648,-0.044559596662126784,0.229,0.9999999999980244,264.9274447468496,0.7252094701460816,146,2026-10-08 00:16:41.741244,25.0,0.2778674027413131,0.15166099874854708,0.11828590372900247
0214,cdot_cos,R,Q-R,147,29,25702,-0.061056404730918806,0.08303844090053392,-0.010662680573304509,0.4337500813472192,777.0,4.7956366896625235,0.5976144417493489,7.245696965416375,-0.07018643319050413,0.045,0.9999999999979684,-49.45318272149703,0.7301766138992604,147,2026-10-08 00:16:41.786243,25.0,0.6941097322922488,1.3210824369416527,0.9416281216198444
0214,cdot_cos,S,R-S,148,29,25725,0.16977586486070148,-0.04468618800432904,0.2308322695916203,0.9968924453024944,777.0,4.872160843514379,0.5988046077860452,7.28477941179761,-0.12820694015513487,0.023,0.999999999997953,-48.74992662846069,0.7351437346649843,148,2026-10-08 00:16:41.809243,25.0,0.6360020080792929,2.0287805139396307,3.3271371239937277
0214,cdot_cos,T,S-T,149,29,25965,-0.03421001589581798,-0.0640155160341084,-0.20398588075651947,0.006061927895734459,777.0,4.8889605933037465,0.5988118414291707,7.3094369975244025,-0.02841747940853869,0.24,0.9999999999978832,13795.187157480832,0.7401110970997324,149,2026-10-08 00:16:42.049243,25.0,0.02985054611243921,0.1633256076340998,0.06999895745569695
0214,cdot_cos,P,T-P,150,30,26205,0.008312859981469037,-0.000589673047198672,0.042522875877287016,0.7432771510097149,779.0,4.950557135178747,0.5996984601636807,7.3447833310893245,-0.10495296815395566,0.24,0.999999999997848,-86.3228869032572,0.7450784608557773,150,2026-10-08 00:16:42.289243,25.0,0.48227728138865594,0.1737215748636926,0.25665225781250267
0214,cdot_cos,Q,P-Q,151,30,26416,-0.08568573139801396,-0.2029106732720403,-0.09399859137948299,0.08706857159741992,779.0,4.972346949238319,0.5998022773887832,7.37050122619596,-0.03743859402643457,0.211,0.9999999999977698,650.319579056639,0.7500457932220914,151,2026-10-08 00:16:42.500243,25.0,0.1647483270875948,0.20221245547592784,0.10326926094583797
0214,cdot_cos,R,Q-R,152,30,26462,-0.03753224625592521,0.07223471892389613,0.048153485142088746,0.7692066838941419,779.0,5.035890791389589,0.600719059657978,7.406169626106775,-0.11003363243686988,0.046,0.9999999999977324,-79.18460124037536,0.755012938513035,152,2026-10-08 00:16:42.546243,25.0,0.5169789218165672,1.5363924451442474,1.38138787285369
0214,cdot_cos,S,R-S,153,30,26481,0.19698512785543537,-0.07806890869879038,0.2345173741113606,0.997165169717879,779.0,5.11369505419159,0.6019064845189049,7.445179717722339,-0.13649294405064671,0.019,0.9999999999977174,-22.282935522439743,0.7599800536855407,153,2026-10-08 00:16:42.565243,25.0,0.823780530307016,2.492714341077305,4.094961200105318
0214,cdot_cos,T,S-T,154,30,26722,-0.025677481073996214,-0.03540186212348843,-0.22266260892943157,0.0038090269240446803,779.0,5.130613936350526,0.6019110180214653,7.469526976014611,-0.029957897171822668,0.241,0.9999999999976429,23499.500763593067,0.7649474316210692,154,2026-10-08 00:16:42.806243,25.0,0.028548267119459927,0.160176463145558,0.07020283053500645
0214,cdot_cos,P,T-P,155,31,26984,0.009348145216832944,-0.0005737916419321841,0.03502562629082916,0.7059180443940763,817.0,5.190900109427749,0.6027508988360937,7.504196116693211,-0.10747471067127964,0.262,0.999999999997604,-92.29501632771034,0.7699148357802039,155,2026-10-08 00:16:43.068243,25.0,0.4861411270098361,0.1564659533943478,0.23009989724130683
0214,cdot_cos,Q,P-Q,156,31,27194,-0.08817286510562133,-0.17724668618927297,-0.09752101032245428,0.08031866072976725,817.0,5.212602095929165,0.6028464214007971,7.529557629681328,-0.03899318467758577,0.21,0.9999999999975191,716.9146494996654,0.774882178860529,156,2026-10-08 00:16:43.278244,25.0,0.17269237081463684,0.21190714820892245,0.10334279286388505
0214,cdot_cos,R,Q-R,157,31,27244,-0.02931100594001818,0.06992751688924725,0.05886185916560316,0.8132923294502621,817.0,5.279901111675496,0.6038132230619364,7.5657664677215335,-0.1218525917126913,0.05,0.9999999999974829,-85.70465935842998,0.7798493294785507,157,2026-10-08 00:16:43.328243,25.0,0.5066184696935231,1.4592329818473537,1.3459803149266314
0214,cdot_cos,S,R-S,158,31,27263,0.156098972883351,-0.09074468043046863,0.18540997882336918,0.9903895706362478,817.0,5.3585253941139,0.6049894539403815,7.604608012617555,-0.1441899288504564,0.019,0.9999999999974659,-18.990605966146443,0.7848164432201578,158,2026-10-08 00:16:43.347244,25.0,0.8564870592675072,2.525731985011276,4.138120128337042
0214,cdot_cos,T,S-T,159,31,27505,-0.04353319335593482,-0.04285090509097992,-0.1996321662392858,0.006754263574527114,817.0,5.375878927105925,0.6049974714502655,7.628736338028271,-0.032111739159587205,0.242,0.9999999999973861,13979.176990427324,0.7897838369141845,159,2026-10-08 00:16:43.589243,25.0,0.0304930654993213,0.17256792970420753,0.07170881401663096
0214,cdot_cos,P,T-P,160,32,27801,0.008147877122729442,-0.0004918205749673676,0.051681070478664264,0.7844900421018288,821.0,5.442048272090736,0.6059282989484648,7.664462872377326,-0.12329393636732608,0.296,0.9999999999973502,-97.9582117891166,0.7947513003923752,160,2026-10-08 00:16:43.885243,25.0,0.4773280202383963,0.14822787349317498,0.22354508440814783
0214,cdot_cos,Q,P-Q,161,32,27996,-0.09351809379713999,-0.15658782410306252,-0.10166597091986943,0.07298950163601345,821.0,5.463629828213884,0.6060148648257001,7.68947574542077,-0.040536199437152864,0.195,0.9999999999972573,956.0087597241408,0.7997186368357074,161,2026-10-08 00:16:44.080243,25.0,0.1298239309231516,0.2362639081546729,0.11067464678537346
0214,cdot_cos,R,Q-R,162,32,28056,-0.02472252857753679,0.06713463071448252,0.0687955652196032,0.848114555099313,821.0,5.534191196271059,0.6070202433543009,7.726115714357024,-0.1335338341588519,0.06,0.9999999999972207,-92.50012017973204,0.8046858010605218,162,2026-10-08 00:16:44.140243,25.0,0.49835879375587744,1.2476317742055785,1.1760228009529103
0214,cdot_cos,S,R-S,163,32,28075,0.1294302603320397,-0.09122134081338917,0.15415278890957648,0.9792414437269799,821.0,5.613345641118554,0.6081799357386032,7.764731038811798,-0.15167615065572024,0.019,0.9999999999972015,-15.644076603800455,0.8096529131363612,163,2026-10-08 00:16:44.159244,25.0,0.8872644603501549,2.554206333817205,4.166023413026042
0214,cdot_cos,T,S-T,164,32,28303,-0.0497607694892572,-0.044606589880316176,-0.1791910298212969,0.011208891518257809,821.0,5.631251036956113,0.6081932031239926,7.7886826872165775,-0.03460874643528249,0.228,0.9999999999971158,8823.698172945133,0.8146203036101438,164,2026-10-08 00:16:44.387244,25.0,0.03395918514904245,0.1909272673159117,0.07853243788403075
0214,cdot_cos,P,T-P,165,33,28622,0.009609227850109668,-0.00021639066687186915,0.05936999733936687,0.8152136500303987,841.0,5.700408475014609,0.6091576996942614,7.824782023474534,-0.13458852346087788,0.319,0.9999999999970796,-103.66006485407813,0.8195878177554768,165,2026-10-08 00:16:44.706244,25.0,0.4757536292439091,0.1455101326985716,0.2167944766724035
0214,cdot_cos,Q,P-Q,166,33,28832,-0.07808028163938263,-0.14288799524920268,-0.0876895094894923,0.1004497117331298,841.0,5.724086501617801,0.6092764850400598,7.849988502569011,-0.04645269760575678,0.21,0.9999999999969803,741.9755800910168,0.8245551865117927,166,2026-10-08 00:16:44.916243,25.0,0.1499693755983835,0.21835031509449968,0.11275250763424743
0214,cdot_cos,R,Q-R,167,33,28882,-0.02469545247917374,0.06745216177697382,0.053384829160208896,0.7916039303953408,841.0,5.792115607354299,0.6102121305061067,7.885688981278532,-0.13441802122214075,0.05,0.9999999999969357,-94.0156574349061,0.8295223383525482,167,2026-10-08 00:16:44.966244,25.0,0.5197454286331512,1.474379214218935,1.360582114729958
0214,cdot_cos,S,R-S,168,33,28904,0.10733362897563646,-0.08094222021367686,0.1320290814548102,0.964453743929708,841.0,5.871524423039695,0.6113509818164434,7.9240247894762375,-0.15874326291412427,0.022,0.9999999999969129,-21.359453575015575,0.8344894527674463,168,2026-10-08 00:16:44.988243,25.0,0.8579269079241405,2.2206042399476225,3.6094916220634365
0214,cdot_cos,T,S-T,169,33,29140,-0.06539447125817614,-0.05378890402463769,-0.1727281002338126,0.013148621746424116,841.0,5.889822193911995,0.6113664996752858,7.947774909551318,-0.03688430749995912,0.236,0.99999999999682,7852.820202332955,0.8394568689388917,169,2026-10-08 00:16:45.224244,25.0,0.03674269925215103,0.19587491150112113,0.07753292742499907
0214,cdot_cos,P,T-P,170,34,29463,0.012929654227474696,-0.0008052454378018638,0.07832412548565083,0.8763275217040495,835.0,5.963977381268224,0.612400221520772,7.984732725827241,-0.150508926957276,0.323,0.9999999999967849,-109.91798224392957,0.8444244106270077,170,2026-10-08 00:16:45.547244,25.0,0.4700406583470461,0.15253517637150382,0.22958262339389904
0214,cdot_cos,Q,P-Q,171,34,29669,-0.07248962844432243,-0.1290229483562649,-0.08541928267179712,0.10569568297620638,835.0,5.988359917847986,0.6125248327000554,8.00981272996183,-0.04989347394461239,0.206,0.9999999999966774,807.4352043793906,0.8493917870393863,171,2026-10-08 00:16:45.753243,25.0,0.13310653174794157,0.21638447749889791,0.1183618280570975
0214,cdot_cos,R,Q-R,172,34,29719,-0.03354868855106534,0.09354449032411927,0.03894093989325709,0.725821248187382,835.0,6.05312778599777,0.6133801498258137,8.044416717318336,-0.13341292076998817,0.05,0.9999999999966238,-97.64734542329407,0.8543589393709888,172,2026-10-08 00:16:45.803244,25.0,0.5347145772374637,1.4499046363449608,1.2953573629956772
0214,cdot_cos,S,R-S,173,34,29741,0.09251038764661221,-0.07245412669657085,0.12605907619767753,0.9589668765417168,835.0,6.133350381482482,0.6145091362025284,8.082617254515204,-0.16705582118802126,0.022,0.9999999999965976,-29.799208486403856,0.8593260520402016,173,2026-10-08 00:16:45.825243,25.0,0.8175958150514893,2.243565795547096,3.646481612941465
0214,cdot_cos,T,S-T,174,34,29979,-0.08354782534622142,-0.06546063275418448,-0.17605821299283364,0.01211101062310901,835.0,6.151844681001842,0.6145233865797834,8.106131703962147,-0.038824057457602694,0.238,0.9999999999964967,8998.48203565559,0.8642934865081755,174,2026-10-08 00:16:46.063244,25.0,0.03677656543271743,0.2019640116379076,0.07770714083764703
0214,cdot_cos,P,T-P,175,35,30298,0.010442499972927679,-0.0005713276678440893,0.0939903253191491,0.9129150007610621,840.0,6.229485251022126,0.6155969979618697,8.143594665818743,-0.1640905328023963,0.319,0.9999999999964607,-116.67767074280746,0.8692610447009793,175,2026-10-08 00:16:46.382244,25.0,0.46607973550542786,0.15906272596424792,0.24338736683474613
0214,cdot_cos,Q,P-Q,176,35,30509,-0.08110754681690378,-0.14678965785497375,-0.09155004678983146,0.09205887904727302,840.0,6.253326700167032,0.6157051992715838,8.168264837579851,-0.050795688342787956,0.211,0.9999999999963448,1047.0746126728823,0.8742284418707656,176,2026-10-08 00:16:46.593244,25.0,0.1074851286238459,0.22241789047303262,0.11299264997585858
0214,cdot_cos,R,Q-R,177,35,30554,-0.027848160895032874,0.08280449369855734,0.053259385921870905,0.791086106942625,840.0,6.323345600801746,0.6166345286221806,8.203801456360308,-0.15016409600058633,0.045,0.9999999999962916,-106.92485671951573,0.8791955870618352,177,2026-10-08 00:16:46.638243,25.0,0.5159568537597706,1.6967836769310216,1.5559755696603026
0214,cdot_cos,S,R-S,178,35,30574,0.12513205032880464,-0.09505057789795926,0.1529802112238375,0.9786371034249971,840.0,6.406037231090824,0.6177830049074161,8.242265970271532,-0.17929124102573557,0.02,0.9999999999962649,-25.3615554797253,0.8841626949106266,178,2026-10-08 00:16:46.658243,25.0,0.8500525095102657,2.5323312390773456,4.134581514453917
0214,cdot_cos,T,S-T,179,35,30799,-0.0606705470853657,-0.04490866425702773,-0.18580259741417035,0.00951745336995425,840.0,6.42463885036484,0.6177941676478094,8.265535286849234,-0.04065237617405078,0.225,0.9999999999961556,12419.787611960182,0.8891301255976526,179,2026-10-08 00:16:46.883244,25.0,0.033029610544361154,0.20561310012999692,0.08267386344006884
0214,cdot_cos,P,T-P,180,36,31138,0.00576313973702649,0.00022281157933840045,0.06643368682239219,0.8403510220422673,838.0,6.498563126149323,0.6187792992822729,8.301808452709645,-0.16255999754577682,0.339,0.9999999999961111,-123.74754510660753,0.8940977387969167,180,2026-10-08 00:16:47.222244,25.0,0.47240251855764737,0.14555277927696852,0.21806571027871127
0214,cdot_cos,Q,P-Q,181,36,31349,-0.08180002901744773,-0.1590783565597321,-0.08756316875447423,0.10073547447763606,838.0,6.523323634714624,0.6188973246610238,8.326425476408797,-0.05485781442976205,0.211,0.9999999999959863,912.5341028846925,0.8990651498565386,181,2026-10-08 00:16:47.433243,25.0,0.14039477386135576,0.22671221797163066,0.11734838182607367
0214,cdot_cos,R,Q-R,182,36,31400,-0.028885139638178833,0.07467079413644978,0.0529148893792689,0.7896591745792375,838.0,6.594235682133351,0.6198220308781711,8.361870222333172,-0.15811432582155516,0.051,0.999999999995929,-111.66412583483157,0.9040323047864774,182,2026-10-08 00:16:47.484244,25.0,0.5204561244141018,1.5186482944855062,1.3904323023279723
0214,cdot_cos,S,R-S,183,36,31421,0.12828557585710726,-0.0873491164712732,0.1571707154952861,0.9807209299020111,838.0,6.678225760752146,0.6209692639340826,8.400330403538119,-0.18926407052628824,0.021,0.9999999999958994,-27.152063431422715,0.9089994122141031,183,2026-10-08 00:16:47.505243,25.0,0.8482469184074235,2.44847310738594,3.999527553275954
0214,cdot_cos,T,S-T,184,36,31656,-0.05860008303550548,-0.04933186954417896,-0.18688565889261274,0.009265566920784979,838.0,6.6970715526435605,0.6209800962332804,8.423397755383144,-0.04279588984461226,0.235,0.9999999999957815,13521.430492868589,0.9139668747529452,184,2026-10-08 00:16:47.740243,25.0,0.03263132961595085,0.1986799626517167,0.08019485911240189
0214,cdot_cos,P,T-P,185,37,31976,0.006025208506968269,0.0001561899716280321,0.06462529154247375,0.834191887869254,859.0,6.771605343198453,0.621954847754228,8.459514805714619,-0.1702647946185942,0.32,0.9999999999957319,-130.77066517430183,0.9189344811397371,185,2026-10-08 00:16:48.060243,25.0,0.4730042162828217,0.1554949800848332,0.23291809548403875
0214,cdot_cos,Q,P-Q,186,37,32186,-0.08232808808706396,-0.15494369633771607,-0.08835329659403222,0.09896013453552051,859.0,6.796588339897854,0.6220704172716376,8.483924217341984,-0.05748591034571602,0.21,0.999999999995599,975.8532076691608,0.9239019047068611,186,2026-10-08 00:16:48.270243,25.0,0.1405977042754376,0.23559843267587696,0.11896665094952787
0214,cdot_cos,R,Q-R,187,37,32238,-0.021582763421602952,0.06461982610582004,0.06074532466546101,0.8203371118741931,859.0,6.870556684922321,0.6230279040025452,8.519793626712252,-0.1712712902848302,0.052,0.9999999999955402,-118.83755279956883,0.9288690619538087,187,2026-10-08 00:16:48.322243,25.0,0.514604013444231,1.5249369712795422,1.4224681735474516
0214,cdot_cos,S,R-S,188,37,32259,0.12206596589905556,-0.09496233768770516,0.14364872932065853,0.9731747023810622,859.0,6.955181784910926,0.6241625359375778,8.558100738001123,-0.19798370260984793,0.021,0.9999999999955069,-23.542799651809673,0.933836167444069,188,2026-10-08 00:16:48.343244,25.0,0.8737838205600508,2.472027799603051,4.0297666661240426
0214,cdot_cos,T,S-T,189,37,32494,-0.05921073021851872,-0.04146810915818037,-0.1812766961175743,0.010645479353575384,859.0,6.974381852505649,0.6241749400779346,8.58100194590156,-0.04525607203886242,0.235,0.9999999999953801,12312.633215774387,0.9388036466613571,189,2026-10-08 00:16:48.578244,25.0,0.03422689969557907,0.20146981286767765,0.08170241529669472
0214,cdot_cos,P,T-P,190,38,32835,0.00519461006516528,-5.1109441064332316e-05,0.064405340283684,0.8334299213032468,876.0,7.049872596958735,0.6251455480915428,8.61705233409743,-0.17896225859994247,0.341,0.9999999999953268,-137.7550820583466,0.9437713140830936,190,2026-10-08 00:16:48.919244,25.0,0.47372918363667404,0.1454213708506118,0.2213804822671121
0214,cdot_cos,Q,P-Q,191,38,33045,-0.09523364675878186,-0.1632769529140178,-0.10042825682394714,0.07511102016677483,876.0,7.073559227425767,0.6252329727067041,8.640907848537797,-0.05654460751215003,0.21,0.9999999999951805,1400.265255522268,0.9487387519151117,191,2026-10-08 00:16:49.129244,25.0,0.11475282481386251,0.2446164942258826,0.11279347841443815
0214,cdot_cos,R,Q-R,192,38,33093,-0.015589503526616064,0.058514518318796845,0.0796441432321658,0.8798598421083301,876.0,7.152611524533605,0.6262564658926102,8.677680748535954,-0.18987707573615767,0.048,0.999999999995123,-130.27196473806208,0.9537059025512747,192,2026-10-08 00:16:49.177243,25.0,0.4954919668094558,1.7200164622603042,1.6469228564133058
0214,cdot_cos,S,R-S,193,38,33114,0.13563333999330998,-0.11493963235945934,0.15122284351992604,0.9776990165011314,876.0,7.238680807802756,0.6273924455793838,8.716031050581236,-0.20887334446417474,0.021,0.9999999999950875,-16.7223665609464,0.9586730059278651,193,2026-10-08 00:16:49.198244,25.0,0.9130666937044395,2.5130413819298703,4.098537298530977
0214,cdot_cos,T,S-T,194,38,33354,-0.044919313113824834,-0.02578505895333706,-0.1805526531071348,0.010837821131499968,876.0,7.25815926257466,0.6274050300941909,8.738757507381063,-0.047616487331225456,0.24,0.9999999999949509,12813.911350930197,0.9636405114690204,194,2026-10-08 00:16:49.438244,25.0,0.03382429043788279,0.193487620870438,0.08116022821626676
0214,cdot_cos,P,T-P,195,39,33711,0.007782907606099555,0.0004363512266460541,0.05270222071992439,0.788774720923596,861.0,7.331554865820566,0.6283204644669956,8.774034872796214,-0.1803893064989816,0.357,0.9999999999948876,-145.03805309490883,0.9686082349021274,195,2026-10-08 00:16:49.795244,25.0,0.4790094914049423,0.1409057877290999,0.20558992505856083
0214,cdot_cos,Q,P-Q,196,39,33924,-0.07143341421027068,-0.1309200880888536,-0.07921632181637023,0.1212753467362966,861.0,7.358765995013237,0.6284611324731911,8.798473637848511,-0.06732942063363764,0.213,0.9999999999947343,803.7356106989562,0.9735756929279379,196,2026-10-08 00:16:50.008243,25.0,0.1865222407965984,0.2252632166392129,0.12775178024728218
0214,cdot_cos,R,Q-R,197,39,33977,-0.03420928492132351,0.09072107110006236,0.037224129288947166,0.7171976522060997,861.0,7.427516996108871,0.6292925686351264,8.832560273848717,-0.1710669155862499,0.053,0.9999999999946528,-124.7690438567785,0.9785428528526988,197,2026-10-08 00:16:50.061243,25.0,0.5453024328698565,1.4526556913090307,1.297188699917615
0214,cdot_cos,S,R-S,198,39,34000,0.08361079096285919,-0.06869943284671423,0.1178200758841827,0.9500504644594993,861.0,7.512747498291994,0.6303927680285134,8.870430738807809,-0.2140173924138457,0.023,0.999999999994609,-39.03881158793483,0.9835099574853338,198,2026-10-08 00:16:50.084243,25.0,0.818168599032382,2.278977570766966,3.705674007961899
0214,cdot_cos,T,S-T,199,39,34233,-0.10292107588252679,-0.07663575537953424,-0.18653186684538597,0.009347113100762331,861.0,7.532349964364151,0.630403585682491,8.892955164689914,-0.049567459740462234,0.233,0.9999999999944605,15201.996016331364,0.9884774657579652,199,2026-10-08 00:16:50.317244,25.0,0.036236099805001615,0.2239226562023208,0.08413075567449255
0214,cdot_cos,P,T-P,200,40,34572,0.005267767156992873,0.00011794458474526674,0.10818884303951966,0.9373046497296097,818.0,7.617095456082276,0.6314876857108394,8.930603162290232,-0.21551339530883545,0.339,0.9999999999944101,-153.07253134306671,0.9934451816087012,200,2026-10-08 00:16:50.656243,25.0,0.4630117337570267,0.16523217873099516,0.24998670123340627
0214,cdot_cos,Q,P-Q,201,40,34781,-0.07546398692377036,-0.15326592754975235,-0.08073175408076323,0.11729552549467819,818.0,7.644377381543766,0.6316232582061146,8.954824556166393,-0.06988212807368545,0.209,0.9999999999942468,1074.194783679619,0.9984126469911293,201,2026-10-08 00:16:50.865243,25.0,0.1244369874598838,0.23086283470360497,0.1305355285238756
0214,cdot_cos,R,Q-R,202,40,34834,-0.03936899539819644,0.08743493899206731,0.036094991525573925,0.7114372777322724,818.0,7.713596120988383,0.6324451053671354,8.988753597592131,-0.17825703952954858,0.053,0.9999999999941591,-131.86747682045998,1.0033798075703384,202,2026-10-08 00:16:50.918243,25.0,0.5444550553783196,1.4833945015192271,1.306013951785224
0214,cdot_cos,S,R-S,203,40,34856,0.10602739524622985,-0.06970370190502184,0.14539639064442628,0.974292023550409,818.0,7.801617198704804,0.6335693520227138,9.02699356445276,-0.22870432753630118,0.022,0.9999999999941145,-44.87208190163366,1.0083469081639718,203,2026-10-08 00:16:50.940243,25.0,0.8020545681528967,2.4542665577066516,4.000958078019146
0214,cdot_cos,T,S-T,204,40,35093,-0.07422324811986618,-0.07483642441763982,-0.18025064336609603,0.010919062142025471,818.0,7.821583849527475,0.633581943441751,9.049380018736885,-0.0522395490868754,0.237,0.999999999993957,14014.68555117406,1.013314441883495,204,2026-10-08 00:16:51.177243,25.0,0.03411589100408037,0.21511035919883742,0.08424747182561798
0214,cdot_cos,P,T-P,205,41,35390,0.006889290478038256,0.00035100476873841123,0.08111253859790443,0.883686524165873,820.0,7.903579508965053,0.6346003686893723,9.086114818466088,-0.2156743254966284,0.297,0.9999999999938953,-160.47793079706298,1.0182820995614381,205,2026-10-08 00:16:51.474244,25.0,0.46870343957774474,0.18292439161977006,0.2760796614059848
0214,cdot_cos,Q,P-Q,206,41,35600,-0.0793072760209007,-0.178034044770831,-0.08619656649893895,0.10387290528295634,820.0,7.930240938149619,0.6347200006083636,9.109966745998946,-0.0706027402486929,0.21,0.9999999999937229,1212.6494874536068,1.023249582167318,206,2026-10-08 00:16:51.684243,25.0,0.12812376538773726,0.23757297918695022,0.12695918659317112
0214,cdot_cos,R,Q-R,207,41,35658,-0.0344798910471942,0.06988837918658197,0.044827384973706495,0.7541156851515841,820.0,8.003360160223572,0.635588027087434,9.14454064497261,-0.19465153544460148,0.058,0.9999999999936375,-142.90899896137086,1.028216754031144,207,2026-10-08 00:16:51.742244,25.0,0.5287251765278451,1.4093669988813626,1.2606762426543647
0214,cdot_cos,S,R-S,208,41,35679,0.157957903580339,-0.08084815272094029,0.19243779462753322,0.9919255625501461,820.0,8.093727510019857,0.6367284424312707,9.183049604736196,-0.2427104326822999,0.021,0.9999999999935935,-42.14157367965111,1.0331838506745028,208,2026-10-08 00:16:51.763244,25.0,0.8203623103984025,2.624044223405976,4.303207133156424
0214,cdot_cos,T,S-T,209,41,35910,-0.04843904414124896,-0.05275155708399761,-0.20639694772158795,0.005709353936772693,820.0,8.113570017606623,0.6367350020328768,9.20519255403507,-0.05365793628404394,0.231,0.9999999999934255,28820.728414665777,1.0381513900995425,209,2026-10-08 00:16:51.994244,25.0,0.029502198711544966,0.21121063792722802,0.08589830124141164
0214,cdot_cos,P,T-P,210,42,36210,0.00971725560957681,0.0006616930321962599,0.05815629975082577,0.8105990727417355,875.0,8.191306824742236,0.6376657997217967,9.240677247475093,-0.21124703909639908,0.3,0.9999999999933519,-169.30542983537185,1.0431190777897525,210,2026-10-08 00:16:52.294244,25.0,0.47426247084664314,0.177503431883889,0.2591226904520442
0214,cdot_cos,Q,P-Q,211,42,36439,-0.06679959365346369,-0.14952257085325615,-0.0765168492630405,0.12865302253828995,875.0,8.220072076736956,0.6378134352092394,9.264797888997709,-0.07866536058953996,0.229,0.9999999999931742,898.0339402363368,1.048086616365259,211,2026-10-08 00:16:52.523244,25.0,0.18537243749878118,0.2227166890075163,0.1256124541254154
0214,cdot_cos,R,Q-R,212,42,36482,-0.024203122413052117,0.06450396092728222,0.042596471240411576,0.7436280735765319,875.0,8.293311068307679,0.6386662737129221,9.299144390546235,-0.20132830214693762,0.043,0.9999999999930805,-143.8290380039389,1.0530537571898144,212,2026-10-08 00:16:52.566243,25.0,0.5437486136511275,1.9003993398074985,1.7032323621098218
0214,cdot_cos,S,R-S,213,42,36503,0.12184322898056152,-0.09160970162593075,0.14604635139361363,0.9746958925482849,875.0,8.383506419960401,0.6397827920017286,9.337345548165537,-0.25005654815598066,0.021,0.9999999999930335,-43.643034330524976,1.0580208517807856,213,2026-10-08 00:16:52.587244,25.0,0.8229425337089668,2.6331364636383485,4.295016745367739
0214,cdot_cos,T,S-T,214,42,36729,-0.06122114173165881,-0.042535777358623884,-0.18306437071222031,0.01018492680518338,875.0,8.40390279978049,0.6397944509234447,9.359409034350398,-0.056920951211993656,0.226,0.9999999999928563,16565.47677800317,1.0629883976482037,214,2026-10-08 00:16:52.813244,25.0,0.033606043651659354,0.223592885549365,0.09024946823047844
0214,cdot_cos,P,T-P,215,43,37085,0.004594353405084841,0.0001419825991920402,0.06581549513674365,0.8382666665283226,924.0,8.484570404228714,0.6407534678095992,9.39531372253705,-0.2262127057811869,0.356,0.9999999999927834,-176.5263542418134,1.0679562333626331,215,2026-10-08 00:16:53.169244,25.0,0.473135147036487,0.1497124254469427,0.22659439451748553
0214,cdot_cos,Q,P-Q,216,43,37299,-0.09038409339241185,-0.14754230167201635,-0.09497844679749669,0.08514100618551872,924.0,8.510498046698713,0.640850810423826,9.418569389700604,-0.07315804762019873,0.214,0.9999999999925844,1572.329440469043,1.0729237553283772,216,2026-10-08 00:16:53.383244,25.0,0.12342647301878237,0.25641387977715296,0.1211572078037306
0214,cdot_cos,R,Q-R,217,43,37349,-0.0119756665610228,0.05784943839632095,0.07840842683138904,0.8765557500370792,924.0,8.594315544773336,0.6418523104530912,9.45509989056924,-0.23773556107978946,0.05,0.9999999999925048,-164.33101213220502,1.077890911534168,217,2026-10-08 00:16:53.433243,25.0,0.5004381162670684,1.735994514905812,1.6763499614924626
0214,cdot_cos,S,R-S,218,43,37371,0.10976371796930785,-0.11311625535234528,0.12173938453033065,0.9545004037233943,924.0,8.684097498189294,0.6429414590037558,9.492941862140961,-0.2568902304721152,0.022,0.9999999999924508,-17.586829069954067,1.0828580059484145,218,2026-10-08 00:16:53.455244,25.0,0.9281484094111057,2.5190616853471925,4.080997882543549
0214,cdot_cos,T,S-T,219,43,37608,-0.055483717653521655,-0.021605234043191233,-0.1652474356228295,0.015809851029634177,924.0,8.705154258928612,0.6429594867026062,9.514956482931547,-0.060634256580127464,0.237,0.9999999999922626,10886.357461404721,1.0878255946436368,219,2026-10-08 00:16:53.692243,25.0,0.03929265239829262,0.21495041479165225,0.08884709172708183
0214,cdot_cos,P,T-P,220,44,38009,0.007273016141179752,-0.0003589970037661885,0.06275673379470141,0.8276293551000204,897.0,8.785983994800537,0.6439026518775408,9.550645287644565,-0.23384173234066782,0.401,0.999999999992182,-183.6449016181522,1.092793564568659,220,2026-10-08 00:16:54.093244,25.0,0.47677820822764666,0.1329154555559677,0.20157041364569767
0214,cdot_cos,Q,P-Q,221,44,38199,-0.09107794040022868,-0.1161510416781664,-0.09835095654140844,0.07879929279281826,897.0,8.811752454284498,0.6439923933810516,9.57366176833555,-0.07499453261551342,0.19,0.9999999999919644,1770.0528017786248,1.0977610464899576,221,2026-10-08 00:16:54.283243,25.0,0.1202578525239067,0.2919999711281114,0.13562347096821756
0214,cdot_cos,R,Q-R,222,44,38259,-0.010615206292044706,0.06753842971850305,0.08046273410818397,0.8820063402834574,897.0,8.89694398382922,0.6449961852640468,9.610253721177077,-0.2491821642466429,0.06,0.9999999999918804,-173.5296275871266,1.102728226113216,222,2026-10-08 00:16:54.343244,25.0,0.49706358801929135,1.4379409722237095,1.4198588257453497
0214,cdot_cos,S,R-S,223,44,38280,0.08092706157054066,-0.0968459533668542,0.09154226786258537,0.9079248648086102,897.0,8.984305370951343,0.6460281431675635,9.647284543517129,-0.25768036060228355,0.021,0.9999999999918123,-8.235022307286238,1.107695315278857,223,2026-10-08 00:16:54.364243,25.0,0.9675582933147315,2.5983870031820557,4.160066053434483
0214,cdot_cos,T,S-T,224,44,38526,-0.07050356627678638,-0.02758708394844908,-0.15143062784732703,0.02218800269333445,897.0,9.006076237962866,0.6460533453369668,9.669268160022495,-0.06460509348766237,0.246,0.9999999999916109,7661.0574282371435,1.1126629435872946,224,2026-10-08 00:16:54.610244,25.0,0.05036062858007994,0.2173736437303806,0.08849945939643171
0214,cdot_cos,P,T-P,225,45,38906,0.006845301249048237,-0.0002683138210252875,0.07734886752583461,0.8736607825424804,898.0,9.09125320366669,0.6470450439645918,9.705703340837024,-0.2539418098129867,0.38,0.9999999999915292,-190.9216278525604,1.117630897387672,225,2026-10-08 00:16:54.990243,25.0,0.47445383652365336,0.14769841598167505,0.22414990974690802
0214,cdot_cos,Q,P-Q,226,45,39116,-0.08460907243951876,-0.12803113835752777,-0.091454373688567,0.09225899282030983,898.0,9.118327034108939,0.6471496940944583,9.72882185809126,-0.08120619444835947,0.21,0.9999999999913008,1650.6010607440085,1.1225984418547872,226,2026-10-08 00:16:55.200243,25.0,0.1191796055828564,0.2664494564302368,0.12892300210594276
0214,cdot_cos,R,Q-R,227,45,39160,-0.010551368098068812,0.05647695259526288,0.07405770434144995,0.8642963927989777,898.0,9.20316197536739,0.6481293860649179,9.765083035225915,-0.2556960091126808,0.044,0.9999999999912057,-178.10681308582352,1.1275655832002711,227,2026-10-08 00:16:55.244244,25.0,0.5053969203613701,2.0021707765650296,1.9280668467829882
0214,cdot_cos,S,R-S,228,45,39181,0.10562724912831391,-0.11068665561485658,0.11617861722638272,0.9480667381654336,898.0,9.294518062446661,0.6492026005108035,9.802773533637259,-0.2776099664183825,0.021,0.9999999999911388,-20.41899211263291,1.1325326694975115,228,2026-10-08 00:16:55.265243,25.0,0.9240972773578967,2.6918980775777,4.350289860917672
0214,cdot_cos,T,S-T,229,45,39424,-0.054628292393901844,-0.02345707386228346,-0.16025554152221574,0.017873717877896787,898.0,9.316221694625654,0.6492228191674093,9.824553221629964,-0.06635377588256529,0.243,0.9999999999909236,10448.57700757336,1.137500310399725,229,2026-10-08 00:16:55.508243,25.0,0.041428529578510405,0.21329197475270859,0.08931535876128516
0214,cdot_cos,P,T-P,230,46,39804,0.005537271135653068,0.00013841429869928024,0.06016556352955491,0.8181909952440479,898.0,9.398177962176478,0.6501477780840241,9.860009107688434,-0.2516508975534908,0.38,0.9999999999908264,-200.33011017297926,1.1424682975961051,230,2026-10-08 00:16:55.888243,25.0,0.47887001256481637,0.1446802146664822,0.21567438829164232
0214,cdot_cos,Q,P-Q,231,46,40015,-0.08212750611745633,-0.13356510767043653,-0.0876647772531094,0.10050559539144167,898.0,9.42617865777218,0.650261321232554,9.883147378683663,-0.08646986388912756,0.211,0.999999999990585,1454.7864472944361,1.147435860643007,231,2026-10-08 00:16:56.099244,25.0,0.14803998780213423,0.26597187096356817,0.13270471846304455
0214,cdot_cos,R,Q-R,232,46,40064,-0.014589482329432588,0.061266533375396004,0.06753802378802373,0.8440202893150437,898.0,9.510418091723103,0.6512141544188395,9.919029961641526,-0.2613627500488611,0.049,0.9999999999904791,-183.55037238106317,1.1524030140771964,232,2026-10-08 00:16:56.148243,25.0,0.5121397921241919,1.795937955920751,1.7191721214474156
0214,cdot_cos,S,R-S,233,46,40085,0.09563080333174012,-0.09798253706365039,0.11022028566117271,0.9402236200333284,898.0,9.602180577452414,0.652274171819516,9.956564627902932,-0.2869430097126875,0.021,0.9999999999904051,-24.131924294356622,1.1573700973888124,233,2026-10-08 00:16:56.169244,25.0,0.9147106192403541,2.7040600310774394,4.369642177586201
0214,cdot_cos,T,S-T,234,46,40323,-0.06882610513031051,-0.0325864644804444,-0.16445690846205063,0.016120324973899407,898.0,9.623988613028356,0.6522923329201092,9.97818551190414,-0.06859782144674534,0.238,0.9999999999901746,12022.684811669678,1.162337744634048,234,2026-10-08 00:16:56.407244,25.0,0.04146209895038088,0.22899749857075255,0.09163040157958925
0214,cdot_cos,P,T-P,235,47,40702,0.009121700654132679,-0.0005027629182682607,0.07794780578444319,0.8753042908989331,840.0,9.711183386772092,0.6532777815384216,10.014590905349392,-0.2754619739975403,0.379,0.9999999999900819,-209.91876055907778,1.1673057628571855,235,2026-10-08 00:16:56.786243,25.0,0.4719077674103693,0.15048551079869632,0.230065366078459
0214,cdot_cos,Q,P-Q,236,47,40893,-0.08769798753250425,-0.1248837731397019,-0.09681968818663693,0.08162335171866163,840.0,9.738056630213768,0.6533696092001141,10.037287664907666,-0.08538715356474,0.191,0.9999999999898224,2069.9080966404717,1.1722732898780297,236,2026-10-08 00:16:56.977243,25.0,0.10795559125841162,0.28534102900874975,0.14069760964228195
0214,cdot_cos,R,Q-R,237,47,40952,-0.03112269377807815,0.10386119359057612,0.056575293754426104,0.8044562342797306,840.0,9.820183659853434,0.654274024442938,10.07245434742284,-0.26209042272408645,0.059,0.9999999999897047,-195.37847306466594,1.177240469874988,237,2026-10-08 00:16:57.036243,25.0,0.5095602027210819,1.4835366210982304,1.3919835532146876
0214,cdot_cos,S,R-S,238,47,40975,0.08085406836500475,-0.07504744769599342,0.1119767621430829,0.9426444227770371,840.0,9.913113951503359,0.6553323803409951,10.11000939954514,-0.29878762198999703,0.023,0.9999999999896261,-34.673779711797096,1.1822075556929217,238,2026-10-08 00:16:57.059244,25.0,0.8844225378841132,2.492264568939555,4.0404474630402
0214,cdot_cos,T,S-T,239,47,41201,-0.0960785852139898,-0.06594231240347097,-0.17693265357899457,0.011852228551679838,840.0,9.934827830024654,0.6553456776785246,10.131432155931778,-0.07021849846292229,0.226,0.9999999999893804,17189.089396243646,1.1871751897827294,239,2026-10-08 00:16:57.285243,25.0,0.0385764742752572,0.2530550751757924,0.09607910850130494
0214,cdot_cos,P,T-P,240,48,41542,0.010167926791871047,-0.0006426402699208924,0.10624651200586085,0.9343898169139392,819.0,10.027494845482817,0.6563932282755939,10.168834633452505,-0.3009577669416133,0.341,0.9999999999892938,-220.26551187524987,1.192143139012343,240,2026-10-08 00:16:57.626244,25.0,0.4645513325298569,0.17728891851100081,0.2717507784696869
0214,cdot_cos,Q,P-Q,241,48,41752,-0.07972210413142108,-0.15535441932315633,-0.08989003092329213,0.09558687152150837,819.0,10.055738872449156,0.6565003058028128,10.191660949966138,-0.09227110681740273,0.21,0.9999999999890282,1948.930513659507,1.1971107334099365,241,2026-10-08 00:16:57.836244,25.0,0.10417651620078865,0.2558616015625089,0.13449536650637772
0214,cdot_cos,R,Q-R,242,48,41797,-0.03460523376202831,0.09061958370851965,0.04511687036939278,0.7554551632310557,819.0,10.13495671813907,0.6573460149689531,10.225940242821128,-0.2598768744640625,0.045,0.9999999999888947,-198.18369524313084,1.2020778762952467,242,2026-10-08 00:16:57.881243,25.0,0.5246924555900848,1.9647034037758755,1.760396570886987
0214,cdot_cos,S,R-S,243,48,41818,0.15086510824191834,-0.08837951308119574,0.18547034200394666,0.9904039235348117,819.0,10.232562178788985,0.6584532295414883,10.264306149445378,-0.322500792889666,0.021,0.9999999999888232,-56.559875546263136,1.2070449543747943,243,2026-10-08 00:16:57.902244,25.0,0.8235078348022282,2.8383809289336575,4.647879078567351
0214,cdot_cos,T,S-T,244,48,42061,-0.04511120202940073,-0.041166948406157484,-0.19597631027131907,0.007395887845305968,819.0,10.254168717154284,0.6584614912418262,10.285533411980477,-0.07180793216265566,0.243,0.9999999999885658,30343.978899647285,1.2120126553639035,244,2026-10-08 00:16:58.145243,25.0,0.030465562466301183,0.215853872483107,0.0889157957419722
0214,cdot_cos,P,T-P,245,49,42361,0.010681571003879382,-0.0008198364466399625,0.05579277303328011,0.8013605066330657,818.0,10.337467160815775,0.6593560937480437,10.320592159573453,-0.277902109382088,0.3,0.9999999999884478,-230.37513955870563,1.2169805193653072,245,2026-10-08 00:16:58.445244,25.0,0.47634776190379435,0.18609460453330823,0.27766147887163584
0214,cdot_cos,Q,P-Q,246,49,42571,-0.08021552253135959,-0.15396623857025066,-0.09089709353523898,0.09343240689562833,818.0,10.36582547987427,0.6594603237137188,10.343268804819992,-0.09510874629771873,0.21,0.999999999988173,1753.7505831504202,1.2219481305692554,246,2026-10-08 00:16:58.655244,25.0,0.14632272921418701,0.26409908976353064,0.13503961456425798
0214,cdot_cos,R,Q-R,247,49,42614,-0.02770419622220372,0.07625922540603612,0.05251132630915587,0.7879785062034809,818.0,10.448388778516458,0.6603387509065969,10.378076482442577,-0.2780374233435536,0.043,0.9999999999880427,-208.24569017095124,1.2269152679613842,247,2026-10-08 00:16:58.698244,25.0,0.5179232280990262,2.1017998354328378,1.9200767126090397
0214,cdot_cos,S,R-S,248,49,42634,0.14013210490757216,-0.09490641786172942,0.16783630112977588,0.9851662808288414,818.0,10.546580265721493,0.6614354497237716,10.416334278360583,-0.33301314024947537,0.02,0.9999999999879698,-50.1283634531047,1.2318823409740902,248,2026-10-08 00:16:58.718244,25.0,0.8478210184265565,2.9997484462963797,4.909574360251767
0214,cdot_cos,T,S-T,249,49,42859,-0.05745684525757041,-0.05036688752366021,-0.19758895016514258,0.007105722437515735,818.0,10.568378716368313,0.6614433536203587,10.437438462462652,-0.07435058227322047,0.225,0.9999999999877014,32725.954233507153,1.2368500102924538,249,2026-10-08 00:16:58.943244,25.0,0.030839527023261072,0.24024263016745884,0.09688200287475486
0214,cdot_cos,P,T-P,250,50,43179,0.005685159013890889,-0.00014716378513261044,0.0631420042714613,0.8289990797204227,859.0,10.65468944929685,0.6623648536522194,10.472946969612686,-0.29550257415222536,0.32,0.9999999999875885,-239.99130139197032,1.2418179595901262,250,2026-10-08 00:16:59.263244,25.0,0.473126361879057,0.18079128546931722,0.269721040401677
0214,cdot_cos,Q,P-Q,251,50,43389,-0.08090100264298042,-0.14778142908463515,-0.0865861616568713,0.10296977658480407,859.0,10.684085139068676,0.6624792270859997,10.49568496192257,-0.1011742525961506,0.21,0.9999999999873034,1699.0687009483029,1.2467855882521406,251,2026-10-08 00:16:59.473243,25.0,0.14650012381813296,0.2722242575295678,0.13997947510393516
0214,cdot_cos,R,Q-R,252,50,43440,-0.023541235793446996,0.07237160740987861,0.05735976684953342,0.8075228911440778,859.0,10.769023637459268,0.6633755213598423,10.530800695962995,-0.29352376417314086,0.051,0.9999999999871738,-214.60531121362675,1.2517527493850542,252,2026-10-08 00:16:59.524243,25.0,0.5192802578928208,1.8003236228948112,1.6654607527567078
0214,cdot_cos,S,R-S,253,50,43461,0.13014845830185237,-0.09840467506012172,0.15368969409529937,0.979004792745738,859.0,10.867718148603947,0.6644605738189038,10.568933228820931,-0.34343210414772773,0.021,0.9999999999870974,-45.99624613335059,1.2567198229856704,253,2026-10-08 00:16:59.545243,25.0,0.8647435496430469,2.8768671264805823,4.699738625937078
0214,cdot_cos,T,S-T,254,50,43679,-0.05992668290054152,-0.04246499078973784,-0.19007514120239388,0.008561525297403647,859.0,10.889852056771453,0.6644700551085867,10.589950873096688,-0.07744969104879662,0.218,0.9999999999868171,28053.40011686621,1.2616874904828717,254,2026-10-08 00:16:59.763244,25.0,0.03224925040555624,0.2539746940453643,0.10153168884176983
0214,cdot_cos,P,T-P,255,51,44038,0.0085135618776741,0.00043141533617874423,0.06844024477821561,0.846966737014675,838.0,10.978451115207726,0.665407354969859,10.62574483133885,-0.31116550826256245,0.359,0.9999999999867056,-249.35010328125864,1.2666555874123804,255,2026-10-08 00:17:00.122243,25.0,0.4718481390413987,0.16776240168827253,0.24679403464142904
0214,cdot_cos,Q,P-Q,256,51,44248,-0.06747109101035839,-0.12881022852424703,-0.0759846528880325,0.13015190527892956,838.0,11.010305461183632,0.6655512727987559,10.648863096544359,-0.11246681911078268,0.21,0.9999999999864114,1380.6398461870833,1.2716232336403142,256,2026-10-08 00:17:00.332243,25.0,0.17089060701354325,0.2499449972991944,0.15168736179003162
0214,cdot_cos,R,Q-R,257,51,44302,-0.042980556999628924,0.10387113488771733,0.024490534010729467,0.648456929833741,838.0,11.083428014073387,0.6662678563597001,10.681129674251045,-0.2591258000406724,0.054,0.9999999999862389,-204.66417166569016,1.2765904043024112,257,2026-10-08 00:17:00.386244,25.0,0.5678057041668331,1.5869043015829543,1.3541213498102778
0214,cdot_cos,S,R-S,258,51,44324,0.08584648713004629,-0.06248415230635307,0.12882704412967522,0.9616049845888663,838.0,11.181691125754591,0.6673290742182844,10.718935556641856,-0.350359250675913,0.022,0.9999999999861544,-85.97051952833914,1.281557478121915,258,2026-10-08 00:17:00.408243,25.0,0.7707434429616523,2.7491273844141197,4.4665050764183665
0214,cdot_cos,T,S-T,259,51,44557,-0.08692792769543956,-0.07384204644338799,-0.17277441482548583,0.013133606065287335,838.0,11.204389618987609,0.66734355662277,10.739921585479806,-0.08137012210902844,0.233,0.9999999999858604,18573.51304014629,1.2865252094359254,259,2026-10-08 00:17:00.641243,25.0,0.036671766517823834,0.25147001868013225,0.09741842589277769
0214,cdot_cos,P,T-P,260,52,44876,0.005553812556560402,-8.897322095531725e-05,0.09248174025199996,0.9098695773950201,821.0,11.298876154459533,0.6683460973360432,10.77680120376811,-0.3399735656880277,0.319,0.9999999999857562,-257.94807148996466,1.2914932130472063,260,2026-10-08 00:17:00.960243,25.0,0.46735903597447226,0.19506145736950506,0.29619603596214555
0214,cdot_cos,Q,P-Q,261,52,45086,-0.08110192837458365,-0.16831519377502213,-0.08665574093114405,0.10280921678858175,821.0,11.328838828789353,0.6684592820480604,10.799335549142926,-0.10838698547202608,0.21,0.9999999999854452,2046.0941772851722,1.2964608763471015,261,2026-10-08 00:17:01.170244,25.0,0.11804798378443264,0.27015152894811595,0.14267940157057052
0214,cdot_cos,R,Q-R,262,52,45137,-0.03302784962356849,0.07768094459172252,0.04807407875101515,0.7688540745979888,821.0,11.412339796617742,0.669305110805894,10.833695677523844,-0.3031790909011182,0.051,0.9999999999852949,-230.29733102004053,1.3014280384664163,262,2026-10-08 00:17:01.221244,25.0,0.525976638263408,1.8130775326673183,1.6372738789880177
0214,cdot_cos,S,R-S,263,52,45158,0.14723956211101888,-0.08682416606537774,0.18026741173458738,0.9890854643206963,821.0,11.51377273712142,0.6703916115215469,10.87197100757181,-0.37066306316104336,0.021,0.999999999985215,-62.11130033115084,1.3063951067475146,263,2026-10-08 00:17:01.242244,25.0,0.8335489533862207,2.9493450025061883,4.830140023984646
0214,cdot_cos,T,S-T,264,52,45396,-0.05049380794371674,-0.048729048334027,-0.19773337005473562,0.007080294823373443,821.0,11.536212286723002,0.6703993826144594,10.89274671790005,-0.08244245203946887,0.238,0.9999999999849069,37088.81290789041,1.3113628750444646,264,2026-10-08 00:17:01.480243,25.0,0.030317753354680024,0.22889654902889883,0.094283821855388
0214,cdot_cos,P,T-P,265,53,45697,0.004945742882008138,-0.00017873613675293494,0.055439550825724875,0.7999511010411806,835.0,11.622727494459175,0.6712767814931694,10.927641162918015,-0.3189232823916479,0.301,0.9999999999847721,-269.52488325478026,1.3163308498741957,265,2026-10-08 00:17:01.781244,25.0,0.4763999515662912,0.19278291992215144,0.28742593932283556
0214,cdot_cos,Q,P-Q,266,53,45904,-0.08561868250250981,-0.15948218614080545,-0.09056442538451795,0.09413924087213368,835.0,11.652267604516137,0.6713799564851535,10.949923704535202,-0.10942288412484197,0.207,0.999999999984448,2030.5346696718182,1.321298520954761,266,2026-10-08 00:17:01.988243,25.0,0.14740166435873067,0.28364456896153434,0.14270584568580516
0214,cdot_cos,R,Q-R,267,53,45956,-0.026777391937161468,0.07259680547830438,0.05884129056534834,0.8132142343936477,835.0,11.74015634600925,0.6722705361913193,10.985039746994325,-0.3267465868104421,0.052,0.9999999999843049,-244.02498864615046,1.326265687176213,267,2026-10-08 00:17:02.040244,25.0,0.5142149458130012,1.8251592776338,1.690168105636799
0214,cdot_cos,S,R-S,268,53,45978,0.1364013242736912,-0.09183864078328852,0.16317871621085267,0.9833649419477245,835.0,11.842084169390052,0.6733457991159413,11.023194517703429,-0.38137055701647815,0.022,0.9999999999842218,-50.80057068389862,1.331232756409,268,2026-10-08 00:17:02.062243,25.0,0.8665541355100902,2.835333366520713,4.63308288094553
0214,cdot_cos,T,S-T,269,53,46214,-0.050508734553828,-0.042164694063279655,-0.1869100588275192,0.009259968984747418,835.0,11.864911014136162,0.6733559158190867,11.04390686614178,-0.08585910353118063,0.236,0.9999999999839018,29210.252513798012,1.3362005390563,269,2026-10-08 00:17:02.298244,25.0,0.03200642772983414,0.2353810415099157,0.09672391841571926
0214,cdot_cos,P,T-P,270,54,46532,0.007891257203119713,0.00038000615362832226,0.05839999175694771,0.8115326432673446,876.0,11.953184020982732,0.674241904227559,11.078974546527467,-0.33311093156137184,0.318,0.9999999999837662,-279.06891971252804,1.3411685987413118,270,2026-10-08 00:17:02.616243,25.0,0.4760412743382908,0.18655348119966592,0.2775880718445612
0214,cdot_cos,Q,P-Q,271,54,46745,-0.07957691025088659,-0.14654860025001334,-0.0874681674540063,0.10095082765052775,876.0,11.98355902817915,0.6743520301158008,11.101286248027462,-0.11517559273908011,0.213,0.9999999999834298,1978.9655484442362,1.3461363076220547,271,2026-10-08 00:17:02.829243,25.0,0.15073970854666977,0.2798333663690622,0.1426056675888125
0214,cdot_cos,R,Q-R,272,54,46797,-0.020340428377482195,0.06391759810507668,0.0592364818734044,0.8147103004705774,876.0,12.072393035055953,0.6752400810575819,11.136396218025958,-0.33803786628908394,0.052,0.9999999999832809,-250.956632175873,1.3511034745488208,272,2026-10-08 00:17:02.881243,25.0,0.5172225777364778,1.8296706961613562,1.7083462860923737
0214,cdot_cos,S,R-S,273,54,46819,0.11352899634808665,-0.09293937951194375,0.13386942472556884,0.9659977766716494,876.0,12.17384478057993,0.6762914071559859,11.174219455950304,-0.3884497246020177,0.022,0.9999999999831901,-47.95073421031262,1.3560705412212317,273,2026-10-08 00:17:02.903244,25.0,0.8782912264266136,2.8337078000254032,4.61144297836262
0214,cdot_cos,T,S-T,274,54,47051,-0.06418849791932522,-0.04129220865855196,-0.17771749426741187,0.011624619372766687,876.0,12.19707617825707,0.6763040477927741,11.194875497562865,-0.08940689019403325,0.232,0.9999999999828576,23657.260264567736,1.3610383308588745,274,2026-10-08 00:17:03.135243,25.0,0.03526937118464474,0.2516147372450099,0.10013533481525909
0214,cdot_cos,P,T-P,275,55,47408,0.010218923452087456,-0.00045669510353084006,0.07440742137141268,0.8653185721134923,862.0,12.290594018661615,0.6772442736066427,11.230878120982899,-0.3610805376046089,0.357,0.999999999982731,-288.9451059557134,1.3660065555595797,275,2026-10-08 00:17:03.492243,25.0,0.47123860314000254,0.17145771577498206,0.2619547350267352
0214,cdot_cos,Q,P-Q,276,55,47602,-0.08768062575118259,-0.12419619894669133,-0.09789954920327004,0.07962238755958173,862.0,12.319496987320408,0.6773307167558802,11.252716828523715,-0.11213936440882263,0.194,0.99999999998237,2879.8253579584357,1.3709742165975178,276,2026-10-08 00:17:03.686244,25.0,0.10861706626718476,0.3139821265672992,0.14898437452985935
0214,cdot_cos,R,Q-R,277,55,47656,-0.016944502357020143,0.07441768355637798,0.07073612339416244,0.8542589666474777,862.0,12.412419083769727,0.6782573911468545,11.28850726337337,-0.3617617559923969,0.054,0.999999999982227,-269.3744361718371,1.375941391093685,277,2026-10-08 00:17:03.740243,25.0,0.501566668878902,1.7766965819096352,1.7207795638762846
0214,cdot_cos,S,R-S,278,55,47678,0.08332999093450082,-0.08767599466726103,0.10027449329152097,0.924621496945131,862.0,12.511380218166648,0.6792588139268395,11.325562279000152,-0.38762488976945614,0.022,0.9999999999821197,-25.826388508403337,1.3809084549784487,278,2026-10-08 00:17:03.762244,25.0,0.9354551592832107,2.7905958231045815,4.498233381678237
0214,cdot_cos,T,S-T,279,55,47911,-0.0809515746527572,-0.04519931002646876,-0.164281565587258,0.01618999811423743,862.0,12.535205299986329,0.6792763340471966,11.346206254969402,-0.09377883486102254,0.233,0.9999999999817722,16771.919879544606,1.3858762687171302,279,2026-10-08 00:17:03.995244,25.0,0.043569662929648645,0.2613021016396795,0.10225357004154656
0214,cdot_cos,P,T-P,280,56,48270,0.01076423832573667,-0.0004608058455334269,0.09171581297849386,0.9082869210593584,819.0,12.633146997530739,0.6802584329502449,11.38295619455134,-0.386756969492525,0.359,0.9999999999816521,-298.3183605257323,1.3908445354539314,280,2026-10-08 00:17:04.354244,25.0,0.4688252606459393,0.18058632479171324,0.27281809900949944
0214,cdot_cos,Q,P-Q,281,56,48478,-0.07279399195088332,-0.132916514499614,-0.08355823027661999,0.11017490652570168,819.0,12.664866281186779,0.68037745280285,11.405261333985962,-0.1258754228585016,0.208,0.9999999999812841,2191.9162301403676,1.3958122635044097,281,2026-10-08 00:17:04.562243,25.0,0.1258659787592806,0.27099742904745927,0.152496556038653
0214,cdot_cos,R,Q-R,282,56,48524,-0.03865481756544736,0.10145532322376222,0.03413917438543596,0.7012965078413813,819.0,12.745881928014482,0.6811344988515671,11.438251006765306,-0.3225295514552854,0.046,0.999999999981089,-259.76508156940304,1.4007794096193102,282,2026-10-08 00:17:04.608243,25.0,0.5435006517815983,2.0076757361147983,1.7612097136457225
0214,cdot_cos,S,R-S,283,56,48545,0.10135353048092222,-0.07122272042830285,0.14000834804636958,0.9706937068444212,819.0,12.84957244890934,0.6821807819093724,11.47611475601686,-0.41507265024032564,0.021,0.9999999999809899,-88.44939053028381,1.405746466860202,283,2026-10-08 00:17:04.629244,25.0,0.8001497447994766,3.0295576317155555,4.937643852136104
0214,cdot_cos,T,S-T,284,56,48770,-0.08093951959450142,-0.07183831967943212,-0.18229305007542362,0.010381170089923338,819.0,12.873123348546535,0.6821919615642512,11.496560992815315,-0.09474142438304387,0.225,0.9999999999806249,28653.051398162443,1.4107142717050636,284,2026-10-08 00:17:04.854244,25.0,0.034009665630608435,0.2698925263375626,0.10467066505420064
0214,cdot_cos,P,T-P,285,57,49089,0.005813860713410848,0.00020855680176420853,0.08675338030791227,0.8974157201528947,820.0,12.971024085761243,0.6831576085759826,11.533086380730275,-0.3950526195128279,0.319,0.9999999999804963,-310.99479569799036,1.415682425593225,285,2026-10-08 00:17:05.173243,25.0,0.46758214239024953,0.20240255162420728,0.3068988627420315
0214,cdot_cos,Q,P-Q,286,57,49300,-0.08160274982541164,-0.1728023251109179,-0.08741661053882249,0.10106787016308581,820.0,13.00225617648278,0.683266262121003,11.55514091936078,-0.1266356534505811,0.211,0.9999999999801156,2470.3930830031572,1.4206501828113922,286,2026-10-08 00:17:05.384243,25.0,0.12007961757068686,0.28019071674302704,0.1480193873058588
0214,cdot_cos,R,Q-R,287,57,49351,-0.03460336245271186,0.0783510724687846,0.046999387372699784,0.7640448386924406,820.0,13.0892645682268,0.6840870051613809,11.58922955439975,-0.3539011276921573,0.051,0.999999999979932,-276.9021034122394,1.42561734776073,287,2026-10-08 00:17:05.435244,25.0,0.5261482699207953,1.89686928828574,1.7060468969415923
0214,cdot_cos,S,R-S,288,57,49373,0.16246196611515665,-0.08696390291637889,0.19706532856786851,0.9928013223342734,820.0,13.195736843887925,0.6851517676883017,11.627471830689258,-0.4354868306722367,0.022,0.9999999999798368,-76.62337931446508,1.430584406189431,288,2026-10-08 00:17:05.457243,25.0,0.8291587268437971,2.951557718326922,4.8396488936874675
0214,cdot_cos,T,S-T,289,57,49608,-0.041882428174961205,-0.04245305119931342,-0.20434439429011786,0.0060081635524744425,820.0,13.219133107833185,0.6851582054355689,11.647750256958512,-0.09616625791878805,0.235,0.9999999999794573,52707.96734727018,1.4355522694279446,289,2026-10-08 00:17:05.692243,25.0,0.029349537459000777,0.23779444061538266,0.09955856997983102
0214,cdot_cos,P,T-P,290,58,49909,0.007471289959881284,-0.00036241880479282536,0.04935371813484249,0.7744904731425833,838.0,13.307500230977155,0.6859874756791339,11.682007471649273,-0.3642323656156653,0.301,0.9999999999792862,-323.25542822384574,1.4405203854064579,290,2026-10-08 00:17:05.993243,25.0,0.4790379159320402,0.19676042503828212,0.2935784822058789
0214,cdot_cos,Q,P-Q,291,58,50118,-0.08788189057839002,-0.16539513872884426,-0.0953531805382713,0.08441411742892296,838.0,13.337582883706231,0.6860777888109356,11.703673388683082,-0.12452957233938439,0.209,0.9999999999788882,2654.1300084961754,1.4454881530173396,291,2026-10-08 00:17:06.202244,25.0,0.14589524285511307,0.29486049207908877,0.14393613745969516
0214,cdot_cos,R,Q-R,292,58,50168,-0.025058442416563475,0.06991518635583428,0.06282344816182654,0.8278671602307078,838.0,13.430751916666214,0.6869627613568163,11.7388886656837,-0.38686955673960066,0.05,0.9999999999787202,-296.4385569036369,1.4504553148508597,292,2026-10-08 00:17:06.252243,25.0,0.5075755754009119,1.9960834566133556,1.863380659199656
0214,cdot_cos,S,R-S,293,58,50189,0.13405812049127672,-0.09549423513345502,0.15911656290784018,0.9816195114392312,838.0,13.537191229367567,0.6880103296225704,11.776903710838692,-0.4444545686977458,0.021,0.9999999999786194,-54.9701760168308,1.4554223669763513,293,2026-10-08 00:17:06.273243,25.0,0.8784789565277444,3.1009813301670603,5.068538700064417
0214,cdot_cos,T,S-T,294,58,50427,-0.05646624149764556,-0.04475490903118962,-0.19052436198892228,0.00846672233742516,838.0,13.56099313253323,0.6880193568335382,11.797138367594657,-0.09986760628255628,0.238,0.9999999999782274,38172.02939451123,1.4603902631017984,294,2026-10-08 00:17:06.511244,25.0,0.031731741592658395,0.24856592660581295,0.1000079964943856
0214,cdot_cos,P,T-P,295,59,50747,0.009184149467367134,0.0005742293979179171,0.06565039096501268,0.8377062822121719,920.0,13.655508610431934,0.6889118118798575,11.832513784432875,-0.3976717544991235,0.32,0.9999999999780709,-333.6909230832239,1.465358482309757,295,2026-10-08 00:17:06.831244,25.0,0.4729009836994418,0.20280043592659502,0.29536086843344744
0214,cdot_cos,Q,P-Q,296,59,50976,-0.06272854431168334,-0.11837860648077454,-0.07191269377905048,0.14211696587088093,920.0,13.690785411526251,0.6890630780057796,11.855155766610256,-0.14909479248907045,0.229,0.9999999999776755,1643.3088405931965,1.470326347268929,296,2026-10-08 00:17:07.060243,25.0,0.18876714239259557,0.2699510177826904,0.154047166350732
0214,cdot_cos,R,Q-R,297,59,51015,-0.016128011417770163,0.06734598646646746,0.04660053289391318,0.7622424678298279,920.0,13.779146176576406,0.689873702393387,11.889135361596683,-0.3745998072777449,0.039,0.9999999999774777,-278.18681282742034,1.4752934659836303,297,2026-10-08 00:17:07.099244,25.0,0.5477210594507372,2.4644672317806773,2.2656606423116554
0214,cdot_cos,S,R-S,298,59,51036,0.09467309494049114,-0.09565450660921426,0.1108011063582613,0.9410345213093507,920.0,13.883013855605144,0.6908728604895386,11.926381915174735,-0.4426331919742408,0.021,0.9999999999773597,-68.09071052773038,1.4802605151481696,298,2026-10-08 00:17:07.120243,25.0,0.8575279565715518,3.065703107953087,4.946079953749441
0214,cdot_cos,T,S-T,299,59,51267,-0.06343457239231107,-0.026950728141976417,-0.1581076673328022,0.018841138577720226,920.0,13.907905707110436,0.6908928471938858,11.946721346120494,-0.10656736239827158,0.231,0.9999999999769551,16814.469446171068,1.4852284047879436,299,2026-10-08 00:17:07.351244,25.0,0.04270014174276348,0.26317661295103467,0.10775693292333932
0214,cdot_cos,P,T-P,300,60,51667,0.0071465937427429215,-0.0004222613712446453,0.07058116613505398,0.853775997703517,880.0,14.004601450788522,0.6917977837633372,11.982357281825724,-0.41511013198153923,0.4,0.9999999999767984,-340.95513431432823,1.4901969764784746,300,2026-10-08 00:17:07.751244,25.0,0.4755518770070212,0.1566478006782268,0.2417393591952166
0214,cdot_cos,Q,P-Q,301,60,51856,-0.10192410422930769,-0.13406456357410873,-0.1090706979720506,0.06141222555839825,880.0,14.033223947653017,0.6918628193231616,12.003441415348696,-0.12341271249820028,0.189,0.999999999976349,4485.198870755312,1.4951646993170218,301,2026-10-08 00:17:07.940243,25.0,0.09408158303531679,0.3421393889719625,0.15144178235182437
0214,cdot_cos,R,Q-R,302,60,51915,-0.015440111550824871,0.08000784571037961,0.08648399267848281,0.8967940579922202,880.0,14.133930139819924,0.6928116563484565,12.039853809457082,-0.43547290370998687,0.059,0.9999999999761896,-328.8870300089665,1.5001318977892664,302,2026-10-08 00:17:07.999244,25.0,0.4884096843450048,1.7298076398189788,1.706884612998424
0214,cdot_cos,S,R-S,303,60,51937,0.08539840750726489,-0.09323483536706874,0.10083851905808977,0.9255983983587094,880.0,14.237341249151656,0.6937892614650392,12.07678788409926,-0.4496100684616616,0.022,0.9999999999760565,-14.461017553890755,1.5050989474007155,303,2026-10-08 00:17:08.021244,25.0,0.9690460280692764,2.9164897523134914,4.700504969624204
0214,cdot_cos,T,S-T,304,60,52163,-0.07778873317792372,-0.03495356026500239,-0.1631871406851886,0.016631613144096617,880.0,14.262255688921718,0.6938068116600611,12.09700603975916,-0.10880986839732099,0.226,0.9999999999756308,19418.599032015212,1.5100668371315606,304,2026-10-08 00:17:08.247243,25.0,0.04362736471796157,0.27710043328483536,0.11024088393832361
0214,cdot_cos,P,T-P,305,61,52547,0.004386540596514619,-3.4388791632170417e-05,0.08217527377443834,0.8863896314879552,856.0,14.362590644996402,0.6947413436260244,12.133207841612123,-0.43936816492891223,0.384,0.9999999999754765,-353.7153447617684,1.5150353833400938,305,2026-10-08 00:17:08.631244,25.0,0.47125816184409886,0.17078317809948035,0.26128894811115744
0214,cdot_cos,Q,P-Q,306,61,52752,-0.09122144165127125,-0.1556694172367342,-0.09560798224778587,0.08392308874262937,856.0,14.393417169702118,0.6948297419164295,12.154630204273726,-0.13558683069564528,0.205,0.9999999999750175,3436.5068921676047,1.5200031890212795,306,2026-10-08 00:17:08.836244,25.0,0.10640604177293927,0.31156885495493075,0.15037329124739734
0214,cdot_cos,R,Q-R,307,61,52800,-0.023833465037610947,0.0846149782031366,0.0673879766136603,0.8435258088621533,856.0,14.490333875527924,0.6957174506677504,12.190029160611925,-0.42746851190341023,0.048,0.9999999999748287,-328.80342879742125,1.524970342396561,307,2026-10-08 00:17:08.884243,25.0,0.5051931436266873,2.148638629969076,2.019098038037607
0214,cdot_cos,S,R-S,308,61,52822,0.14074235659889725,-0.11075475660432185,0.1645758216365082,0.9839267577048436,856.0,14.59968647817915,0.6967510760558271,12.228006410606206,-0.48483270504553744,0.022,0.9999999999747089,-55.49804968400157,1.5299373886717662,308,2026-10-08 00:17:08.906244,25.0,0.8884139372071748,3.041507077665989,4.970572847783007
0214,cdot_cos,T,S-T,309,61,53063,-0.046965743932923236,-0.02894859516905407,-0.1877081005318205,0.009078714327404843,856.0,14.624160186945227,0.6967606041040958,12.24800834852576,-0.10900610201857798,0.241,0.9999999999742619,39444.23794130393,1.534905362771277,309,2026-10-08 00:17:09.147244,25.0,0.031816906652328274,0.24586979600352174,0.10155065878040395
0214,cdot_cos,P,T-P,310,62,53403,0.009701703704177278,0.000488299660662141,0.056667447637100514,0.8048183899875537,878.0,14.718195719852847,0.6976045829962769,12.282671867987656,-0.41986862409489467,0.34,0.9999999999740683,-368.3297354427215,1.5398737606168778,310,2026-10-08 00:17:09.487243,25.0,0.4769324306617939,0.1858844200621663,0.276575096787118
0214,cdot_cos,Q,P-Q,311,62,53613,-0.07880698518687616,-0.14052188774226457,-0.08850868889105344,0.09861427707757205,878.0,14.7505615925875,0.6977079040476177,12.304290373401685,-0.14510860466212244,0.21,0.9999999999736011,2659.2840071522455,1.54484160577599,311,2026-10-08 00:17:09.697243,25.0,0.15054722226921496,0.299417967915595,0.15412320349834746
0214,cdot_cos,R,Q-R,312,62,53667,-0.024765324232529994,0.0801685652015481,0.05404166095434617,0.7942998524411843,878.0,14.843951266377397,0.6985393849041518,12.33874398364035,-0.41982989634847634,0.054,0.9999999999733868,-330.4000200696142,1.5498087847430415,312,2026-10-08 00:17:09.751244,25.0,0.5197728777491871,1.8704947281545554,1.72943840351661
0214,cdot_cos,S,R-S,313,62,53689,0.10861506084477465,-0.0916518002931083,0.13338038507730465,0.9655939049410003,878.0,14.952575023228192,0.6995484248048102,12.376353429342764,-0.49070943700552533,0.022,0.9999999999732543,-70.24453702058963,1.554775827788589,313,2026-10-08 00:17:09.773243,25.0,0.8655042492408425,3.032657286476342,4.937443493217958
0214,cdot_cos,T,S-T,314,62,53922,-0.07223596484644211,-0.043384123170133404,-0.18085102569121675,0.01075814566343776,878.0,14.977388186982356,0.699559656145262,12.39630708781318,-0.11259412610409404,0.233,0.9999999999727898,33666.089325769186,1.5597437887667644,314,2026-10-08 00:17:10.006243,25.0,0.03479730818926877,0.2697781719750326,0.10649426503933038
0214,cdot_cos,P,T-P,315,63,54281,0.005309730117805841,0.00010281873972715758,0.07754569496424796,0.8742029182444065,880.0,15.078291651368557,0.7004715093685138,12.43221545863671,-0.4589897108473995,0.359,0.9999999999726141,-379.8808579170691,1.564712303229082,315,2026-10-08 00:17:10.365243,25.0,0.47015568517695777,0.18513571556035502,0.2810681459225661
0214,cdot_cos,Q,P-Q,316,63,54492,-0.08639191624487606,-0.14590784100015078,-0.09170164636268191,0.09174258581847708,880.0,15.110315630754691,0.7005671112511545,12.4536347168455,-0.14628884151633298,0.211,0.9999999999721246,3270.865182711332,1.569680171309356,316,2026-10-08 00:17:10.576244,25.0,0.11794251866206254,0.3098636075166071,0.15177241415229223
0214,cdot_cos,R,Q-R,317,63,54540,-0.01815874607826626,0.07019445021098958,0.0682331701666098,0.8462945364597476,880.0,15.209054093740566,0.7014481817732274,12.489012089272514,-0.4522342595628809,0.048,0.9999999999719195,-347.2428260642753,1.5746473242477697,317,2026-10-08 00:17:10.624243,25.0,0.5083832067780413,2.1706548780214088,2.057051312205719
0214,cdot_cos,S,R-S,318,63,54561,0.11723847591247971,-0.10442178827493398,0.13539722199074597,0.9672302439417116,880.0,15.318698499044746,0.7024533315061451,12.526619577690166,-0.5046559366638014,0.021,0.9999999999717816,-52.15310255195093,1.5796143596063699,318,2026-10-08 00:17:10.645243,25.0,0.9013369901604924,3.209951705777187,5.221162157341939
0214,cdot_cos,T,S-T,319,63,54801,-0.05760626404042173,-0.031561233530527845,-0.17484473995290145,0.012479394745587086,880.0,15.343872065383207,0.7024662873938585,12.546531321374628,-0.11637490718485176,0.24,0.9999999999712995,29969.465471376057,1.5845823737292801,319,2026-10-08 00:17:10.885243,25.0,0.03556238035347462,0.2554860089297099,0.10488985974358804
0214,cdot_cos,P,T-P,320,64,55161,0.00478606377407368,-7.424487083061028e-05,0.06239232781449541,0.8263258285414997,879.0,15.441331783331007,0.7033234400283912,12.581515557412962,-0.4515928723191033,0.36,0.9999999999710973,-391.08316492197906,1.5895509291117527,320,2026-10-08 00:17:11.245243,25.0,0.47601720734900904,0.18217163056844202,0.2707214387438878
0214,cdot_cos,Q,P-Q,321,64,55370,-0.07978188503634387,-0.12490168949872398,-0.08456794881041754,0.10772442109444877,879.0,15.475035639392486,0.7034350779578353,12.603160817695857,-0.15680331770562456,0.209,0.9999999999705945,2640.586009444101,1.5945188070054992,321,2026-10-08 00:17:11.454243,25.0,0.15259077008840513,0.31535132100312324,0.16126246919367768
0214,cdot_cos,R,Q-R,322,64,55415,-0.016219800337743322,0.0712770030073804,0.06356208469860054,0.8304827008393973,879.0,15.573148635510313,0.704294914715485,12.638206677282115,-0.4576332183336633,0.045,0.9999999999703746,-349.86862093491584,1.5994859460331012,322,2026-10-08 00:17:11.499244,25.0,0.5182174795249808,2.288902893781359,2.180288802618375
0214,cdot_cos,S,R-S,323,64,55436,0.09236339576536663,-0.094836804174248,0.10858319610310996,0.9378815084681238,879.0,15.681036899832808,0.7052642051706566,12.675236123592263,-0.5056016285237315,0.021,0.9999999999702193,-49.48816934504635,1.60445297791282,323,2026-10-08 00:17:11.520243,25.0,0.9094875923173777,3.175671701874779,5.137536396309306
0214,cdot_cos,T,S-T,324,64,55679,-0.0783550355098914,-0.04120840635494759,-0.17071843127525804,0.013816747044850216,879.0,15.706526846989053,0.7052784708004136,12.695098706519333,-0.11996191101341913,0.243,0.9999999999697187,27032.78607942747,1.6094210277650496,324,2026-10-08 00:17:11.763244,25.0,0.040167997602646596,0.26824621408878774,0.10489690187755271
0214,cdot_cos,P,T-P,325,65,56040,0.00983470814341461,0.0005413784740484217,0.08818974365330601,0.9006746789129927,915.0,15.811404559879959,0.7062075389952044,12.731424859599441,-0.49471517572914214,0.361,0.9999999999695358,-403.36464730677625,1.614389624420593,325,2026-10-08 00:17:12.124243,25.0,0.46883087770195936,0.19085456596973777,0.29051998030721754
0214,cdot_cos,Q,P-Q,326,65,56231,-0.07989577778493959,-0.10716415223751782,-0.0897304859283542,0.0959322448750175,915.0,15.844323843619204,0.7063063946367445,12.752783386080385,-0.15593145823677254,0.191,0.9999999999690095,3427.054968379509,1.619357438052789,326,2026-10-08 00:17:12.315244,25.0,0.11387600563226055,0.35050328233963157,0.17235227088610017
0214,cdot_cos,R,Q-R,327,65,56291,-0.00931897917416486,0.06689779491565587,0.07057679861077473,0.8537623658559678,915.0,15.945296813733698,0.707185317423513,12.788222297541939,-0.4794659909967284,0.06,0.9999999999687926,-368.1034757893656,1.6243246463660417,327,2026-10-08 00:17:12.375243,25.0,0.5092679466893265,1.7196468191590895,1.682882835241569
0214,cdot_cos,S,R-S,328,65,56312,0.07886120610909085,-0.09993439775180335,0.0881801852832557,0.9006532996189088,915.0,16.050681461918295,0.7081108403649581,12.824523079764864,-0.5027280757135495,0.021,0.9999999999686141,-25.13399039088105,1.6292916747651118,328,2026-10-08 00:17:12.396243,25.0,0.9547825087089559,3.134516922629211,5.018316580218885
0214,cdot_cos,T,S-T,329,65,56560,-0.07647382542509688,-0.02483428514367113,-0.15533503153418773,0.020166185012125526,915.0,16.076946524484125,0.708131543706058,12.844433154336716,-0.12580631607430398,0.248,0.9999999999680967,18205.84213049529,1.6342597710464901,329,2026-10-08 00:17:12.644243,25.0,0.04998421697309445,0.26961366399762043,0.10590751034608983
0214,cdot_cos,P,T-P,330,66,56955,0.0213934623526884,0.0005322098626191128,0.09786728777778528,0.9203184873180192,862.0,16.184409839261114,0.709075456813835,12.881086871162815,-0.5158896113584115,0.395,0.9999999999679133,-413.26186920192265,1.6392285654864114,330,2026-10-08 00:17:13.039244,25.0,0.46947645063112714,0.1793073894358838,0.272059024751872
0214,cdot_cos,Q,P-Q,331,66,57130,-0.0634477782584488,-0.0806206905927113,-0.08484124061113721,0.10706945972180165,862.0,16.218599362138473,0.7091851542967564,12.902586813046739,-0.16481542254576734,0.175,0.9999999999673658,3200.3850905499007,1.6441963196623541,331,2026-10-08 00:17:13.214243,25.0,0.11882479267691341,0.37263814523744343,0.19536870215633584
0214,cdot_cos,R,Q-R,332,66,57184,-0.00978264763290878,0.10500404555493309,0.05366513062554002,0.7927575816058108,862.0,16.31483319009422,0.7099966103389225,12.936848505248049,-0.465005521821519,0.054,0.9999999999671142,-369.94006289539476,1.6491635001730098,332,2026-10-08 00:17:13.268243,25.0,0.5243675338818387,1.8197830589752657,1.7821079251064151
0214,cdot_cos,S,R-S,333,66,57207,0.0552837952200934,-0.07801495517052773,0.06506644285300217,0.8357117254666407,862.0,16.415135932507802,0.7108505817657005,12.971900463368824,-0.48674343273229226,0.023,0.9999999999669003,-25.455079911501553,1.6541305343468673,333,2026-10-08 00:17:13.291244,25.0,0.956322676038735,2.7427723156280717,4.360988800590534
0214,cdot_cos,T,S-T,334,66,57437,-0.11601001922960386,-0.04554280221255143,-0.17129381444969727,0.01362210956405926,862.0,16.44100071661311,0.7108644891467345,12.99161721563609,-0.1259963400438494,0.23,0.9999999999663589,25939.25425686248,1.6590985662660076,334,2026-10-08 00:17:13.521244,25.0,0.0570883431559536,0.2998919578995432,0.11245558306656092
0214,cdot_cos,P,T-P,335,67,57817,0.013573785271346336,-8.247790819413909e-05,0.1295838045009502,0.9622974224804383,839.0,16.553086233141592,0.7118459337199259,13.029015570946045,-0.5471888649539822,0.38,0.9999999999661865,-429.1556919414546,1.6640673280634801,335,2026-10-08 00:17:13.901243,25.0,0.4631340022766093,0.18963517472307956,0.29496188560126546
0214,cdot_cos,Q,P-Q,336,67,58006,-0.08379127559695322,-0.11491478886906985,-0.09736506086829956,0.08060712254741596,839.0,16.58512344940265,0.711928054652526,13.049954772553814,-0.15705954281158152,0.189,0.9999999999656114,4750.66843239991,1.6690351647451565,336,2026-10-08 00:17:14.090244,25.0,0.08341241739739626,0.3518080102445197,0.16950908074634707
0214,cdot_cos,R,Q-R,337,67,58053,-0.018482056803486243,0.09860351015072229,0.06530921879346697,0.8365433425132454,839.0,16.68606966101402,0.7127794850570796,13.08499084024121,-0.49598656738668484,0.047,0.9999999999653679,-398.0677959848064,1.6740023113470284,337,2026-10-08 00:17:14.137243,25.0,0.5049281585256887,2.2583803963877447,2.147791736412103
0214,cdot_cos,S,R-S,338,67,58075,0.09792688180788718,-0.09586667007142663,0.11640893861137343,0.9483495115671007,839.0,16.7974112066631,0.7137428918915267,13.122102219042167,-0.5494480840863165,0.022,0.9999999999651946,-55.4921501364571,1.6789693374251484,338,2026-10-08 00:17:14.159244,25.0,0.9072834199970091,3.1227949813582065,5.060979347685417
0214,cdot_cos,T,S-T,339,67,58313,-0.07380971100999245,-0.04220660176420366,-0.17173659281787962,0.01347417224378285,839.0,16.82347264019378,0.7137565660463314,13.141750891705025,-0.12913304418490315,0.238,0.9999999999646343,30737.917326876366,1.6839374311547075,339,2026-10-08 00:17:14.397243,25.0,0.03858471049620829,0.2787245293907414,0.10950182155748703
