record_id,input,event,transition,event_index,k,peak,value_cos,value_sin,value_return,x_input,rr,knowledge,decision,decision_norm,entropy,delta_t,cosine_similarity,delta_h_over_delta_d,frobenius_norm,matrix_size,timestamp,scale,P,zdot,zdot_back
0002,cdot_cos,Q,P-Q,1,0,1381,-0.00905017651214272,-0.006227257493811914,-0.018619047126490006,0.38568752892552344,919.0,0.0019157645425723667,0.5004789409891608,0.5004789409891608,,,1.0,,0.004967141530112327,1,2026-10-07 19:46:17.465244,25.0,,,
0002,cdot_cos,R,Q-R,2,0,1433,0.09596913496880188,0.14639128742937896,0.10501931148094461,0.9324837104358411,919.0,0.009259624261903536,0.5016368799289148,0.7094216789819952,-1.4800177076391077e-05,,0.9999999999999999,,0.009934283060224654,2,2026-10-07 19:46:17.517244,25.0,,,
0002,cdot_cos,S,R-S,3,0,1481,-0.003543808347626568,-0.012114881525391724,-0.09951294331642845,0.07671621284636691,919.0,0.012000693103371457,0.5017321439190529,0.8690255650582597,-1.0509184726014298e-05,0.048,1.0,0.045043172600255935,0.014901424597963309,3,2026-10-07 19:46:17.565243,25.0,0.6647735811189236,0.08706567760727463,0.057105600863915015
0002,cdot_cos,T,S-T,4,0,1731,-0.023370394186021243,0.0034954034741924486,-0.019826585838394674,0.3785600326796109,919.0,0.0176179293122019,0.5022022269227583,1.0044044538467385,-3.0002930007911873e-05,0.25,1.0,-0.04146873026303418,0.0198685661911926,4,2026-10-07 19:46:17.815244,25.0,0.5221877651357122,0.031158531135823855,0.022468944835321775
0002,cdot_cos,P,T-P,5,1,2211,0.012386214814758488,-0.0001449552642390519,0.03575660900077973,0.7096974762830762,979.0,0.027579958671283385,0.5030834940243717,1.1249288910073405,-8.119588007665757e-05,0.48,0.9999999999999999,-0.05809016355543381,0.024835707963047488,5,2026-10-07 19:46:18.295244,25.0,0.532332470790944,0.0179287079349788,0.02075422783141976
0002,cdot_cos,Q,P-Q,6,1,2340,-0.007283479319080725,-0.007816312945469075,-0.019669694133839212,0.37948319971522443,979.0,0.03482948892978155,0.5035547099144095,1.2334520969206826,-8.158734599776553e-05,0.129,0.9999999999999999,-0.0008307570465769279,0.02980284955952765,6,2026-10-07 19:46:18.424243,25.0,0.9952133720463062,0.086756890481325,0.05619790898060592
0002,cdot_cos,R,Q-R,7,1,2365,0.10222953367789236,0.15646706865719553,0.1095130129969731,0.9392220761112545,979.0,0.04996323641546523,0.504720941754022,1.335366093445602,-0.00023139336979037786,0.025,1.0000000000000002,-0.1284530388420769,0.03476999107305816,7,2026-10-07 19:46:18.449243,25.0,0.5234004370004326,0.39105658235344315,0.6053498994273473
0002,cdot_cos,S,R-S,8,1,2420,-0.001857599095163711,-0.00774408210863433,-0.10408713277305608,0.06899835892703872,979.0,0.05438231804745371,0.5048066151296962,1.4278087230664485,-8.314772871965505e-05,0.055,1.0,1.730358351171163,0.039737132672114074,8,2026-10-07 19:46:18.504243,25.0,0.16814665934513182,0.08680814191957106,0.0803469387634268
0002,cdot_cos,T,S-T,9,1,2650,-0.08047785799074783,0.027952032771571923,-0.07862025889558412,0.12287235547607979,979.0,0.05951213202661805,0.5049591816716796,1.514877545123649,-0.00010535278127642108,0.23,0.9999999999999999,-0.1455433954790074,0.044704274665798696,9,2026-10-07 19:46:18.734244,25.0,0.8099615137887625,0.04918808225348012,0.022303539039844972
0002,cdot_cos,P,T-P,10,2,3190,0.011564334623966152,-0.00010880928206204036,0.09204219261471398,0.9089643606681181,959.0,0.07700883588405456,0.5060877821024397,1.6003900876737447,-0.0004307008861947601,0.54,1.0000000000000002,-0.288275722789902,0.04967141767694778,10,2026-10-07 19:46:19.274244,25.0,0.46982629639928364,0.025557105016980268,0.03240130343969724
0002,cdot_cos,Q,P-Q,11,2,3319,-0.007132784758054942,-0.007978127297655,-0.018697119382021093,0.3852251855510736,959.0,0.08711380544495674,0.506566072474196,1.6800895945598537,-0.0002990288959504778,0.129,0.9999999999999997,0.2752971793280127,0.054638559495947515,11,2026-10-07 19:46:19.403244,25.0,0.6438226398561963,0.11614975949793475,0.0783330973713347
0002,cdot_cos,R,Q-R,12,2,3347,0.09583243458282194,0.16254221826549695,0.10296521934087688,0.929177989871209,959.0,0.10697547383452173,0.507719676128913,1.7587925508815725,-0.0006950215798111343,0.028,0.9999999999999999,-0.3432658021162544,0.059605700945766726,12,2026-10-07 19:46:19.431243,25.0,0.5656634692708145,0.4582936759772164,0.7093452996273211
0002,cdot_cos,S,R-S,13,2,3399,-0.0018036616406878286,-0.008522189050613006,-0.09763609622350977,0.08010638928452712,959.0,0.11277825129968086,0.5078191270531822,1.83096790203319,-0.000229906098540447,0.052,0.9999999999999998,4.676834174125934,0.06457284259304635,13,2026-10-07 19:46:19.483244,25.0,0.13224921090965527,0.13498725439643355,0.11159187432998324
0002,cdot_cos,T,S-T,14,2,3629,-0.053825460522427794,0.011390270736160099,-0.05202179888173997,0.21407331334206112,959.0,0.12101414829175082,0.5080848929189588,1.9010795935593845,-0.00034714609178436125,0.23,1.0,-0.44114014755564457,0.06953998540573317,14,2026-10-07 19:46:19.713243,25.0,0.7133912804123543,0.06198607342278758,0.03580824779160852
0002,cdot_cos,P,T-P,15,3,4149,0.010535875306543919,-8.042356749815712e-05,0.06436133582897172,0.8332771428810785,998.0,0.14129184507416315,0.509119337653604,1.9718107173052777,-0.0009588858250525221,0.52,0.9999999999999996,-0.591370145528343,0.07450713060891952,15,2026-10-07 19:46:20.233243,25.0,0.5283642766252727,0.03150394617943287,0.03899557073540832
0002,cdot_cos,Q,P-Q,16,3,4278,-0.006479306386248942,-0.00680464264165254,-0.017015181692792862,0.39523019222653244,998.0,0.153778252318361,0.5096099565267461,2.0384398287405117,-0.0006641815190173113,0.129,0.9999999999999994,0.600678698207791,0.0794742728303079,16,2026-10-07 19:46:20.362243,25.0,0.6416511595420686,0.13973773586596777,0.09679385460618496
0002,cdot_cos,R,Q-R,17,3,4308,0.09099060633085064,0.14640073998192538,0.09746991271709958,0.919586927264176,998.0,0.17734418092758283,0.5107514122069462,2.1058820239564446,-0.0014065554655372904,0.03,0.9999999999999994,-0.6503747446329712,0.08444141419313363,17,2026-10-07 19:46:20.392244,25.0,0.5899038542749417,0.5097486409268808,0.7855309536407276
0002,cdot_cos,S,R-S,18,3,4357,-0.002000110783452017,-0.007468754653746403,-0.09299071711430265,0.08909235973375972,998.0,0.18436317077397385,0.5108619941152054,2.167403884771309,-0.0004576268486745803,0.049,0.9999999999999997,8.581228446868124,0.08940855586884057,18,2026-10-07 19:46:20.441243,25.0,0.12573409254452458,0.15134481905299063,0.1432446907426738
0002,cdot_cos,T,S-T,19,3,4588,-0.07892524134362942,0.03136919682381015,-0.07692513056017741,0.12751313017353225,998.0,0.19217597319477592,0.5110202622346836,2.2274856843806785,-0.0005302619926617163,0.231,0.9999999999999992,-0.45893730352407536,0.09437569987141915,19,2026-10-07 19:46:20.672243,25.0,0.8719879021293453,0.07147852444552849,0.03382165550130765
0002,cdot_cos,P,T-P,20,4,5147,0.013694092677068182,-0.00010528236032347685,0.09261933402069761,0.9101512710232539,939.0,0.217386249067808,0.5121498675370186,2.2904038412795877,-0.0018609106619845847,0.559,0.9999999999999992,-1.1779766495183754,0.09934284879587545,20,2026-10-07 19:46:21.231244,25.0,0.4891664697889173,0.034964301206360716,0.04509888349379623
0002,cdot_cos,Q,P-Q,21,4,5276,-0.006922224848744936,-0.008018075328083426,-0.020616317525813117,0.3739266367564918,939.0,0.2312660619434872,0.5126139193830843,2.349092095223052,-0.0011222809216085042,0.129,0.9999999999999986,1.5916965887288668,0.10430999156371223,21,2026-10-07 19:46:21.360243,25.0,0.5178081398645085,0.15966798758079068,0.10759544864867587
0002,cdot_cos,R,Q-R,22,4,5300,0.10229905931394694,0.16900484616583178,0.10922128416269188,0.9388044140625507,939.0,0.258580589863652,0.5137789003830567,2.4098366595186724,-0.0024110624099996716,0.024,0.9999999999999982,-1.1062682467968816,0.1092771326570243,22,2026-10-07 19:46:21.384243,25.0,0.5859455189909403,0.7245547846198344,1.138105330006867
0002,cdot_cos,S,R-S,23,4,5356,-0.0015552962760355853,-0.008848522585118123,-0.10385435558998252,0.06937312395330414,939.0,0.26604469160523925,0.5138649810822922,2.46440988311645,-0.0007056303274562153,0.056,0.9999999999999983,19.812014745361218,0.11424427450884031,23,2026-10-07 19:46:21.440243,25.0,0.08919844242076211,0.139401772893498,0.1332875310997721
0002,cdot_cos,T,S-T,24,4,5587,-0.08956391110485672,0.01867006793429812,-0.08800861482882114,0.09973115042522547,939.0,0.2741935884277238,0.5139887296841157,2.518020251000584,-0.0007932839233373169,0.231,0.9999999999999984,-0.7083198887863776,0.1192114200504711,24,2026-10-07 19:46:21.671244,25.0,0.8953911584199151,0.07963769707454395,0.0352766096211452
0002,cdot_cos,P,T-P,25,5,6086,0.011315543996337638,-6.138965779929548e-05,0.10087945510119435,0.9256688452108837,979.0,0.30283730765367856,0.5151372360872605,2.575686190949627,-0.0029779321248526247,0.499,0.9999999999999977,-1.902164581349657,0.1241785720571135,25,2026-10-07 19:46:22.170244,25.0,0.4801712393193201,0.04431611616478381,0.057402242937785106
0002,cdot_cos,Q,P-Q,26,5,6215,-0.008521872251313846,-0.009273039130982572,-0.019837416247651486,0.37849633779787134,979.0,0.318421072360178,0.515606803019506,2.6290891653051363,-0.0017442384642281207,0.129,0.9999999999999964,2.627300978637501,0.12914571558610916,26,2026-10-07 19:46:22.299244,25.0,0.49297518420602315,0.17690845194106722,0.12080437756976332
0002,cdot_cos,R,Q-R,27,5,6242,0.09469831970795416,0.14823229027500734,0.103220191959268,0.9295963138551085,979.0,0.3484796882544739,0.5167599523053701,2.685163494772044,-0.0036109918038955157,0.027,0.9999999999999966,-1.618830590757904,0.13411285655750768,27,2026-10-07 19:46:22.326244,25.0,0.5963281604779418,0.7146412223966015,1.1132820701591064
0002,cdot_cos,S,R-S,28,5,6295,-0.0022841434006150526,-0.009729079953166627,-0.09698246310856921,0.08131882641018448,979.0,0.3570116983695945,0.5168608186910141,2.7349703940930117,-0.0010842601363628495,0.053,0.9999999999999959,25.050284605723046,0.13907999845852356,28,2026-10-07 19:46:22.379244,25.0,0.09725936200839604,0.19750776553068636,0.16098132292680403
0002,cdot_cos,T,S-T,29,5,6526,-0.05119055193674959,0.014031488219988359,-0.04890640853613454,0.2274686412789938,979.0,0.36941551140072665,0.5171429593125149,2.7849000819796523,-0.0016230094269073026,0.231,0.9999999999999957,-1.9095062868958794,0.14404714603838936,29,2026-10-07 19:46:22.610244,25.0,0.7175270393600921,0.08953290779387857,0.05369616030793133
0002,cdot_cos,P,T-P,30,6,7065,0.012905302807249506,-0.00010907158363403776,0.06409585474399909,0.8323530442685066,939.0,0.3983759017703664,0.5181752734927457,2.8381628809089037,-0.004004589223408768,0.539,0.9999999999999954,-2.307030012867647,0.14901430453738454,30,2026-10-07 19:46:23.149244,25.0,0.5517210901624661,0.04293990310271684,0.05372985226278249
0002,cdot_cos,Q,P-Q,31,6,7194,-0.0052437529436849,-0.006020720311425852,-0.018149055750934406,0.38847514869487576,939.0,0.4157047269454554,0.5186570217800918,2.887760111750385,-0.002540481207817963,0.129,0.9999999999999939,3.039155621406778,0.15398144896602348,31,2026-10-07 19:46:23.278244,25.0,0.5619674801238391,0.19480652443895005,0.13433197810146505
0002,cdot_cos,R,Q-R,32,6,7212,0.1015798986149091,0.15750551146730946,0.106823651558594,0.9352688378558264,939.0,0.44863598507561553,0.5198167052868282,2.9405273696414733,-0.005125014695900498,0.018,0.9999999999999934,-2.2286541742374624,0.1589485893038633,32,2026-10-07 19:46:23.296243,25.0,0.60392952331019,1.1629350722683542,1.8295143405644514
0002,cdot_cos,S,R-S,33,6,7255,-0.002298375702485044,-0.00728064826581821,-0.10387827431739415,0.06933452877154352,939.0,0.45757038954711615,0.5199026680593255,2.986613478059833,-0.0014577686434009709,0.043,0.9999999999999923,42.66086290568887,0.16391573086918645,33,2026-10-07 19:46:23.339243,25.0,0.08080979383308029,0.2227853618993986,0.20777684817443312
0002,cdot_cos,T,S-T,34,6,7505,-0.08374539513900776,0.017879772944206857,-0.08144701943652272,0.11545674215806129,939.0,0.4677955261989638,0.5200458117476203,3.0323621432540615,-0.001703603610508985,0.25,0.9999999999999916,-1.7173999778578184,0.16888288159629625,34,2026-10-07 19:46:23.589243,25.0,0.865625497339447,0.08802621967037849,0.04090054660739062
0002,cdot_cos,P,T-P,35,7,8004,0.012551259355885155,-0.00010209917784772477,0.09629665449489291,0.9173910927620096,920.0,0.5015834993823054,0.5211830776608973,3.083360706426867,-0.005896035630693395,0.499,0.9999999999999912,-3.6864131521395946,0.1738500445011991,35,2026-10-07 19:46:24.088243,25.0,0.49112358689014995,0.05247595948908744,0.06771136910489296
0002,cdot_cos,Q,P-Q,36,7,8094,-0.006218611336642952,-0.0043300465679881805,-0.018769870692528105,0.3847945391713824,920.0,0.5201665337690731,0.5216600327820071,3.129960246038102,-0.0034176695391539063,0.09,0.9999999999999889,5.196224931546537,0.1788171880636006,36,2026-10-07 19:46:24.178244,25.0,0.4842458294837449,0.29992643575379574,0.20647815985297413
0002,cdot_cos,R,Q-R,37,7,8150,0.0999646574304599,0.16060183266874634,0.10618326876710285,0.9342928213783535,920.0,0.5555702578179886,0.5228179282345411,3.1801773552530896,-0.006853842217151532,0.056,0.9999999999999883,-2.9676018421851453,0.18378433014204,37,2026-10-07 19:46:24.234244,25.0,0.6057124945404916,0.40238046801709215,0.6322093580163494
0002,cdot_cos,S,R-S,38,7,8194,-0.002277669513056096,-0.007943370933536,-0.102242326943516,0.07202054462640739,920.0,0.5652331461869874,0.5229071753064617,3.223416365994193,-0.0019489847142371002,0.044,0.9999999999999871,54.958189634259156,0.18875147175641835,38,2026-10-07 19:46:24.278244,25.0,0.08073187157616583,0.2668697497340909,0.2196110992954263
0002,cdot_cos,T,S-T,39,7,8444,-0.05591101313469742,0.011808123728436272,-0.05363334362164133,0.20737300832321942,920.0,0.5790547957945886,0.5231641414833017,3.267159069478522,-0.0028460768313671664,0.25,0.9999999999999861,-3.49109026005628,0.1937186255826088,39,2026-10-07 19:46:24.528243,25.0,0.7296407007210641,0.09604725628982735,0.055286598430404954
0002,cdot_cos,P,T-P,40,8,8924,0.01470910654241397,-0.00023572679140982744,0.07062011967711139,0.8538975323043954,839.0,0.6132567743319011,0.5242221175702162,3.3154718436775505,-0.007336773648279553,0.48,0.9999999999999853,-4.2446108871979975,0.19868579435006792,40,2026-10-07 19:46:25.008243,25.0,0.5422215484804295,0.05580180280499875,0.07125412195273426
0002,cdot_cos,Q,P-Q,41,8,9052,-0.006680128999844666,-0.009398785957014296,-0.021389235542258633,0.3694141609401741,839.0,0.6326245264873874,0.5246797536318996,3.35958972484925,-0.004340912668647317,0.128,0.9999999999999822,6.5463830988587075,0.20365294113111085,41,2026-10-07 19:46:25.136243,25.0,0.5015031371706676,0.22027001255480946,0.1513105637147372
0002,cdot_cos,R,Q-R,42,8,9075,0.08677359931454148,0.17816229474560602,0.09345372831438614,0.9118425737569902,839.0,0.6696458975459323,0.525809179509617,3.4076330308729315,-0.00867120641308105,0.023,0.9999999999999811,-3.8340663427909925,0.20862008099558413,42,2026-10-07 19:46:25.159244,25.0,0.6069021579250029,1.0495068400767686,1.6096248286323853
0002,cdot_cos,S,R-S,43,8,9133,-0.00011976219338862171,-0.009708767709720137,-0.0868933615079301,0.10226255827527937,839.0,0.6809018411309188,0.5259358276423935,3.4487919391523953,-0.00273404892584054,0.058,0.9999999999999793,46.87915531859527,0.21358722366648486,43,2026-10-07 19:46:25.217243,25.0,0.11399938009417702,0.18503387142186106,0.19406799284459472
0002,cdot_cos,T,S-T,44,8,9363,-0.10303779346910873,-0.013787522387046645,-0.1029180312757201,0.0708996811886631,839.0,0.6911098266308682,0.5260236321348725,3.4892461206968313,-0.0025188617788590847,0.23,0.9999999999999774,2.4507532690668157,0.21855437934907618,44,2026-10-07 19:46:25.447244,25.0,0.9181171228155739,0.10772561359131043,0.04438254565195387
0002,cdot_cos,P,T-P,45,9,9763,0.011848249054223646,-7.885278023068492e-05,0.11488604252333237,0.9464524690368483,799.0,0.7304556233829216,0.5271955936721912,3.53653564788634,-0.010056874561537494,0.4,0.9999999999999765,-6.431962605124826,0.22352154906760413,45,2026-10-07 19:46:25.847244,25.0,0.4725846890696919,0.0755921399354631,0.09836449188013352
0002,cdot_cos,Q,P-Q,46,9,9872,-0.006455763757335282,-0.007376266633384117,-0.01830401281155893,0.387555248743136,799.0,0.7515835385792387,0.5276754050859276,3.5788688326542064,-0.0056294799938946625,0.109,0.9999999999999735,9.22736400363098,0.2284886958341336,46,2026-10-07 19:46:25.956243,25.0,0.45545152385936083,0.26582610014783864,0.1938340843698814
0002,cdot_cos,R,Q-R,47,9,9923,0.06068451154389524,0.19108487555269607,0.06714027530123053,0.8427067165075658,799.0,0.7884057132151504,0.5287185375486103,3.624711790211041,-0.010192402368145066,0.051,0.9999999999999717,-4.37425019111713,0.23345583794655278,47,2026-10-07 19:46:26.007244,25.0,0.6391099386353496,0.5042307439671808,0.7220034242335638
0002,cdot_cos,S,R-S,48,9,9972,0.0005935230072105095,-0.009076335937169559,-0.06009098853668473,0.18208650342214763,799.0,0.8030150744638911,0.5289438980892849,3.6646309410002362,-0.0041787177961274975,0.049,0.9999999999999697,26.684727299716684,0.23842298015290006,48,2026-10-07 19:46:26.056243,25.0,0.23713588055794657,0.2469578493823547,0.29815022956613635
0002,cdot_cos,T,S-T,49,9,10202,-0.13027872533145837,-0.049939128614504336,-0.1308722483386689,0.036551169045361855,799.0,0.8126075824546212,0.5289891344614627,3.7029240606165117,-0.0027854433166795323,0.23,0.9999999999999669,30.799872146510214,0.24339013944921803,49,2026-10-07 19:46:26.286243,25.0,0.606410294786083,0.1130960080176066,0.041706556481435134
0002,cdot_cos,P,T-P,50,10,10562,0.013403338852360383,-0.00016977356702487526,0.14368206418381876,0.973196449553519,839.0,0.8550392381519901,0.5301934021314443,3.7490336322407143,-0.012714287584212128,0.36,0.999999999999966,-8.244715452407887,0.24835731216123588,50,2026-10-07 19:46:26.646244,25.0,0.45798437059143,0.08938598091985954,0.11786571027046931
0002,cdot_cos,Q,P-Q,51,10,10690,-0.0064729021137718105,-0.009114052867381294,-0.01987624096613219,0.3782680396181153,839.0,0.87696548871692,0.5306613902735388,3.7896804920859615,-0.006822786172026248,0.128,0.9999999999999624,12.58899720368663,0.25332446234157047,51,2026-10-07 19:46:26.774244,25.0,0.4216820245932707,0.2482763442344751,0.17129883253851497
0002,cdot_cos,R,Q-R,52,10,10708,0.0931316457839061,0.1890090729552128,0.09960454789767792,0.9234458407189232,839.0,0.9185979822760157,0.5318036369441272,3.8348907238996186,-0.013426322206977058,0.018,0.9999999999999604,-5.781182125528682,0.2582916011411635,52,2026-10-07 19:46:26.792243,25.0,0.6115032167286601,1.486959977403449,2.3129163088386506
0002,cdot_cos,S,R-S,53,10,10751,-0.0014416664174080605,-0.009033215406482798,-0.09457331220131417,0.08593324703845719,839.0,0.9304960479034442,0.5319099144107775,3.8723627888369294,-0.003951367533634654,0.043,0.9999999999999574,89.15299707437137,0.2632587430063631,53,2026-10-07 19:46:26.835244,25.0,0.0909093406882994,0.27435426841250404,0.27669920063787107
0002,cdot_cos,T,S-T,54,10,11002,-0.09855711148468266,-0.012652102798383393,-0.0971154450672746,0.08107080785798632,839.0,0.9421924493594911,0.5320101756289254,3.9094605673368075,-0.0039338581971333905,0.251,0.9999999999999547,0.17463718100290845,0.2682259088155781,54,2026-10-07 19:46:27.086244,25.0,0.995558958422452,0.10952808504566125,0.04659920898823462
0002,cdot_cos,P,T-P,55,11,11401,0.011036487252324189,-9.192378715089757e-05,0.10959359873700684,0.9393369782431079,999.0,0.9854791465963662,0.5331716741380857,3.954107143831303,-0.014981534826873718,0.399,0.999999999999953,-9.511571941428139,0.27319309307557144,55,2026-10-07 19:46:27.485244,25.0,0.4783466752724602,0.08365058613423207,0.10848796299968687
0002,cdot_cos,Q,P-Q,56,11,11490,-0.006624353978547548,-0.004138324350331947,-0.017660841230871735,0.39137859780803513,999.0,1.0089456170946083,0.5336555118703796,3.993512387014983,-0.008401906042609217,0.089,0.9999999999999479,13.598833545020188,0.27816024024971614,56,2026-10-07 19:46:27.574244,25.0,0.45698192271369814,0.38208735178307246,0.2636682078454172
0002,cdot_cos,R,Q-R,57,11,11547,0.1100539771422413,0.1489954671610108,0.11667833112078885,0.9486784066248811,999.0,1.053490695213753,0.5348280412240319,4.037863379443751,-0.01648741267121189,0.057,0.9999999999999472,-6.895781844110904,0.28312738377199065,57,2026-10-07 19:46:27.631244,25.0,0.6123784415046917,0.4899542916795207,0.7814925985814871
0002,cdot_cos,S,R-S,58,11,11590,-0.0031307306511786726,-0.007782595140650556,-0.11318470779341998,0.05574451793364125,999.0,1.0648004063460736,0.5348969274202242,4.073653854499289,-0.004299332253159345,0.043,0.9999999999999427,176.93066378688155,0.28809452572004735,58,2026-10-07 19:46:27.674243,25.0,0.05872571726483706,0.4020025843607544,0.2630165379609442
0002,cdot_cos,T,S-T,59,11,11841,-0.02439381760029591,0.009843503199465862,-0.021263086949117237,0.3701491124826134,999.0,1.088062917468778,0.5353543046846632,4.112134663538036,-0.008986297892419623,0.251,0.99999999999994,-10.247482775536755,0.2930616967119104,59,2026-10-07 19:46:27.925244,25.0,0.5935890556812478,0.1181889277108566,0.09267932718208875
0002,cdot_cos,P,T-P,60,12,12400,0.009267660011894493,-6.545189513488411e-05,0.033661477612190405,0.698788814624009,1179.0,1.1241312480569237,0.5362176051393803,4.153523954512373,-0.014313609079263427,0.559,0.9999999999999373,-6.170865725524431,0.2980289130322726,60,2026-10-07 19:46:28.484244,25.0,0.6892266952948072,0.054788295180599106,0.06452295275160239
0002,cdot_cos,Q,P-Q,61,12,12489,-0.005504490985007236,-0.0028238681819994765,-0.014772150996901729,0.4087092647977981,1179.0,1.1493162314806877,0.5367224341042384,4.1919365176017855,-0.01026980396856658,0.089,0.9999999999999291,8.010247811026424,0.30299606098489223,61,2026-10-07 19:46:28.573244,25.0,0.674518081494726,0.4012459364753506,0.2829773418400458
0002,cdot_cos,R,Q-R,62,12,12546,0.10621546300550173,0.10780796841736273,0.11171995399050896,0.9422963205186661,1179.0,1.195553024749536,0.5378860499203302,4.235319300136618,-0.019439730413179895,0.057,0.9999999999999267,-7.880544693361049,0.3079632045526799,62,2026-10-07 19:46:28.630244,25.0,0.6239340678283083,0.5107332145679541,0.8111718117341812
0002,cdot_cos,S,R-S,63,12,12589,-0.003518493596426707,-0.00556323568534601,-0.10973395660192845,0.06046337935844163,1179.0,1.2075398179414345,0.5379607005313024,4.2699309980487286,-0.005164729397437322,0.043,0.9999999999999204,191.22416856110527,0.3129303462307033,63,2026-10-07 19:46:28.673243,25.0,0.0630429035043511,0.44598077386484647,0.27876263236973114
0002,cdot_cos,T,S-T,64,12,12840,-0.01588439846376287,0.016475759226657116,-0.012365904867336162,0.4233228083694897,1179.0,1.2339073713019129,0.5384833046719574,4.307866751912478,-0.011540413417893929,0.251,0.9999999999999163,-12.199834491296002,0.31789752238057084,64,2026-10-07 19:46:28.924243,25.0,0.5755289056505767,0.12459568593809034,0.10505001338836
0002,cdot_cos,P,T-P,65,13,13579,0.011299991045541451,-0.00011467764023379716,0.02718438950930432,0.6636515893445993,879.0,1.2700868522823558,0.5393024309316959,4.3479955450873815,-0.016236353285122858,0.739,0.9999999999999118,-5.7328645143517765,0.32286478283015313,65,2026-10-07 19:46:29.663244,25.0,0.7488445919083287,0.04157272161591732,0.048957349093968865
0002,cdot_cos,Q,P-Q,66,13,13688,-0.0074517720287548645,-0.007346569262548378,-0.018751763074296317,0.38490170912994903,879.0,1.2953518538502387,0.5397774071971136,4.385172820312515,-0.011614704066598255,0.109,0.9999999999998986,9.730274026345784,0.32783193474579253,66,2026-10-07 19:46:29.772243,25.0,0.671720032247089,0.33379295070202164,0.231789005209934
0002,cdot_cos,R,Q-R,67,13,13720,0.09472938149638363,0.16197072328744536,0.1021811535251385,0.9278771774775617,879.0,1.3428537155353966,0.5409221272336517,4.4276388790171755,-0.022448374993841547,0.032,0.9999999999998935,-9.464035381093613,0.3327990732938284,67,2026-10-07 19:46:29.804243,25.0,0.6171743034828019,0.9501267899865024,1.4844331776611845
0002,cdot_cos,S,R-S,68,13,13768,-0.002367543973377884,-0.010476916091845617,-0.09709692546976151,0.08110530652681949,879.0,1.3561599684093748,0.5410221663269632,4.461383521837135,-0.006432979555616694,0.048,0.9999999999998844,160.09136936459285,0.33776621523216616,68,2026-10-07 19:46:29.852243,25.0,0.08294507720717925,0.3215179375250672,0.2772136015412134
0002,cdot_cos,T,S-T,69,13,14019,-0.061738964144784775,0.004607853170078242,-0.05937142017140689,0.18478099163159728,879.0,1.373719437537803,0.5412500715177853,4.495961210349022,-0.008585653560044083,0.251,0.9999999999998764,-9.44548036252576,0.34273339615424936,69,2026-10-07 19:46:30.103244,25.0,0.778233092549747,0.12638835724418274,0.06995804433636736
0002,cdot_cos,P,T-P,70,14,14458,0.012732057474375433,-5.193536290388702e-05,0.07447102161916021,0.8655037675458892,999.0,1.4196069237459545,0.5423173353571576,4.537352846258533,-0.022949775087773676,0.439,0.9999999999998709,-13.458829014741557,0.3477006152563444,70,2026-10-07 19:46:30.542243,25.0,0.5347832351745462,0.08202477004992735,0.10452730343542489
0002,cdot_cos,Q,P-Q,71,14,14588,-0.006357913641097593,-0.006730673794552846,-0.019089971115473024,0.3829018782416282,999.0,1.4457371856416392,0.5427893732881468,4.573625102359124,-0.013403330841726884,0.13,0.9999999999998581,20.22389223264796,0.352667773411943,71,2026-10-07 19:46:30.672243,25.0,0.4905421015770199,0.28961865422483674,0.20100201458218986
0002,cdot_cos,R,Q-R,72,14,14618,0.09466204965796152,0.15294527899046342,0.10101996329905912,0.9259101794047546,999.0,1.494907773844412,0.5439305077533202,4.615403971022517,-0.025874202434325408,0.03,0.9999999999998533,-10.92848561953096,0.357634911251391,72,2026-10-07 19:46:30.702244,25.0,0.6175588518583559,1.0499011885744833,1.6390196067590956
0002,cdot_cos,S,R-S,73,14,14667,-0.0019825315561052396,-0.00751388611588195,-0.09664458121406676,0.08195210807386816,999.0,1.5087312569561082,0.5440314872802913,4.648207630763625,-0.00742965513881492,0.049,0.9999999999998423,182.6563051814761,0.3626020536190884,73,2026-10-07 19:46:30.751244,25.0,0.08352931234974308,0.3021023501394041,0.28211190023869637
0002,cdot_cos,T,S-T,74,14,14898,-0.078610507629799,0.031040817576107986,-0.07662797607369376,0.1283419068672539,999.0,1.5245138041580737,0.5441896199877415,4.681296688691064,-0.00856571460583255,0.231,0.999999999999832,-7.184215620763324,0.3675692362183135,74,2026-10-07 19:46:30.982244,25.0,0.8757902255069473,0.1404474793440385,0.06832271516002372
0002,cdot_cos,P,T-P,75,15,15457,0.010563806403221269,-8.847858734090115e-05,0.08917431403302027,0.9028550520857789,999.0,1.573617992413054,0.5453017927305801,4.722452659871293,-0.02720966074342899,0.559,0.9999999999998271,-16.763534493761846,0.3725364941845408,75,2026-10-07 19:46:31.541243,25.0,0.5039915221299933,0.06855198986043093,0.08784291279960699
0002,cdot_cos,Q,P-Q,76,15,15546,-0.006582650681139452,-0.004114122802290268,-0.01714645708436072,0.3944460156724463,999.0,1.6011549288220355,0.5457875458420396,4.758066218388124,-0.015633473570378108,0.089,0.9999999999998112,23.831421559543397,0.3775036450317747,76,2026-10-07 19:46:31.630244,25.0,0.47688761991981043,0.44314139512464484,0.3094037798761963
0002,cdot_cos,R,Q-R,77,15,15602,0.1014330410976624,0.13622843201420043,0.10801569177880184,0.9370497883740504,999.0,1.6524971607452408,0.5469411545664112,4.79938986990901,-0.029859711411955196,0.056,0.999999999999806,-12.331943700690985,0.3824707886449838,77,2026-10-07 19:46:31.686244,25.0,0.6209927457931687,0.580832634952124,0.9168255700572376
0002,cdot_cos,S,R-S,78,15,15646,-0.0028209293614165167,-0.007007197166353283,-0.10425397045907892,0.06873090885263336,999.0,1.6662081839366734,0.5470257499909856,4.831201334794872,-0.008133254934206366,0.044,0.9999999999997919,256.8277963856284,0.38743792974829167,78,2026-10-07 19:46:31.730243,25.0,0.06916146871489681,0.3475303067995655,0.3116141634416496
0002,cdot_cos,T,S-T,79,15,15897,-0.07510248344080228,0.03072094746904934,-0.07228155407938576,0.14099638822423574,999.0,1.6830798277436025,0.5471992827559408,4.86361433777636,-0.010099667049014124,0.251,0.9999999999997791,-11.3316474575634,0.3924051230811078,79,2026-10-07 19:46:31.981244,25.0,0.8230809798735624,0.13405254685458842,0.06721770441007642
0002,cdot_cos,P,T-P,80,16,16456,0.011007103424214501,-9.213385271208868e-05,0.08610958686501678,0.8959245114588151,1000.0,1.7335025624576768,0.5483016813486584,4.904160101891213,-0.030777325501599537,0.559,0.9999999999997733,-18.756971016817428,0.39737239718671474,80,2026-10-07 19:46:32.540244,25.0,0.5107642472221227,0.07048641916222996,0.09020167211820074
0002,cdot_cos,Q,P-Q,81,16,16546,-0.006339969834309284,-0.0039603310508919375,-0.017347073258523783,0.3932486808058122,1000.0,1.7618836443669756,0.5487854088170246,4.93906956861024,-0.017719617342312154,0.09,0.9999999999997539,26.993935662552772,0.40233954947096223,81,2026-10-07 19:46:32.630244,25.0,0.47859196465932263,0.4510193829482651,0.31534535454776547
0002,cdot_cos,R,Q-R,82,16,16602,0.09892531508778701,0.1330688657167143,0.1052652849220963,0.9328698312506408,1000.0,1.8146860513883645,0.5499325432949371,4.979851883144631,-0.03371723665861572,0.056,0.999999999999747,-13.945722689301016,0.40730669322151697,82,2026-10-07 19:46:32.686244,25.0,0.6222183960707309,0.5992904649572793,0.9429001253819433
0002,cdot_cos,S,R-S,83,16,16646,-0.0029565959549848067,-0.007331165020540659,-0.10188191104277182,0.07262506891777498,1000.0,1.829004176442191,0.5500218270190178,5.010938233347202,-0.00931415606799137,0.044,0.9999999999997302,273.32059501206385,0.4122738340985047,83,2026-10-07 19:46:32.730243,25.0,0.07280292776203592,0.3691562116210937,0.32541193304151045
0002,cdot_cos,T,S-T,84,16,16896,-0.06995254856308439,0.028787944956748763,-0.06699595260809958,0.15777213199801404,1000.0,1.8471717980110207,0.550215777631154,5.042811815443141,-0.01192274239306091,0.25,0.9999999999997153,-13.44974525389637,0.4172410338531208,84,2026-10-07 19:46:32.980243,25.0,0.8034897920724152,0.13883362696513224,0.07267048627531913
0002,cdot_cos,P,T-P,85,17,17456,0.009637577279068842,-7.504778731654757e-05,0.07959012584215323,0.8797170191338757,1018.0,1.898420989924757,0.5512969397212923,5.082707616389639,-0.03425285086149599,0.56,0.9999999999997078,-20.653802674100834,0.42220832545665005,85,2026-10-07 19:46:33.540244,25.0,0.5210445635976639,0.07218560600962859,0.09151641413167202
0002,cdot_cos,Q,P-Q,86,17,17585,-0.006442531221188404,-0.006545366553285222,-0.016080108500257248,0.4008312619297377,1018.0,1.9280196767418047,0.5517893966333997,5.117085458916286,-0.02020539913373381,0.129,0.9999999999996849,28.52524024416815,0.42717549077909256,86,2026-10-07 19:46:33.669244,25.0,0.49895838778232926,0.32366345465888835,0.22944718462827668
0002,cdot_cos,R,Q-R,87,17,17615,0.09250412930209993,0.1415898244952165,0.09894666052328834,0.9222750018136298,1018.0,1.9819261612267502,0.5529221064523074,5.157315205152002,-0.03758403699391755,0.03,0.9999999999996764,-15.342533074305905,0.4321426264718304,87,2026-10-07 19:46:33.699244,25.0,0.6297740819761889,1.1539855607133997,1.7968828161648502
0002,cdot_cos,S,R-S,88,17,17664,-0.002390529641849268,-0.008060741379939824,-0.0948946589439492,0.08530430815496959,1018.0,1.9972588103846087,0.5530268470154484,5.187852810769088,-0.010878863228114077,0.049,0.999999999999656,254.96496261792214,0.43710976867100576,88,2026-10-07 19:46:33.748243,25.0,0.08588241985051702,0.38727537035482373,0.3129112073032343
0002,cdot_cos,T,S-T,89,17,17915,-0.048226995974878895,0.01912801851567488,-0.045836466333029624,0.2412366274348167,1018.0,2.019879147521523,0.5533230229654712,5.220040098854592,-0.0162006582707846,0.251,0.9999999999996395,-17.96835645250732,0.44207697593425754,89,2026-10-07 19:46:33.999244,25.0,0.7200083146837689,0.14435370684343096,0.09012086508730777
0002,cdot_cos,P,T-P,90,18,18474,0.01178976373102768,-5.193429091148677e-05,0.06001675970590657,0.8176369591455049,1019.0,2.069724371220011,0.5543265861479623,5.258804943731581,-0.03632718248744924,0.559,0.9999999999996294,-20.055064362471143,0.4470442858682464,90,2026-10-07 19:46:34.558244,25.0,0.5746266084820121,0.07100166938624378,0.08916855760015759
0002,cdot_cos,Q,P-Q,91,18,18603,-0.007571578676368104,-0.007709851759108636,-0.019361342407395784,0.3813001121726529,1019.0,2.0992590138953435,0.5547944409486616,5.292403018439089,-0.021938103999915984,0.129,0.9999999999996018,30.75543622941361,0.45201145395495074,91,2026-10-07 19:46:34.687244,25.0,0.5189777066831365,0.33106625536450773,0.2289507184134299
0002,cdot_cos,R,Q-R,92,18,18630,0.0967991162555416,0.13909509184204116,0.10437069493190972,0.9314556357489567,1019.0,2.155139465104054,0.5559369260032261,5.332361059140308,-0.04233628750733187,0.027,0.9999999999995919,-17.854223498084682,0.45697858776125333,92,2026-10-07 19:46:34.714243,25.0,0.6176624106732753,1.3197538679046243,2.0696463410633537
0002,cdot_cos,S,R-S,93,18,18683,-0.0023566215897424993,-0.008093340685882218,-0.0991557378452841,0.07735113768087928,1019.0,2.1705257227621932,0.55603177529309,5.362177643560903,-0.011851735149272853,0.053,0.9999999999995679,321.3999008510824,0.46194573129204636,93,2026-10-07 19:46:34.767244,25.0,0.07637045038441362,0.36412957437119237,0.29030674826677677
0002,cdot_cos,T,S-T,94,18,18914,-0.04839460042138247,0.019227797813858815,-0.046037978831639965,0.24031570106729463,1019.0,2.1937371999874005,0.5563264284388788,5.393786242651501,-0.018036466840475607,0.231,0.9999999999995478,-20.98987158153655,0.46691293887502866,94,2026-10-07 19:46:34.998244,25.0,0.7097081081927886,0.1612412146814506,0.10048258539050745
0002,cdot_cos,P,T-P,95,19,19493,0.011949598375702109,-8.647164352221702e-05,0.060344198797084574,0.8188543714370975,1000.0,2.2450191639450234,0.5573301341002693,5.432183666176585,-0.04051006698101913,0.579,0.999999999999536,-22.390628054651923,0.4718802754675232,95,2026-10-07 19:46:35.577244,25.0,0.5742067186584445,0.0706721356931514,0.08856988593717266
0002,cdot_cos,Q,P-Q,96,19,19622,-0.006669057809394025,-0.006945641972123638,-0.018618656185096134,0.3856898445977092,1000.0,2.2755755331200698,0.5578027293950442,5.465329907423035,-0.024577546953872136,0.129,0.9999999999995044,33.71281983401447,0.476847446465051,96,2026-10-07 19:46:35.706244,25.0,0.5229574924208995,0.34004752761571216,0.2368710788763282
0002,cdot_cos,R,Q-R,97,19,19646,0.09505199438074446,0.13221016642985547,0.1017210521901385,0.927103616365172,1000.0,2.332751426069877,0.5589383026303286,5.5049055484967475,-0.04685586629444155,0.024,0.9999999999994927,-19.61856677168754,0.4818145781094611,97,2026-10-07 19:46:35.730243,25.0,0.6215960151538923,1.5238645807952773,2.382328872908642
0002,cdot_cos,S,R-S,98,19,19703,-0.002177657335628601,-0.008231443753287862,-0.09722965171637307,0.08085835699599192,1000.0,2.348721032998243,0.5590373138424007,5.534188743530581,-0.013294250930514017,0.057,0.9999999999994643,338.967826587975,0.4867817232833498,98,2026-10-07 19:46:35.787244,25.0,0.08009667164809922,0.3057559520140311,0.2801685426029107
0002,cdot_cos,T,S-T,99,19,19933,-0.07469147142367465,0.03015952495571521,-0.07251381408804605,0.1402945906893518,1000.0,2.3676076045994767,0.5592090936905425,5.564061927393459,-0.015838300206880596,0.23,0.9999999999994379,-14.809940187320988,0.4917489373841922,99,2026-10-07 19:46:36.017244,25.0,0.8516101661443174,0.1634146962054748,0.08211552870101581
0002,cdot_cos,P,T-P,100,20,20493,0.010176894181593024,-0.00012859656538679134,0.08486836560526767,0.8929953555323437,959.0,2.4238917932527615,0.5603021633271527,5.603023406875439,-0.0479268614498327,0.56,0.9999999999994266,-29.35637416703445,0.4967162867761522,100,2026-10-07 19:46:36.577244,25.0,0.511948179219109,0.07865963586131594,0.10050747973800851
0002,cdot_cos,Q,P-Q,101,20,20602,-0.006855202353818787,-0.005885944263254915,-0.017032096535411812,0.3951291206737178,959.0,2.4557063967641506,0.5607856345893546,5.63582785212233,-0.02758217502618291,0.109,0.9999999999993909,42.08044616962583,0.5016834525594923,101,2026-10-07 19:46:36.686244,25.0,0.4782590788311145,0.4162611945688405,0.29187709643476234
0002,cdot_cos,R,Q-R,102,20,20634,0.09847612698314386,0.13873074998820917,0.10533132933696264,0.9329731560350649,959.0,2.5146367336687687,0.5619267406218647,5.675183898090631,-0.05201112501427903,0.032,0.9999999999993784,-21.408133242763224,0.5066505866177721,102,2026-10-07 19:46:36.718244,25.0,0.6251979160345158,1.1707662866259627,1.8415730282693166
0002,cdot_cos,S,R-S,103,20,20682,-0.002924688721905427,-0.008332239332371068,-0.10140081570504929,0.07343929671046823,959.0,2.530635439108212,0.562016535522053,5.703846886054937,-0.01433246148634135,0.048,0.9999999999993453,419.6080562360082,0.51161772820686,103,2026-10-07 19:46:36.766243,25.0,0.07215751261916352,0.4137193922293762,0.33330636332173924
0002,cdot_cos,T,S-T,104,20,20932,-0.05209696554646724,0.018024818859561188,-0.049172276824561816,0.2263027538536487,959.0,2.554353795322789,0.5622932123969338,5.734290143945083,-0.021412396149425767,0.25,0.9999999999993179,-25.589181120163396,0.5165849587714313,104,2026-10-07 19:46:37.016243,25.0,0.7184590719448753,0.15592979784026184,0.09487342485830652
0002,cdot_cos,P,T-P,105,21,21452,0.009949438270199788,-0.00010468186392544863,0.062046403816667026,0.8250812225034576,999.0,2.608600338028343,0.5633016241372221,5.772126121843136,-0.04969782918729106,0.52,0.9999999999993028,-28.049488029342193,0.5215523119727277,105,2026-10-07 19:46:37.536243,25.0,0.5660073241850012,0.0837199451927489,0.10432027443375824
0002,cdot_cos,Q,P-Q,106,21,21541,-0.0063572746573388956,-0.003947947807956237,-0.016306712927538682,0.39947146501562764,999.0,2.6414225383232477,0.563789669497556,5.8045722381192615,-0.03056936793374752,0.089,0.9999999999992645,39.19402335974185,0.526519471209898,106,2026-10-07 19:46:37.625243,25.0,0.5348657446850483,0.5237518173216403,0.3687887673584783
0002,cdot_cos,R,Q-R,107,21,21594,0.09945738749815394,0.13071875856606074,0.10581466215549284,0.9337248356231935,999.0,2.701828161511595,0.564929943595118,5.8436831261330955,-0.05722439516858888,0.053,0.9999999999992514,-23.375982399174333,0.5314866146129777,107,2026-10-07 19:46:37.678244,25.0,0.6276338513571366,0.7236475220007228,1.1397287394027813
0002,cdot_cos,S,R-S,108,21,21641,-0.002932454340485577,-0.007224018433453931,-0.10238984183863951,0.07177445957470074,999.0,2.7181291756553243,0.5650175670145021,5.871837163247519,-0.015663495709415644,0.047,0.9999999999992139,474.312686622672,0.5364537558075111,108,2026-10-07 19:46:37.725244,25.0,0.0704141942034532,0.38894858599496657,0.346830088164451
0002,cdot_cos,T,S-T,109,21,21892,-0.07276322692366623,0.03020502112544557,-0.06983077258318066,0.14858160604306067,999.0,2.738389328595122,0.5651989449244613,5.900852598207006,-0.01959723528489278,0.251,0.9999999999991794,-21.68808526000754,0.5414209955727259,109,2026-10-07 19:46:37.976243,25.0,0.8181338597820169,0.15786884420414785,0.08071774079600662
0002,cdot_cos,P,T-P,110,22,22451,0.011589873041247986,-3.960675032890946e-05,0.08435309996491422,0.8917582089729964,940.0,2.7973793354458065,0.5662871718495393,5.9392724448693714,-0.05785486311993753,0.559,0.9999999999991654,-35.15592837615656,0.546388388357177,110,2026-10-07 19:46:38.535244,25.0,0.5161958629671521,0.08220303983156006,0.10552774034111727
0002,cdot_cos,Q,P-Q,111,22,22580,-0.006895107812697461,-0.008075378284468814,-0.018484980853945447,0.3864819495138637,940.0,2.830292327126806,0.5667586041621889,5.971175149902318,-0.03280716366954685,0.129,0.9999999999991207,53.13106203859996,0.5513555693573726,111,2026-10-07 19:46:38.664243,25.0,0.46604055283060847,0.36222437313853656,0.2551394703953457
0002,cdot_cos,R,Q-R,112,22,22611,0.08550212159773653,0.156207497789169,0.09239722941043399,0.909696165425886,940.0,2.890833223715549,0.5678677770394555,6.009750447356474,-0.061311042085912676,0.031,0.9999999999991042,-25.698318991185072,0.5563227013219839,112,2026-10-07 19:46:38.695244,25.0,0.6281940800780995,1.2705711955697503,1.9529321480239628
0002,cdot_cos,S,R-S,113,22,22660,-0.0017380394525031858,-0.009764279903275146,-0.08724016105023971,0.1014693508533039,940.0,2.9090677412521306,0.5679914544630852,6.037834769465835,-0.018719468723651086,0.049,0.9999999999990616,344.37629853750366,0.5612898433261977,113,2026-10-07 19:46:38.744244,25.0,0.1027706516178188,0.41959552135358774,0.3721330109506464
0002,cdot_cos,T,S-T,114,22,22891,-0.05990703350932541,0.008584402493054625,-0.05816899405682222,0.1893522087070806,940.0,2.9319535848082006,0.568222226533105,6.066955978323237,-0.023658038390354637,0.231,0.9999999999990241,-21.40020526002443,0.5662570816299214,114,2026-10-07 19:46:38.975244,25.0,0.8115996826207437,0.1762971745155094,0.09907291582714255
0002,cdot_cos,P,T-P,115,23,23391,0.012222427365032016,-0.00016930238403757534,0.07212946087435743,0.8585424582716266,879.0,2.990517035878296,0.5692681979618315,6.104724223992617,-0.061347649580477115,0.5,0.9999999999990073,-36.03311730609072,0.5712244661479449,115,2026-10-07 19:46:39.475244,25.0,0.540986406051636,0.0921698702608249,0.11712690214019084
0002,cdot_cos,Q,P-Q,116,23,23500,-0.006403201713887276,-0.006262102293756166,-0.018625629078919292,0.38564854267168713,879.0,3.0241234550690255,0.5697378371571425,6.136267461709368,-0.035742475747681496,0.109,0.9999999999989598,54.520947332421784,0.5761916400249615,116,2026-10-07 19:46:39.584243,25.0,0.4885177785238306,0.4422692596457628,0.30831577239201363
0002,cdot_cos,R,Q-R,117,23,23532,0.09520581444363962,0.1606214400998602,0.1016090161575269,0.9269140978910471,879.0,3.0869317344810723,0.5708661097860803,6.174864297139524,-0.06782732059800427,0.032,0.9999999999989434,-28.437138354166553,0.5811587719916972,117,2026-10-07 19:46:39.616243,25.0,0.6231069000707488,1.2552367360873575,1.9627587316264627
0002,cdot_cos,S,R-S,118,23,23580,-0.0020229444335475846,-0.0087861327251463,-0.09722875887718721,0.08086001591303847,879.0,3.1044586061786164,0.5709645007159789,6.202265250258621,-0.019175180147748175,0.048,0.9999999999988964,494.4779005584461,0.5861259137279362,118,2026-10-07 19:46:39.664243,25.0,0.0790839330064297,0.37982450024035924,0.3651431603655016
0002,cdot_cos,T,S-T,119,23,23830,-0.08680266273810217,0.0019831303138655157,-0.08477971830455458,0.10721659552556342,879.0,3.1233948865041468,0.5710949538327159,6.2299136662961105,-0.02083756946121203,0.25,0.9999999999988518,-12.743193532244403,0.5910931716165576,119,2026-10-07 19:46:39.914243,25.0,0.9233208712872423,0.16477194985371746,0.07574512130212163
0002,cdot_cos,P,T-P,120,24,24270,0.013920813238496229,-0.00017498979470142382,0.10072347597659839,0.9254000918267631,839.0,3.186844581105475,0.5722204988901214,6.2683648573125685,-0.07069736688848471,0.44,0.9999999999988358,-44.29835758170881,0.5960605422684535,120,2026-10-07 19:46:40.354244,25.0,0.49398171263895013,0.11043494648699449,0.14420385136665528
0002,cdot_cos,Q,P-Q,121,24,24399,-0.00653819281205786,-0.00925507193947822,-0.02045900605055409,0.374847779356977,839.0,3.220577639412702,0.5726762065595439,6.2994418719401475,-0.03815485140162171,0.129,0.9999999999987863,71.41094537229006,0.6010277313539523,121,2026-10-07 19:46:40.483244,25.0,0.4261745130235703,0.37409087338995345,0.26149657602501425
0002,cdot_cos,R,Q-R,122,24,24422,0.08236482449581174,0.17143518513653866,0.0889030173078696,0.9022585535203569,839.0,3.283360026440083,0.573772587809802,6.337529035509454,-0.07203438321380444,0.023,0.9999999999987678,-30.901232399045753,0.6059948573454806,122,2026-10-07 19:46:40.506243,25.0,0.6247995179226284,1.7919403783539705,2.729669001190485
0002,cdot_cos,S,R-S,123,24,24479,-0.00010399120938676327,-0.010715170541762745,-0.08246881570519851,0.11287344717548312,839.0,3.3030068968169846,0.5739096954078097,6.364970088868177,-0.022825958895631337,0.057,0.9999999999987182,358.9037006936758,0.6109620050073962,123,2026-10-07 19:46:40.563244,25.0,0.11580937813430248,0.3746565787991884,0.3446819364368683
0002,cdot_cos,T,S-T,124,24,24710,-0.062204480791408154,-0.004603344828720901,-0.06210048958202139,0.17472371885112922,839.0,3.3260708764231905,0.5741219102374245,6.393154705298931,-0.02696629523179518,0.231,0.9999999999986726,-19.51011785405323,0.6159292613749723,124,2026-10-07 19:46:40.794244,25.0,0.8576686397615921,0.18306751851998904,0.09984406755933327
0002,cdot_cos,P,T-P,125,25,25109,0.012657180987081282,-7.683535136826805e-05,0.07486166177848944,0.8666365462620483,920.0,3.3875840903732195,0.575174099177887,6.430645736888019,-0.07279175937329903,0.399,0.9999999999986541,-43.552505048535714,0.620896625991961,125,2026-10-07 19:46:41.193243,25.0,0.5328358251888833,0.12033992937702251,0.15416845601511014
0002,cdot_cos,Q,P-Q,126,25,25239,-0.007515096427680402,-0.009114764969533706,-0.020172277414761686,0.37652905811014853,920.0,3.4221021400660545,0.5756310338969625,6.461446388061233,-0.041419576269830824,0.13,0.9999999999986027,68.65791062439602,0.625863820310943,126,2026-10-07 19:46:41.323244,25.0,0.46887266645884407,0.38320432377730945,0.2655234591756539
0002,cdot_cos,R,Q-R,127,25,25266,0.09079657455669007,0.16646904480290478,0.09831167098437048,0.921129384278695,920.0,3.48721721455532,0.5767483189090282,6.499627590217051,-0.07922209105009313,0.027,0.9999999999985867,-33.83426285327933,0.6308309482620752,127,2026-10-07 19:46:41.350244,25.0,0.6205361705961866,1.554264878573443,2.41166942552835
0002,cdot_cos,S,R-S,128,25,25319,-0.0012706316321171626,-0.00881233164013233,-0.09206720618880723,0.09098390688810817,920.0,3.5060324435090204,0.5768586355614979,6.526414576790798,-0.02316796758149031,0.053,0.9999999999985322,508.12023582779466,0.6357980942777623,128,2026-10-07 19:46:41.403244,25.0,0.08896906199546217,0.36602286138122464,0.35500431988114095
0002,cdot_cos,T,S-T,129,25,25549,-0.08411950017225948,0.012074795533897195,-0.08284886854014233,0.11192554482577091,920.0,3.52601563786173,0.5769943331295118,6.553400017719076,-0.024740529415399344,0.23,0.9999999999984795,-11.588725258126274,0.6407653596647167,129,2026-10-07 19:46:41.633244,25.0,0.9384157724870026,0.18585720359081415,0.08688345370743193
0002,cdot_cos,P,T-P,130,26,26029,0.011387733953876482,-0.00012833887116625567,0.09550723412613596,0.915883070319867,919.0,3.591526757160795,0.5781043036792666,6.591407496166546,-0.0820353131538625,0.48,0.9999999999984641,-51.618291810642454,0.645732797825045,130,2026-10-07 19:46:42.113244,25.0,0.4973724668884536,0.10589993585400498,0.1364814985397191
0002,cdot_cos,Q,P-Q,131,26,26158,-0.0059367766018741325,-0.007052989746560633,-0.017324510555750613,0.3933832777732164,919.0,3.6276795762815746,0.5785808085168511,6.622164653764854,-0.045904412106343925,0.129,0.9999999999984068,75.82483575753393,0.6506999957687635,131,2026-10-07 19:46:42.242244,25.0,0.4551674336500307,0.39856102827671397,0.28025441178898924
0002,cdot_cos,R,Q-R,132,26,26176,0.09524645488429571,0.15480102716924798,0.10118323148616985,0.9261897001463849,919.0,3.694355502456187,0.5797021220796529,6.660275007965339,-0.08580397363314554,0.018,0.9999999999983886,-35.58287605752922,0.6556671163630232,132,2026-10-07 19:46:42.260243,25.0,0.628129879871596,2.3680053407550727,3.7042181208118112
0002,cdot_cos,S,R-S,133,26,26218,-0.0022365281640667357,-0.007769781039717956,-0.09748298304836245,0.08038891331566343,919.0,3.712927768548757,0.5797994082153108,6.6865776579890825,-0.024177021278003974,0.042,0.9999999999983288,633.460790053488,0.6606342549085656,133,2026-10-07 19:46:42.302243,25.0,0.07816067536972254,0.6262475860552127,0.4421968117278574
0002,cdot_cos,T,S-T,134,26,26469,-0.02707236487872564,0.0038892696714821046,-0.0248358367146589,0.3495777163278207,919.0,3.746960299684825,0.5802223926835236,6.716564489098554,-0.04460512796265798,0.251,0.9999999999982855,-48.295169728025705,0.6656015459942861,134,2026-10-07 19:46:42.553244,25.0,0.6325622519296421,0.18036368003208322,0.13558777345046955
0002,cdot_cos,P,T-P,135,27,26948,0.01421550264745496,-0.00011596268170565492,0.0412878675261806,0.7373415479579127,840.0,3.803470335924863,0.5811141792510512,6.751941494506778,-0.0749201937320687,0.479,0.9999999999982576,-33.993633536615334,0.6705690078974107,135,2026-10-07 19:46:43.032243,25.0,0.6672226780766781,0.09616162686599726,0.1179750234656324
0002,cdot_cos,Q,P-Q,136,27,27077,-0.006724852390216359,-0.009608058058179535,-0.020940355037671318,0.37203210787252977,840.0,3.8390831382224504,0.5815639372260979,6.782147922821125,-0.04777664772306349,0.129,0.9999999999981934,60.35145014647007,0.675536210382675,136,2026-10-07 19:46:43.161243,25.0,0.5665815991027764,0.3948483905110926,0.276068234865019
0002,cdot_cos,R,Q-R,137,27,27101,0.07998833398506768,0.16833632462766435,0.08671318637528404,0.8973231761189812,840.0,3.905341220676725,0.5826481722213808,6.819727330554259,-0.09000800813853721,0.024,0.9999999999981711,-38.95037570195352,0.6805033340818691,137,2026-10-07 19:46:43.185244,25.0,0.6255052290946286,1.821488049377512,2.7607534355947685
0002,cdot_cos,S,R-S,138,27,27158,-7.247626774420409e-05,-0.010036627697484085,-0.08006081025281188,0.11904339724139894,840.0,3.926514564592571,0.582791952499328,6.846260609090967,-0.029084717907469786,0.057,0.9999999999981073,423.7249440664963,0.6854704840990111,138,2026-10-07 19:46:43.242244,25.0,0.12310915275479688,0.3293144195526165,0.3714621739622128
0002,cdot_cos,T,S-T,139,27,27388,-0.1304215553459159,-0.009882249950005705,-0.1303490790781717,0.03701455880802886,840.0,3.942883064505723,0.5828366557107075,6.8715481789521045,-0.02259164702892893,0.23,0.9999999999980379,145.24842126930113,0.6904377692242146,139,2026-10-07 19:46:43.472243,25.0,0.7502038959423559,0.1905531067178269,0.07116739092674845
0002,cdot_cos,P,T-P,140,28,27788,0.01149628167257569,-0.00011489888629182216,0.1419178370184916,0.9720216185725874,920.0,4.014168993682771,0.5840100958837879,6.9101061655614044,-0.09940393814787954,0.4,0.9999999999980231,-65.45906036036753,0.6954051907574473,140,2026-10-07 19:46:43.872243,25.0,0.46175129604153675,0.1360669139278542,0.1782148229426206
0002,cdot_cos,Q,P-Q,141,28,27917,-0.005677115264524409,-0.0067426129222954954,-0.0171733969371001,0.3942851568903433,920.0,4.0517365956480065,0.5844858127182634,6.940390329181264,-0.05308488612510616,0.129,0.9999999999979591,97.366854956578,0.7003723981931367,141,2026-10-07 19:46:44.001244,25.0,0.41788588551806644,0.415584406507446,0.29122172066073737
0002,cdot_cos,R,Q-R,142,28,27935,0.10060871481836249,0.16365891686529063,0.1062858300828869,0.9344500515363126,920.0,4.121389770561692,0.5856126245680877,6.978385740353214,-0.09965302794717831,0.018,0.9999999999979393,-41.32734478194584,0.7053395161926095,142,2026-10-07 19:46:44.019244,25.0,0.6266902820352699,2.4543354690279946,3.869620828538108
0002,cdot_cos,S,R-S,143,28,27977,-0.0022561409875468653,-0.007793750652533357,-0.10286485580590936,0.07098730173997957,920.0,4.140092672533014,0.5856981885594891,7.00393758341302,-0.027045947693570445,0.042,0.9999999999978678,848.5705150549264,0.7103066548324595,143,2026-10-07 19:46:44.061243,25.0,0.06824967628664481,0.5372402304060854,0.44530718979337736
0002,cdot_cos,T,S-T,144,28,28228,-0.057483819876889615,0.012291089081671527,-0.05522767888934275,0.20089788897028366,920.0,4.166517949915804,0.5859403112252115,7.031289679618084,-0.038415298372764944,0.251,0.9999999999978068,-46.95698622543754,0.7152739687597572,144,2026-10-07 19:46:44.312243,25.0,0.743817974503128,0.18274990706040906,0.10527998957286584
0002,cdot_cos,P,T-P,145,29,28708,0.012067695355092865,-0.00010644479754971453,0.06955151523198248,0.8505330383528202,859.0,4.23183312587734,0.5869649145329834,7.067999685053187,-0.09592937891118804,0.48,0.999999999997783,-56.133022509457255,0.7202414793939895,145,2026-10-07 19:46:44.792243,25.0,0.549060823784276,0.10723166118754938,0.13607328325320006
0002,cdot_cos,Q,P-Q,146,29,28837,-0.006805224677854448,-0.009367920911908051,-0.018872920032947313,0.38418485462240204,859.0,4.269460344655851,0.5874274804847887,7.09791983156664,-0.055922441309440865,0.129,0.9999999999977096,86.48915348311037,0.7252086915363242,146,2026-10-07 19:46:44.921243,25.0,0.48899627218742864,0.4109753289697781,0.29168386650008826
0002,cdot_cos,R,Q-R,147,29,28867,0.07826088227097852,0.18789010166615738,0.08506610694883297,0.893466816249528,859.0,4.337864760751542,0.5885026336356587,7.135221908142276,-0.10285187736370316,0.03,0.9999999999976846,-43.64907084752169,0.7301758184320768,147,2026-10-07 19:46:44.951244,25.0,0.6336352762102713,1.508905367752315,2.2801472031897125
0002,cdot_cos,S,R-S,148,29,28917,-0.0005105576008930264,-0.010930406211211672,-0.07877143987187155,0.12246559847740533,859.0,4.35999466672099,0.5886499370186096,7.161242242100639,-0.0336205727632096,0.05,0.9999999999976087,469.9912738839079,0.7351429638812457,148,2026-10-07 19:46:45.001244,25.0,0.12755665236046881,0.5779482918200873,0.44259811938895055
0002,cdot_cos,T,S-T,149,29,29148,-0.026031470467017054,-0.0017190349049320361,-0.025520912866124026,0.3456936199105754,859.0,4.395659589933551,0.5890656564822746,7.190469404098895,-0.054526858747302044,0.231,0.9999999999975518,-50.28940863095549,0.7401102721799014,149,2026-10-07 19:46:45.232243,25.0,0.6815316250380894,0.2047899913902386,0.15439360698078444
0002,cdot_cos,P,T-P,150,30,29567,0.013128498103355023,-7.509441914053246e-05,0.03915996857037208,0.7269095934471728,900.0,4.45460764274328,0.5899393979843829,7.225259433893556,-0.0910386271985875,0.419,0.9999999999975162,-41.787838122814215,0.7450777537354977,150,2026-10-07 19:46:45.651244,25.0,0.6696112319911011,0.11547383709138745,0.14068747687286165
0002,cdot_cos,Q,P-Q,151,30,29697,-0.0070127630761896995,-0.008897733379921861,-0.020141261179544723,0.3767111058807713,900.0,4.492426665416134,0.5903919798987181,7.254865425218842,-0.05902591533027392,0.13,0.9999999999974395,70.73351995370675,0.7500449720795097,151,2026-10-07 19:46:45.781244,25.0,0.5813803359515576,0.4157460942542341,0.2909155590219511
0002,cdot_cos,R,Q-R,152,30,29727,0.08316654633370436,0.17122465623172672,0.09017930940989406,0.9050365058542121,900.0,4.562701627249381,0.5914786666220478,7.2922461722757586,-0.1109158058735355,0.03,0.9999999999974136,-47.750551680858266,0.7550120983574969,152,2026-10-07 19:46:45.811244,25.0,0.6263591539193121,1.5326496236747793,2.3424987277749074
0002,cdot_cos,S,R-S,153,30,29776,-0.0008543730247601265,-0.007512886907278886,-0.0840209193584645,0.10904600031462927,900.0,4.5843856428366205,0.5916095391743879,7.317813286719177,-0.03456828013429577,0.049,0.9999999999973319,583.3730937017746,0.7599792434617009,153,2026-10-07 19:46:45.860243,25.0,0.109854266320964,0.4268636695799726,0.4425309303518272
0002,cdot_cos,T,S-T,154,30,30007,-0.09630829211766727,0.007363873949106675,-0.09545391909290714,0.0842196730668655,900.0,4.604534266868218,0.5917106072958456,7.342942987244103,-0.03226500995200189,0.231,0.9999999999972489,22.789284584234892,0.7649465625338541,154,2026-10-07 19:46:46.091244,25.0,0.9311024119722346,0.20122827599463083,0.08722348065626746
0002,cdot_cos,P,T-P,155,31,30467,0.011106640485719613,-0.00013400438245047023,0.10741493260338689,0.9361580197470842,959.0,4.67735310634614,0.5928335231096655,7.380725520511544,-0.11768719038990538,0.46,0.9999999999972282,-76.07175835142313,0.7699141051720038,155,2026-10-07 19:46:46.551244,25.0,0.48391745415089943,0.12138762487122515,0.15830182495200362
0002,cdot_cos,Q,P-Q,156,31,30596,-0.007882846594198686,-0.008751676321032534,-0.0189894870799183,0.38349563195922937,959.0,4.7162108817497455,0.5932932445944614,7.410238407472824,-0.0635336096021714,0.129,0.9999999999971443,117.79649761589224,0.7748813275845605,156,2026-10-07 19:46:46.680243,25.0,0.4264069300356217,0.43617504076454233,0.3012230651442284
0002,cdot_cos,R,Q-R,157,31,30620,0.1030909195061099,0.16251871953930636,0.11097376610030858,0.9412735818058952,959.0,4.789886266863392,0.5944209171495031,7.448081013893374,-0.1217975800903458,0.024,0.9999999999971199,-51.6674545529066,0.779848446947542,157,2026-10-07 19:46:46.704243,25.0,0.6197945506808222,1.9397558097188534,3.069807713068603
0002,cdot_cos,S,R-S,158,31,30676,-0.0020573140677395013,-0.009831581006890057,-0.10514823357384939,0.06731365578126677,959.0,4.80931916061625,0.5945015228264919,7.472776538483743,-0.03243840231805968,0.056,0.9999999999970268,1108.5965791792814,0.78481559944383,158,2026-10-07 19:46:46.760243,25.0,0.06362592622499826,0.504577823581693,0.3470159598724733
0002,cdot_cos,T,S-T,159,31,30906,-0.026923455667349695,0.007418515098017902,-0.024866141599610193,0.3494054730468407,959.0,4.8463989831045415,0.5949198413582479,7.501662072327264,-0.06223949514743972,0.23,0.9999999999969601,-71.2401927408814,0.7897829296087346,159,2026-10-07 19:46:46.990243,25.0,0.6195181900157283,0.21395377454485923,0.16121661951430918
0002,cdot_cos,P,T-P,160,32,31426,0.013691672944184661,-0.0001467180804606818,0.04061512861153436,0.7340713546912507,800.0,4.907737896906886,0.5957982436743966,7.536326450004429,-0.10393617002214245,0.52,0.9999999999969196,-47.46876699679134,0.794750561433966,160,2026-10-07 19:46:47.510243,25.0,0.6695323551685024,0.09587486253370862,0.11795944961989255
0002,cdot_cos,Q,P-Q,161,32,31515,-0.008316978792214984,-0.006966559134525487,-0.022008651736399647,0.36581422872096026,800.0,4.9461088401395985,0.5962357545293968,7.565392741356873,-0.06565964724571008,0.089,0.9999999999968232,87.48702423946455,0.7997177468996849,161,2026-10-07 19:46:47.599244,25.0,0.5582471327269224,0.6216529860668611,0.431134193625987
0002,cdot_cos,R,Q-R,162,32,31573,0.07990360120165432,0.18842372959833528,0.08822057999386931,0.9007436229366872,800.0,5.018392128426787,0.5973123831645074,7.602554669122676,-0.12497052393217928,0.058,0.999999999996793,-55.08944751444063,0.8046849009355149,162,2026-10-07 19:46:47.657243,25.0,0.6221345271895349,0.8204474788841047,1.2462635911584212
0002,cdot_cos,S,R-S,163,32,31615,-0.0009191158841532426,-0.010659102957697958,-0.08082271708580757,0.11706027876610274,800.0,5.041280747690155,0.5974522327864328,7.627768739142958,-0.03994556096877459,0.042,0.9999999999966943,607.9742068146452,0.8096520387325753,163,2026-10-07 19:46:47.699244,25.0,0.11901319144534546,0.6951609831690028,0.544967125318279
0002,cdot_cos,T,S-T,164,32,31866,-0.03191366383450912,-0.010044033438709632,-0.03099454795035588,0.315427930892629,800.0,5.076785651012983,0.5978289894116307,7.655955858366385,-0.062304295701583905,0.251,0.9999999999966175,-59.345299425236554,0.8146194031354373,164,2026-10-07 19:46:47.950243,25.0,0.6984697183298311,0.19609672179651716,0.1414537980989184
0002,cdot_cos,P,T-P,165,33,32226,0.010793264264373405,-7.524177433725399e-05,0.04270692809888253,0.7441541714982595,919.0,5.139721302032006,0.5987173712642883,7.69067344072181,-0.11143348817658187,0.36,0.9999999999965715,-55.30188660205902,0.819586889470959,165,2026-10-07 19:46:48.310244,25.0,0.643467630442834,0.14423562793907602,0.17482125283061972
0002,cdot_cos,Q,P-Q,166,33,32335,-0.006045948756064127,-0.005529243126990079,-0.016839213020437532,0.3962821906649105,919.0,5.180635303129118,0.5991901944741619,7.72003561011715,-0.07314995485758648,0.109,0.9999999999964803,80.96796544574737,0.8245541006319255,166,2026-10-07 19:46:48.419244,25.0,0.5925281503098897,0.5224707027930681,0.37535780823038195
0002,cdot_cos,R,Q-R,167,33,32388,0.07936227734418336,0.17273793516701333,0.08540822610024748,0.8942781863625322,919.0,5.253619915240895,0.6002565209294815,7.757033863699571,-0.1318121227567855,0.053,0.9999999999964487,-55.01332880428126,0.829521250413994,167,2026-10-07 19:46:48.472243,25.0,0.6407962090227923,0.9083369751498227,1.3770681530524
0002,cdot_cos,S,R-S,168,33,32435,-0.0011211858600526663,-0.007691409975291528,-0.08048346320423602,0.11793973786773485,919.0,5.276919022494999,0.6003970801851124,7.7820457178805365,-0.042462108320064106,0.047,0.9999999999963458,635.6750683947857,0.8344883943029524,168,2026-10-07 19:46:48.519244,25.0,0.12193961126946591,0.5357636707530028,0.49572568625753194
0002,cdot_cos,T,S-T,169,33,32685,-0.06280022536880939,0.0046457937048720085,-0.06167903950875672,0.17624820789081064,919.0,5.303981700291677,0.6006071000000484,7.807902464462509,-0.04954828555423533,0.25,0.9999999999962502,-33.740517466564,0.8394557711542212,169,2026-10-07 19:46:48.769243,25.0,0.8667405573169558,0.19775983468721137,0.10825071118671303
0002,cdot_cos,P,T-P,170,34,33145,0.012170841214307254,-6.915912471504797e-05,0.07497106658311664,0.8669523481167984,980.0,5.375798939838605,0.6016396326161426,7.844431547047858,-0.13260134032598858,0.46,0.9999999999962155,-80.43625303180855,0.8444233940780773,170,2026-10-07 19:46:49.229243,25.0,0.5345465480952163,0.12203672706968682,0.1561244337976683
0002,cdot_cos,Q,P-Q,171,34,33275,-0.007453636203582704,-0.008126734806865472,-0.01962447741788996,0.37974942190243743,980.0,5.416255489195789,0.6020916267871224,7.873380734088584,-0.07545412420926537,0.13,0.9999999999961112,126.43352455818412,0.8493906339502921,171,2026-10-07 19:46:49.359244,25.0,0.4688947393984335,0.45083087416517903,0.3112042258244958
0002,cdot_cos,R,Q-R,172,34,33303,0.0995572646805449,0.1609528354204397,0.10701090088412761,0.9355516677635746,980.0,5.493014967121551,0.6032044167676843,7.910962967845299,-0.14457837925183792,0.028,0.9999999999960791,-62.11797037178952,0.8543577540919208,172,2026-10-07 19:46:49.387244,25.0,0.6199544865312312,1.7408509131570422,2.741409925920075
0002,cdot_cos,S,R-S,173,34,33354,-0.001975318003182327,-0.008345279588505922,-0.10153258268372724,0.0732154561607536,980.0,5.513743140332584,0.6032914578624452,7.935071445407435,-0.03938797456953999,0.051,0.9999999999959623,1208.5142652592206,0.859324902831438,173,2026-10-07 19:46:49.438244,25.0,0.0692091405168499,0.5927387709573677,0.4064347688437699
0002,cdot_cos,T,S-T,174,34,33585,-0.02437953689844984,0.00826786063914253,-0.022404218895267513,0.36352305579572297,980.0,5.553474321759203,0.6037235298516469,7.9636715585535685,-0.0758840779854794,0.231,0.9999999999958796,-84.46764504074895,0.8642922707182898,174,2026-10-07 19:46:49.669244,25.0,0.6181986282653817,0.22332325526847652,0.17199645639229108
0002,cdot_cos,P,T-P,175,35,34125,0.013995946644462028,-0.0002035541193865821,0.03837548354291187,0.7229990732652928,859.0,5.61691848426662,0.6045823820948655,7.997884698960702,-0.12221257975542135,0.54,0.9999999999958264,-53.942342394454656,0.8692600210538033,175,2026-10-07 19:46:50.209243,25.0,0.6844899716762651,0.0965543098169792,0.11748918982854983
0002,cdot_cos,Q,P-Q,176,35,34214,-0.006191946310620658,-0.004661608461272286,-0.020187892955082685,0.37643741690305726,859.0,5.65775297636154,0.6050292979658317,8.026632986295619,-0.07936274281091815,0.089,0.9999999999957071,95.87897796482703,0.8742272150928548,176,2026-10-07 19:46:50.298244,25.0,0.5827926354873341,0.6624464787053806,0.4588145179204565
0002,cdot_cos,R,Q-R,177,35,34268,0.09346197205377103,0.17267222866229345,0.09965391836439169,0.9235330495540673,859.0,5.7348339574761775,0.6061249945520294,8.063980969810478,-0.15122878344094096,0.054,0.9999999999956707,-65.58936254370792,0.879194366605712,177,2026-10-07 19:46:50.352243,25.0,0.6217519645418331,0.9158416145475091,1.4274255761969838
0002,cdot_cos,S,R-S,178,35,34314,-0.0014367978560242284,-0.007322679278963492,-0.09489876990979526,0.08529628928878202,859.0,5.756663870732671,0.6062261380000866,8.088077926964479,-0.04319710495380237,0.046,0.9999999999955432,1068.1035752905414,0.8841615089127847,178,2026-10-07 19:46:50.398243,25.0,0.08201108187085401,0.47546060664782136,0.47456333166291004
0002,cdot_cos,T,S-T,179,35,34564,-0.09559858996238663,-0.005310221593520397,-0.0941617921063624,0.08674480651847559,859.0,5.778576333287777,0.606328989747807,8.112141490621983,-0.04352151907133227,0.25,0.999999999995418,-3.154191588574731,0.8891289126099843,179,2026-10-07 19:46:50.648243,25.0,0.9925736046414272,0.2008226094520449,0.08764985022042282
0002,cdot_cos,P,T-P,180,36,34984,0.011736159864319775,-8.639127044099824e-05,0.1073347498267064,0.9360381094883871,999.0,5.857075175458694,0.6074382319961494,8.149651899900121,-0.1571116269541081,0.42,0.999999999995383,-102.40333710018558,0.8940965389543682,180,2026-10-07 19:46:51.068243,25.0,0.4852991246464104,0.14340109690115496,0.1869020051688494
0002,cdot_cos,Q,P-Q,181,36,35113,-0.007048414876191581,-0.0074152808107311105,-0.018784574740511355,0.3847075214703788,999.0,5.899033254684747,0.6078938050731268,8.178388160695725,-0.0848115314317461,0.129,0.999999999995263,158.70142283659763,0.8990637886948586,181,2026-10-07 19:46:51.197243,25.0,0.4263564512322889,0.4691913133986349,0.32525642810894134
0002,cdot_cos,R,Q-R,182,36,35141,0.1012454861624865,0.15560152257959567,0.10829390103867809,0.9374588149693708,999.0,5.978126534315542,0.609003161825788,8.21591543506438,-0.16135751639944343,0.028,0.9999999999952247,-69.00033265591085,0.9040309061376517,182,2026-10-07 19:46:51.225244,25.0,0.6222660925592084,1.7897187577767815,2.824759986814085
0002,cdot_cos,S,R-S,183,36,35193,-0.001979780131504221,-0.0074727957644832275,-0.10322526629399073,0.07039538409682816,999.0,5.999257505120247,0.6090864200135143,8.239581977952868,-0.04346959088220724,0.052,0.9999999999950877,1415.931918968556,0.9089980567371776,183,2026-10-07 19:46:51.277244,25.0,0.06640631785114824,0.5048220463474973,0.40636482316741124
0002,cdot_cos,T,S-T,184,36,35424,-0.051992158649558265,0.017433914115583253,-0.05001237851805404,0.2226465739040826,999.0,6.030628027135681,0.6093497072408626,8.265635236530457,-0.06480109615525123,0.231,0.9999999999949714,-81.01990167881796,0.9139654495379309,184,2026-10-07 19:46:51.508243,25.0,0.7195103788191752,0.22559669148788533,0.13580312560794083
0002,cdot_cos,P,T-P,185,37,35983,0.013192685908027873,-8.413131540918644e-05,0.06518484455758614,0.8361177285739176,900.0,6.10348317658765,0.6103378755393161,8.301506607019107,-0.15165996842723334,0.559,0.9999999999949238,-87.89886541383495,0.9189332930048414,185,2026-10-07 19:46:52.067244,25.0,0.5639886482433331,0.10210603017728814,0.1303312154775826
0002,cdot_cos,Q,P-Q,186,37,36113,-0.008712123279979753,-0.011000984392388419,-0.021904809188007628,0.3664167099282486,900.0,6.1447825688738895,0.6107706414015835,8.329815871971809,-0.08674536578838019,0.13,0.9999999999947833,149.99936062131243,0.9239005492404343,186,2026-10-07 19:46:52.197243,25.0,0.47315364726869236,0.46207117087853417,0.31768763297107283
0002,cdot_cos,R,Q-R,187,37,36139,0.08781010252292375,0.16933858591919135,0.0965222258029035,0.9178174592669419,900.0,6.223621681016069,0.6118538861194867,8.366991110665525,-0.16704848751457663,0.026,0.9999999999947354,-74.1320224313147,0.9288676618605374,187,2026-10-07 19:46:52.223244,25.0,0.6183396093873091,1.9631707088885517,3.032273543929978
0002,cdot_cos,S,R-S,188,37,36193,-0.0012889683091846069,-0.011475412646240819,-0.08909907083210836,0.09731005839028925,900.0,6.246867445736094,0.6119686707511682,8.390906726679598,-0.04965554141644129,0.054,0.9999999999945888,1022.7235508652087,0.9338348150207473,188,2026-10-07 19:46:52.277244,25.0,0.09402957400453812,0.6009431216632267,0.4304771244449123
0002,cdot_cos,T,S-T,189,37,36423,-0.023086357350641795,0.0017666385088731607,-0.02179738904145719,0.36704038774881675,900.0,6.288523538155697,0.6124015109667795,8.419143949259166,-0.0894085419099982,0.23,0.9999999999944795,-91.84220656903169,0.9388022194271617,189,2026-10-07 19:46:52.507244,25.0,0.6410665837080779,0.23083969636630863,0.1811134453026227
0002,cdot_cos,P,T-P,190,38,36883,0.010770237459943575,-6.945353216910651e-05,0.033856594810585366,0.6998145393343231,899.0,6.353053706064596,0.6132262902327676,8.452756546872076,-0.1395680359192705,0.46,0.9999999999944064,-60.81565829516731,0.9437699576410775,190,2026-10-07 19:46:52.967244,25.0,0.6981013502999935,0.11703714808242267,0.1402829737149973
0002,cdot_cos,Q,P-Q,191,38,37012,-0.007927892332734825,-0.010027447885120416,-0.0186981297926784,0.3852192032618175,899.0,6.396197714391526,0.6136800207206607,8.481242869744612,-0.09406727711416858,0.129,0.9999999999942645,100.28146668385655,0.9487372185449116,191,2026-10-07 19:46:53.096244,25.0,0.6164953915660754,0.46699939487428166,0.33444967695294653
0002,cdot_cos,R,Q-R,192,38,37043,0.0720538483630625,0.15576937582999742,0.07998174069579733,0.8807491419007384,899.0,6.473539549942161,0.6147166686664695,8.517780441296066,-0.17005269450660027,0.031,0.9999999999942092,-73.29915396991778,0.9537043371231035,192,2026-10-07 19:46:53.127244,25.0,0.6396497364657222,1.6725369325742334,2.494897920988212
0002,cdot_cos,S,R-S,193,38,37092,-0.0012432820950290394,-0.01080347054448109,-0.07329713045809154,0.13794925217530246,899.0,6.499895004211129,0.6148789419192005,8.542187695383317,-0.05840589998871561,0.049,0.9999999999940576,688.0172341338709,0.9586714834461522,193,2026-10-07 19:46:53.176243,25.0,0.14784851749452704,0.5841709434294882,0.5378664136524062
0002,cdot_cos,T,S-T,194,38,37342,-0.055836724149457104,0.0005001001207966234,-0.054593442054428065,0.20345544135097457,899.0,6.530788302398251,0.6151182251567686,8.567621956762725,-0.06874826193344034,0.25,0.9999999999939179,-43.22225848260028,0.963638930834419,194,2026-10-07 19:46:53.426244,25.0,0.8603309322751433,0.21313604978747946,0.12357319274848777
0002,cdot_cos,P,T-P,195,39,37782,0.013118307492276453,-0.00011411866048832515,0.06895503164173356,0.8486273893897084,919.0,6.6064630291048685,0.6161156913528685,8.603604302773933,-0.1696141739005448,0.44,0.9999999999938605,-101.12213562875098,0.9686066682747478,195,2026-10-07 19:46:53.866244,25.0,0.5517398909907965,0.1348352784378635,0.17198801524231316
0002,cdot_cos,Q,P-Q,196,39,37911,-0.007359735756443228,-0.008876305772970676,-0.02047804324871968,0.3747362580413205,919.0,6.649443347423571,0.616555841548909,8.631799463186745,-0.09716230595762206,0.129,0.9999999999937095,164.60714682098623,0.9735739353312869,196,2026-10-07 19:46:53.995244,25.0,0.4744121780456823,0.48378425481539833,0.33318076216048126
0002,cdot_cos,R,Q-R,197,39,37937,0.09661385217682222,0.1735587334903807,0.10397358793326546,0.9308190716724161,919.0,6.731279366847241,0.6176483167822084,8.669125106314475,-0.18654020182400372,0.026,0.9999999999936594,-81.81228566293835,0.9785410451027489,197,2026-10-07 19:46:54.021244,25.0,0.6193190162014471,2.008941956955847,3.147539208602719
0002,cdot_cos,S,R-S,198,39,37991,-0.0012765471972773924,-0.00881157113035037,-0.09789039937409962,0.07963915226777667,919.0,6.753908329185275,0.6177417319105531,8.69241453660716,-0.05197923364756245,0.054,0.9999999999934894,1440.4622737325851,0.9835081995920995,198,2026-10-07 19:46:54.075244,25.0,0.07511426817263378,0.5005510187876374,0.41905485811172877
0002,cdot_cos,T,S-T,199,39,38222,-0.05537697351367842,0.00439600792697336,-0.05410042631640103,0.20546021305936646,919.0,6.785338876876306,0.617982692422914,8.71773661255737,-0.07246863956729521,0.231,0.9999999999933411,-85.03221427851896,0.9884756323673366,199,2026-10-07 19:46:54.306243,25.0,0.7537196519117895,0.23415786110893821,0.13606297701745232
0002,cdot_cos,P,T-P,200,40,38701,0.014062870313125255,-7.907762939484318e-05,0.06943984382680368,0.8501777808031373,860.0,6.862089261017604,0.618979149657677,8.753705412674995,-0.17819693781695484,0.479,0.9999999999932819,-106.10420052277803,0.9934434612766019,200,2026-10-07 19:46:54.785243,25.0,0.5524884471400282,0.12506847074558905,0.1602304470590772
0002,cdot_cos,Q,P-Q,201,40,38831,-0.00753863021561506,-0.010404237717578261,-0.021601500528740315,0.3681788557763426,860.0,6.90515447185058,0.6194103663182673,8.781676807705571,-0.100821507426023,0.13,0.9999999999931185,179.43515977561782,0.9984107359886992,201,2026-10-07 19:46:54.915244,25.0,0.4641954216561716,0.4765664210346358,0.3312708525613563
0002,cdot_cos,R,Q-R,202,40,38858,0.08129686585378794,0.1824271403453049,0.088835496069403,0.9021095882354135,860.0,6.985996530486609,0.6204661336440661,8.8185000958377,-0.1907604230354914,0.027,0.9999999999930602,-85.18819763759839,1.0033778457020053,202,2026-10-07 19:46:54.942244,25.0,0.6240805945948931,1.9672025797535344,2.9941503198529262
0002,cdot_cos,S,R-S,203,40,38911,-0.00045347515446267155,-0.010127664090662987,-0.08175034100825061,0.11468456838973336,860.0,7.011383411157271,0.6206002711792508,8.842212241509152,-0.06035446698697001,0.053,0.9999999999928841,972.1809474805489,1.0083449989895161,203,2026-10-07 19:46:54.995244,25.0,0.11524812758348983,0.519935552500743,0.478997748503054
0002,cdot_cos,T,S-T,204,40,39141,-0.062233206908023066,-0.00837108721681095,-0.06177973175356039,0.1758830311682858,860.0,7.041109699051688,0.6208059519403275,8.86690205513793,-0.07093420928518744,0.23,0.9999999999927202,-51.43768548323267,1.0133124439085275,204,2026-10-07 19:46:55.225244,25.0,0.8614410431269776,0.23526040509436763,0.12924472997572561
0002,cdot_cos,P,T-P,205,41,39561,0.010815836014539284,-0.00010288687752922461,0.07304904292256235,0.8613115306483267,1039.0,7.11960319750068,0.6218125570150708,8.903020853081566,-0.18855126503515587,0.42,0.9999999999926593,-116.84528391630371,1.0182802072899213,205,2026-10-07 19:46:55.645243,25.0,0.53590760489876,0.14701579283553012,0.18688928202141006
0002,cdot_cos,Q,P-Q,206,41,39690,-0.007433677352072299,-0.00731649761350039,-0.018249513366611583,0.38787869274492803,1039.0,7.164602965033533,0.6222655244743086,8.93121121720683,-0.10898654512593899,0.129,0.9999999999924959,175.65217608146028,1.0232474870198165,206,2026-10-07 19:46:55.774244,25.0,0.4818889071592795,0.5003874214241045,0.3488354072314191
0002,cdot_cos,R,Q-R,207,41,39718,0.09840157605289508,0.13908318269447206,0.10583525340496738,0.933756684598779,1039.0,7.248703152228099,0.6233550957243449,8.968539026595428,-0.20529208142034072,0.028,0.9999999999924419,-88.38847050268161,1.0282145973143773,207,2026-10-07 19:46:55.802243,25.0,0.6255558183217292,1.9090788788469322,3.0035781140916398
0002,cdot_cos,S,R-S,208,41,39770,-0.00251297433983973,-0.007796450698751441,-0.10091455039273481,0.07427080813514768,1039.0,7.271511382248962,0.6234417066192983,8.991425142996919,-0.05608375383757855,0.052,0.9999999999922499,1722.7431683160353,1.0331817497789595,208,2026-10-07 19:46:55.854244,25.0,0.06991637229114729,0.5614135942056355,0.4386198080935057
0002,cdot_cos,T,S-T,209,41,40000,-0.0459605040692642,0.02138379998585396,-0.04344752972942447,0.2523367363908251,1039.0,7.3070901660254854,0.6237359101223008,9.017266489279493,-0.08781014370895746,0.23,0.9999999999920914,-107.8382464776872,1.038149209500528,209,2026-10-07 19:46:56.084243,25.0,0.6967652945944337,0.24103884760117203,0.1546903642457556
0002,cdot_cos,P,T-P,210,42,40600,0.010374179279112213,-0.00011472005066917805,0.05633468334837641,0.8035082621096569,1019.0,7.382389252145501,0.6246721247084059,9.052380586055738,-0.18706953808367088,0.6,0.9999999999920187,-106.02205503724619,1.0431173159851836,210,2026-10-07 19:46:56.684243,25.0,0.5882509772197062,0.10127088445615348,0.12549847686669224
0002,cdot_cos,Q,P-Q,211,42,40729,-0.006298554892915984,-0.006304518504983778,-0.0166727341720282,0.3972783401155008,1019.0,7.42861522737287,0.6251346733353589,9.080628424714158,-0.11573468850035823,0.129,0.9999999999918305,154.22129788436308,1.0480846010528653,211,2026-10-07 19:46:56.813244,25.0,0.5399032452291023,0.5089582478795446,0.3583408932354172
0002,cdot_cos,R,Q-R,212,42,40751,0.09927032142611417,0.13097526777160992,0.10556887631903016,0.9333435730343622,1019.0,7.513700480098423,0.6262204594512816,9.11793051285758,-0.21466386049408392,0.022,0.9999999999917667,-91.11294622666674,1.0530516980987148,212,2026-10-07 19:46:56.835244,25.0,0.6307433689263657,2.45616496214628,3.8675114875251673
0002,cdot_cos,S,R-S,213,42,40809,-0.0024374680760125777,-0.00829179720376441,-0.10170778950212675,0.07291879494897664,1019.0,7.536686485707306,0.6263052346735407,9.14064696104109,-0.058406153284220136,0.058,0.9999999999915569,1843.2002069215764,1.0580188607580363,213,2026-10-07 19:46:56.893243,25.0,0.06888176581034056,0.5843433535909865,0.3963104415324593
0002,cdot_cos,T,S-T,214,42,41039,-0.02315722216496971,0.010861017288031882,-0.020719754088957133,0.3733214576644801,1019.0,7.581484309114978,0.6267391357360084,9.168426197158146,-0.11428770876590083,0.23,0.999999999991405,-128.78870395908785,1.0629863344560477,214,2026-10-07 19:46:57.123244,25.0,0.6132668759381911,0.24694857803213371,0.19477314525074696
0002,cdot_cos,P,T-P,215,43,41619,0.011050957066338483,-9.737732826643697e-05,0.03420817923130819,0.7016577601907662,919.0,7.650282831602087,0.6275541006418215,9.201772933781045,-0.17668014602016446,0.58,0.9999999999913021,-76.55843436842524,1.0679544488071264,215,2026-10-07 19:46:57.703244,25.0,0.7024803881505959,0.09962230409868568,0.11861814221915469
0002,cdot_cos,Q,P-Q,216,43,41728,-0.005655779580682961,-0.005220524111638825,-0.016706736647021443,0.39707481206245604,919.0,7.697046181869453,0.6280149763907352,9.229922308580223,-0.12094221572093629,0.109,0.9999999999910986,120.93916946291931,1.0729217028026292,216,2026-10-07 19:46:57.812243,25.0,0.6307383633716286,0.6085246395086491,0.42902156208592357
0002,cdot_cos,R,Q-R,217,43,41760,0.09822588657631295,0.14953564158304106,0.10388166615699591,0.9306709426808518,919.0,7.782941203014973,0.629094272072445,9.267162336120773,-0.2238008644798297,0.032,0.9999999999910285,-95.30164022888877,1.0778888157521822,217,2026-10-07 19:46:57.844243,25.0,0.6315368544295547,1.70813891201331,2.684219410797495
0002,cdot_cos,S,R-S,218,43,41808,-0.0021629042270640874,-0.007502168923415591,-0.10038879080337704,0.07517959088187112,919.0,7.806367072238305,0.6291814014924496,9.289777112836036,-0.06146166135204109,0.048,0.9999999999908011,1863.1961869952045,1.0828559597774619,218,2026-10-07 19:46:57.892244,25.0,0.07126796069104893,0.5174865200477663,0.4880389421527501
0002,cdot_cos,T,S-T,219,43,42059,-0.08424297314762705,0.013179650016437987,-0.08208006892056297,0.11385027451473187,919.0,7.8326199089395585,0.6293133323132191,9.313011961542099,-0.06908806618373758,0.251,0.9999999999905832,-57.806089488546526,1.0878234861504734,219,2026-10-07 19:46:58.143244,25.0,0.8954877677021127,0.2225910036299741,0.10459297490539265
0002,cdot_cos,P,T-P,220,44,42538,0.012304287459557082,-6.964277626937916e-05,0.09654726060718413,0.917864655411271,939.0,7.918107756060552,0.6303762566744412,9.350016526740074,-0.2263125240949588,0.479,0.9999999999905133,-147.91688256203648,1.09279144864314,220,2026-10-07 19:46:58.622243,25.0,0.49921283817831824,0.1370859280614234,0.1784714971210719
0002,cdot_cos,Q,P-Q,221,44,42667,-0.00773672169357597,-0.00903520317868541,-0.020041009153133053,0.3772997664837389,939.0,7.963948228022402,0.6308128192973721,9.377733513078562,-0.12230576671126464,0.129,0.9999999999903014,238.24017888988152,1.0977587459113838,221,2026-10-07 19:46:58.751244,25.0,0.42725121946185224,0.5131558041923603,0.3553524958282957
0002,cdot_cos,R,Q-R,222,44,42694,0.09351811543348318,0.16245748397136325,0.10125483712705916,0.9263119850460234,939.0,8.050501953542181,0.6318837191481885,9.414882382340714,-0.23257542609251644,0.027,0.9999999999902257,-102.96916121258636,1.1027258476847277,222,2026-10-07 19:46:58.778244,25.0,0.6224298843069257,2.054013303784815,3.2056935377695854
0002,cdot_cos,S,R-S,223,44,42747,-0.0019021712646150244,-0.010881331076512752,-0.0954202866980982,0.08428454464885439,939.0,8.074864946426782,0.6319810953175797,9.43751732857271,-0.06591113239523377,0.053,0.9999999999899866,1711.5511396604052,1.1076930013876538,223,2026-10-07 19:46:58.831244,25.0,0.07976892141750051,0.706649859712084,0.4596791110302113
0002,cdot_cos,T,S-T,224,44,42978,-0.012102054669658307,0.0025418663647403176,-0.010199883405043284,0.4365939307373993,939.0,8.125406838671662,0.632485331480709,9.466200729988493,-0.13729126322261087,0.231,0.9999999999898247,-141.5609114276956,1.1126605061088974,224,2026-10-07 19:46:59.062243,25.0,0.5945695958563236,0.25132400594629717,0.21879607032415455
0002,cdot_cos,P,T-P,225,45,43477,0.010368943306389376,-8.65714539416015e-05,0.022470997976047683,0.6368631297729506,860.0,8.190976637173971,0.6332203451892732,9.498332779951994,-0.1792386769493881,0.499,0.9999999999896928,-57.070246769571014,1.117628546002833,225,2026-10-07 19:46:59.561243,25.0,0.7913372535005756,0.10971048218775233,0.13140240180823567
0002,cdot_cos,Q,P-Q,226,45,43607,-0.015340882839662815,-0.02099606186469003,-0.02570982614605219,0.3446261446291676,860.0,8.234897899895039,0.6336178255903022,9.52539341429615,-0.12081170726892863,0.13,0.9999999999894601,146.9933348391421,1.1225958517465882,226,2026-10-07 19:46:59.691243,25.0,0.6165473851562001,0.48940296720231685,0.3378558670851325
0002,cdot_cos,R,Q-R,227,45,43631,0.06076938873743784,0.12199044769050554,0.07611027157710065,0.8702032217411503,860.0,8.318221408646574,0.6346206791322466,9.561553733146388,-0.23070093779209627,0.024,0.9999999999893678,-109.57654924377746,1.1275629455076404,227,2026-10-07 19:46:59.715244,25.0,0.6210599721476148,3.5343256243714296,3.471812864647298
0002,cdot_cos,S,R-S,228,45,43687,0.1518424369776742,-0.33340115213957167,0.09107304824023635,0.9069395237006985,860.0,8.404545529864867,0.635664627486107,9.598354456797562,-0.24116454318979272,0.056,0.9999999999892994,-10.023106372076532,1.1325301063382052,228,2026-10-07 19:46:59.771244,25.0,0.9575399585173063,0.9476470099138513,1.5415021646123834
0002,cdot_cos,T,S-T,229,45,43917,-0.006695164818825077,-0.00044570712788659047,-0.15853760179649926,0.018643466947625097,860.0,8.424357873756925,0.6356860740212498,9.6197050231482,-0.05569992611252634,0.23,0.9999999999890357,8647.765983753081,1.1374976281628972,229,2026-10-07 19:47:00.001244,25.0,0.03580347622369112,0.18516444370360233,0.08614062561764296
0002,cdot_cos,P,T-P,230,46,44337,0.013524537096771422,-0.0001519229496911233,0.0202197019155965,0.6237492294992979,919.0,8.489721173968524,0.6364032936142094,9.651563534358425,-0.18453489752014485,0.42,0.9999999999888928,-179.63113762128162,1.142465546670423,230,2026-10-07 19:47:00.421243,25.0,0.4974996263798498,0.13299107536552524,0.15562690526571238
0002,cdot_cos,Q,P-Q,231,46,44466,-0.007818782126708121,-0.009414192551713928,-0.021343319223479543,0.3696816031070182,919.0,8.536070377063966,0.6368280870974473,9.678979778296158,-0.13165215171488898,0.129,0.9999999999886638,124.49048276864205,1.1474328591288225,231,2026-10-07 19:47:00.550244,25.0,0.6691912473456457,0.5228198713970359,0.3592961480266821
0002,cdot_cos,R,Q-R,232,46,44493,0.09342603445943985,0.17085769498479672,0.10124481658614798,0.9262948836447995,919.0,8.62460870078896,0.6378915348867065,9.716105475951048,-0.2531599412405641,0.027,0.9999999999885838,-114.2583498248871,1.1523999580439828,232,2026-10-07 19:47:00.577244,25.0,0.6188053470094255,2.1033206505408835,3.2791971749997506
0002,cdot_cos,S,R-S,233,46,44546,-0.0014286297062561907,-0.009639329423109341,-0.09485466416569605,0.08538235780826792,919.0,8.649649692193174,0.6379894917321939,9.73851802928085,-0.07206591468515552,0.053,0.9999999999883216,1848.7123146353192,1.1573671135502903,233,2026-10-07 19:47:00.630244,25.0,0.08103336428033475,0.47159843407605573,0.4724715359285746
0002,cdot_cos,T,S-T,234,46,44777,-0.09683132206638034,0.014082008883945509,-0.09540269236012415,0.08431849942264719,919.0,8.674598134801021,0.6380862167908126,9.760873388357325,-0.0719990201275109,0.231,0.9999999999880594,0.6915949041534128,1.1623346503389904,234,2026-10-07 19:47:00.861243,25.0,0.9990713277603366,0.24964186942917324,0.10800191605128767
0002,cdot_cos,P,T-P,235,47,45256,0.016033838459922303,-0.00012016407835299707,0.11286516052630265,0.9438334858695818,900.0,8.764984235869452,0.6391681602104715,9.798294099734532,-0.2622414866507701,0.479,0.9999999999879904,-175.83402520552104,1.167302725526912,235,2026-10-07 19:47:01.340243,25.0,0.48410781641228684,0.14323065478131836,0.18869749701133737
0002,cdot_cos,Q,P-Q,236,47,45385,-0.005343047591666834,-0.006751844910324012,-0.021376886051589137,0.3694860833639032,900.0,8.811813102081524,0.6395913289451778,9.825621497288978,-0.13686583382851533,0.129,0.9999999999877459,296.2781570081746,1.172270044647049,236,2026-10-07 19:47:01.469243,25.0,0.4000971645337781,0.5294993136162346,0.363014466760251
0002,cdot_cos,R,Q-R,237,47,45414,0.09825435057273829,0.1979794960728741,0.10359739816440512,0.9302109945599714,900.0,8.90159505878244,0.64065572929383,9.86280292331422,-0.2641011347967326,0.029,0.9999999999876633,-119.537071863356,1.177237146110597,237,2026-10-07 19:47:01.498244,25.0,0.6176907575262749,1.9743166264760001,3.095929541410902
0002,cdot_cos,S,R-S,238,47,45465,-0.0006002472498567071,-0.005263106001378766,-0.098854597822595,0.07789014377572173,900.0,8.926323466417132,0.6407447930159413,9.884962573274052,-0.07320305649353707,0.051,0.9999999999873836,2143.3876080822693,1.1822042975014382,238,2026-10-07 19:47:01.549243,25.0,0.07369735601507928,0.4342794944528777,0.4848707379351346
0002,cdot_cos,T,S-T,239,47,45696,-0.1810232666835679,0.013645328462275699,-0.1804230194337112,0.010872619266570996,900.0,8.945891567216634,0.640757224574236,9.905899735525557,-0.0580701712415149,0.231,0.9999999999870886,1217.2959248812092,1.1871718492792953,239,2026-10-07 19:47:01.780244,25.0,0.770591765837606,0.24817956092463128,0.08471039307143577
0002,cdot_cos,P,T-P,240,48,46156,0.015751897967419277,-0.00023946038890019396,0.19677516465098718,0.9927492925665299,879.0,9.040982423564312,0.6418915181187825,9.944174661433305,-0.28360526656932206,0.46,0.9999999999870288,-198.83309431860738,1.1921399174006615,240,2026-10-07 19:47:02.240243,25.0,0.4514715262313086,0.15514573974560295,0.20671925292973478
0002,cdot_cos,Q,P-Q,241,48,46245,-0.004890682098927617,-0.0035641947862522175,-0.020642580066346894,0.3737729443497059,879.0,9.088625647782589,0.6423181724153417,9.971494858709388,-0.14314640527723588,0.089,0.9999999999867754,329.21000075432136,1.197107152768043,241,2026-10-07 19:47:02.329243,25.0,0.37485154627320066,0.7793761321541174,0.535317126048053
0002,cdot_cos,R,Q-R,242,48,46297,0.10176088219649576,0.17733276934679745,0.10665156429542338,0.9350078910660173,879.0,9.179711375087745,0.6433844767010038,10.00874907655351,-0.2753998678073089,0.052,0.9999999999866976,-124.02975802348021,1.2020743056718637,242,2026-10-07 19:47:02.381243,25.0,0.6186451673250549,1.1110387628174845,1.7516486020222344
0002,cdot_cos,S,R-S,243,48,46345,-0.0009562783723574584,-0.004179962707891766,-0.10271716056885322,0.07123119333030516,879.0,9.204173679115607,0.6434656523071833,10.030672407341688,-0.07442274140679066,0.048,0.9999999999864019,2475.8315442221046,1.2070414506115106,243,2026-10-07 19:47:02.429244,25.0,0.06717326031242538,0.458104793967388,0.5096313339137959
0002,cdot_cos,T,S-T,244,48,46595,-0.19536879310343022,0.025915094347781043,-0.19441251473107277,0.007688488524187795,879.0,9.223689435308614,0.643474413674136,10.051427323613389,-0.05951505679614187,0.25,0.9999999999860919,1701.5249664928656,1.212009061883116,244,2026-10-07 19:47:02.679244,25.0,0.7784224289388262,0.23146003408930582,0.0780630247720282
0002,cdot_cos,P,T-P,245,49,47035,0.013415400404067936,-0.0001593602075721268,0.20878419350749816,0.9946196385626274,919.0,9.31990369616026,0.6446070146684085,10.089732058320628,-0.2948361528359517,0.44,0.9999999999860301,-207.7705186820596,1.2169771184316918,245,2026-10-07 19:47:03.119244,25.0,0.4501646249314485,0.16446671127982138,0.2186687746628315
0002,cdot_cos,Q,P-Q,246,49,47164,-0.006372312045183451,-0.0076197669371907365,-0.01978771244925139,0.3787886860356761,919.0,9.368420141234857,0.6450379272139223,10.117062212356156,-0.14975118395890508,0.129,0.9999999999857699,336.69237618522027,1.221944451459592,246,2026-10-07 19:47:03.248243,25.0,0.37952294895464855,0.5469595255625751,0.37609647344648806
0002,cdot_cos,R,Q-R,247,49,47188,0.10549515595987792,0.1829604979960563,0.11186746800506137,0.9424965167931706,919.0,9.461019253755405,0.6461090960133296,10.154439444484437,-0.2875828262983705,0.024,0.9999999999856874,-128.6740637103451,1.2269115380844433,247,2026-10-07 19:47:03.272243,25.0,0.6192313471704254,2.433916069741082,3.858296355022809
0002,cdot_cos,S,R-S,248,49,47244,-0.0010486845925452971,-0.007145245674342965,-0.10654384055242322,0.06515595505661907,919.0,9.485248112582429,0.6461830932267467,10.17613945778405,-0.07570682883359978,0.056,0.9999999999853781,2863.2969767429354,1.2318787022823339,248,2026-10-07 19:47:03.328243,25.0,0.060892950859265466,0.4362076554201526,0.43265819333972366
0002,cdot_cos,T,S-T,249,49,47475,-0.10423958402874173,0.01493709481771197,-0.10319089943619643,0.07045162892465158,919.0,9.509874511162462,0.64626309682593,10.197897691936246,-0.07713952764165138,0.231,0.9999999999850704,-17.90792942664883,1.236846285772642,249,2026-10-07 19:47:03.559244,25.0,0.9815985888457893,0.25612059892024736,0.10660778606074706
0002,cdot_cos,P,T-P,250,50,47954,0.013657169010444715,-0.00012843924077102553,0.11789675303918644,0.9501413530743041,820.0,9.603575829283583,0.6473412587538161,10.235402676270706,-0.2949281210749901,0.479,0.9999999999849972,-201.99989240979934,1.241814471011474,250,2026-10-07 19:47:04.038244,25.0,0.47785576145071257,0.1490538791295079,0.19561861820693466
0002,cdot_cos,Q,P-Q,251,50,48064,-0.0059373315134358205,-0.0065497512564284726,-0.019594500523880537,0.37992595659255274,820.0,9.65266812736853,0.6477719564727841,10.26267800261917,-0.15558749497665098,0.11,0.9999999999847226,323.5230184924652,1.2467817646426476,251,2026-10-07 19:47:04.148243,25.0,0.4083717842870719,0.6385995987707929,0.4462936189540624
0002,cdot_cos,R,Q-R,252,50,48098,0.08938029297114178,0.1900238842936494,0.0953176244845776,0.9155171554472018,820.0,9.744067741013158,0.6488088319455391,10.299561307723028,-0.2913914149293142,0.034,0.9999999999846314,-130.97418496343641,1.2517488738085356,252,2026-10-07 19:47:04.182244,25.0,0.6274738615546943,1.7376339799428782,2.68822393072434
0002,cdot_cos,S,R-S,253,50,48144,-0.0011385324771641036,-0.009232952524001919,-0.09051882544830588,0.09423650155663106,820.0,9.770827238004646,0.6489154806957417,10.321673014533001,-0.08581992297159671,0.046,0.9999999999843139,1927.5565026985948,1.2567160138706361,253,2026-10-07 19:47:04.228243,25.0,0.09113786479987632,0.6268602507454747,0.581728195467134
0002,cdot_cos,T,S-T,254,50,48394,-0.071537064155954,-0.010603314178234966,-0.0703985316787899,0.1467949372824726,820.0,9.801738884081741,0.6490815809335481,10.34469865328433,-0.09940754540609349,0.25,0.9999999999840156,-81.8037506384245,1.261683660989243,254,2026-10-07 19:47:04.478244,25.0,0.872244044231172,0.24195026411615927,0.12364658430838205
0002,cdot_cos,P,T-P,255,51,48774,0.01308482483125574,-9.011634951028512e-05,0.08462188898720974,0.8924051284259089,899.0,9.891802370062726,0.6500905699273275,10.381155142002662,-0.29103516183476663,0.38,0.9999999999839204,-189.92042292838207,1.2666516370300218,255,2026-10-07 19:47:04.858243,25.0,0.5176610541753975,0.18500925730651324,0.23700917363416876
0002,cdot_cos,Q,P-Q,256,51,48903,-0.0044551494483785585,-0.005589851122563853,-0.017539974279634298,0.3920986004760816,899.0,9.942345919634691,0.6505334684884075,10.408577940826607,-0.16439860584201021,0.129,0.9999999999836501,285.9267722250979,1.2716189850133093,256,2026-10-07 19:47:04.987243,25.0,0.4628733126472965,0.5441029883103244,0.39181046179818557
0002,cdot_cos,R,Q-R,257,51,48935,0.07698419941628976,0.17760735406758105,0.08143934886466832,0.8845236721845965,899.0,10.03218094104679,0.6515316359162459,10.444889453754167,-0.29387616993157306,0.032,0.9999999999835494,-129.71527669457865,1.2765860884782987,257,2026-10-07 19:47:05.019244,25.0,0.643659481371283,1.8638873502993814,2.807344419128055
0002,cdot_cos,S,R-S,258,51,48983,-0.0009344432183362256,-0.0081128742924585,-0.07791864263462599,0.12477530740899169,899.0,10.061634710053852,0.6516723356413304,10.467450433418936,-0.09690910062164593,0.048,0.9999999999832312,1399.9108327435388,1.2815532341780034,258,2026-10-07 19:47:05.067244,25.0,0.13100850859125793,0.8965103108872219,0.6136201876471384
0002,cdot_cos,T,S-T,259,51,49214,-0.006625451340668053,0.0005088077258658905,-0.005691008122331827,0.4644910773622295,899.0,10.118245930891963,0.6521958746198937,10.49614211076367,-0.18692931517360575,0.231,0.9999999999830226,-171.94558234994875,1.2865208527674123,259,2026-10-07 19:47:05.298244,25.0,0.617810468739695,0.2810853803953884,0.2450702200784011
0002,cdot_cos,P,T-P,260,52,49673,0.02186167333995822,-0.00020528253987233547,0.028487124680626273,0.6708822652934168,860.0,10.191496155796521,0.652951392965522,10.528568403071409,-0.2431800311172719,0.459,0.9999999999828612,-74.45314368493635,1.2914890677628232,260,2026-10-07 19:47:05.757244,25.0,0.7934910207163011,0.13093813210830016,0.15958654663302568
0002,cdot_cos,Q,P-Q,261,52,49802,-0.004491930622345454,-0.006132893564980777,-0.026353603962303674,0.3410002153171041,860.0,10.238447136167382,0.6533351176564047,10.554996962461063,-0.1567116427705751,0.129,0.9999999999825571,225.339652102589,1.2964564234158316,261,2026-10-07 19:47:05.886244,25.0,0.5759309633180489,0.549963723045721,0.3639610881462074
0002,cdot_cos,R,Q-R,262,52,49826,0.10355914793166685,0.21615625974832345,0.1080510785540123,0.9371019526211963,860.0,10.333386796342317,0.6543886032151681,10.592250322710257,-0.31863075018840264,0.024,0.9999999999824681,-153.69845943393156,1.301423504403667,262,2026-10-07 19:47:05.910244,25.0,0.6015945117515499,2.5048736339465805,3.955819173955636
0002,cdot_cos,S,R-S,263,52,49882,-0.00025695927642823286,-0.005754350477303692,-0.10381610720809507,0.06943488273936124,860.0,10.358681070596818,0.6544666014715909,10.613710119603471,-0.08537836091837571,0.056,0.9999999999821192,2990.4820949564655,1.3063906716358669,263,2026-10-07 19:47:05.966244,25.0,0.0650899669946528,0.4621124200348468,0.4516834688303677
0002,cdot_cos,T,S-T,264,52,50113,-0.0957722829975655,-0.005792452368904391,-0.09551532372113727,0.08410135017336383,860.0,10.38514338738622,0.6545610638755806,10.635403995346037,-0.08953282011731512,0.231,0.9999999999817758,-43.980028280804014,1.311358305486352,264,2026-10-07 19:47:06.197243,25.0,0.9546585679914011,0.26496093015694616,0.11455548393680628
0002,cdot_cos,P,T-P,265,53,50533,0.01689444298097813,-0.0001703597725695206,0.11266672597854363,0.9435699215983421,700.0,10.481093020329327,0.6556200415232691,10.672767302887314,-0.32607741569410775,0.42,0.9999999999816955,-223.37071617431667,1.3163264501487875,265,2026-10-07 19:47:06.617243,25.0,0.48411894356003665,0.17237239402192991,0.22845150700739733
0002,cdot_cos,Q,P-Q,266,53,50662,-0.006300829597247615,-0.014360935378714072,-0.023195272578225748,0.3589597886107535,700.0,10.529936198364641,0.6560225006895626,10.699450929699408,-0.1670488562629819,0.129,0.9999999999813906,395.14209825494027,1.3212938133599332,266,2026-10-07 19:47:06.746243,25.0,0.38597282389817195,0.489790883514389,0.3786292870954592
0002,cdot_cos,R,Q-R,267,53,50693,0.02980378613328541,0.2364015099367564,0.03610461573053302,0.7114866700744131,700.0,10.60745906827604,0.6568195445492999,10.732567877466309,-0.26643614518568554,0.031,0.9999999999812261,-124.69488059974104,1.3262609115159893,267,2026-10-07 19:47:06.777244,25.0,0.6886481563496444,2.021267044033933,2.500737739077359
0002,cdot_cos,S,R-S,268,53,50742,0.003934605007797456,-0.012780777536386862,-0.02586918112548795,0.3437269086681712,700.0,10.655254755094745,0.6572042889522528,10.758945986747735,-0.16515307732871085,0.049,0.999999999980954,263.24767060842055,1.3312280603655133,268,2026-10-07 19:47:06.826244,25.0,0.5415781936903538,0.8532320697872029,0.975422179973586
0002,cdot_cos,T,S-T,269,53,50973,-0.05254740260291999,-0.06370107394231932,-0.05648200761071745,0.19591088891475006,700.0,10.691075811115185,0.6574234858541432,10.782595050886627,-0.12422475934794854,0.231,0.9999999999806369,186.71941814771395,1.3361957120461354,269,2026-10-07 19:47:07.057244,25.0,0.7193049420645508,0.2652980911918604,0.15506950658199206
0002,cdot_cos,P,T-P,270,54,51233,0.007983263979024102,-8.94925245467909e-05,0.060530666581944094,0.8195448218729673,1039.0,10.777822473225385,0.6583397131438858,10.817674269851489,-0.30216922046113914,0.26,0.9999999999805134,-194.2143211682544,1.3411634476387146,270,2026-10-07 19:47:07.317244,25.0,0.5549428766089387,0.2060584261924484,0.3336410081161512
0002,cdot_cos,Q,P-Q,271,54,51482,-0.19905255830559046,-0.45653763855750024,-0.20703582228461456,0.0056193976363442515,1039.0,10.798226192735259,0.658345991398648,10.837792679373251,-0.07142766859806642,0.249,0.9999999999800979,36752.498999081385,1.3461311544170704,271,2026-10-07 19:47:07.566243,25.0,0.039540787004884594,0.24407251693584053,0.08194264863403153
0002,cdot_cos,R,Q-R,272,54,51513,-0.007963271621355407,0.06111907848295717,0.19108928668423505,0.9916510224157473,1039.0,10.899370586659433,0.6594530398710654,10.876028828135295,-0.35551452810343315,0.031,0.9999999999800202,-256.61645951692304,1.3510982515486223,272,2026-10-07 19:47:07.597243,25.0,0.449739614238369,3.277934819962811,3.262722384650798
0002,cdot_cos,S,R-S,273,54,51562,0.5887079596163112,-0.38467534503598577,0.5966712312376666,0.9999996675515789,1039.0,11.001458151572953,0.6605676488681733,10.914419405571202,-0.3616154158055313,0.049,0.9999999999799715,-5.473567607948787,1.3560654018308518,273,2026-10-07 19:47:07.646244,25.0,0.9832703170770919,2.020185031908744,2.0834196921126438
0002,cdot_cos,T,S-T,274,54,51792,0.6871787190983292,0.43130936103853007,0.098470759482018,0.9214178453985452,1039.0,11.09734871978649,0.6615930974489529,10.95136504606832,-0.3422298784768772,0.23,0.9999999999799014,18.904446007343118,1.361033077106655,274,2026-10-07 19:47:07.876243,25.0,0.9449296644906494,0.2524482966380279,0.4169155139719016
0002,cdot_cos,P,T-P,275,55,52272,0.012818203407415315,-7.321420507363824e-05,-0.6743605156909138,4.766764648481007e-08,978.0,11.117584368026446,0.6615930975019633,10.971331861803499,-0.07260003866783632,0.48,0.9999999999794901,5086359897.762032,1.3660014804385825,275,2026-10-07 19:47:08.356243,25.0,0.024382060045100528,0.07462699640707708,0.042157600499907286
0002,cdot_cos,Q,P-Q,276,55,52381,-0.007083066476975272,-0.005917706262296974,-0.019901269884390588,0.37812089247418507,978.0,11.168990636337284,0.6620134711376261,10.998247200371203,-0.1849136377434104,0.109,0.9999999999791642,-267.17564934461734,1.3709688032869096,276,2026-10-07 19:47:08.465244,25.0,0.5447740941453908,0.6783300219289237,0.47161714046640824
0002,cdot_cos,R,Q-R,277,55,52433,0.09192372643335626,0.16407885807555847,0.09900679291033154,0.922382696412228,978.0,11.265460312806951,0.6630378506669543,11.03520280395861,-0.34879370174218705,0.052,0.9999999999790651,-159.9798310165854,1.37593596136319,277,2026-10-07 19:47:08.517244,25.0,0.6250972026868518,1.1935897731473446,1.8551860859551321
0002,cdot_cos,S,R-S,278,55,52481,-0.0012543937860352052,-0.0053495849818161675,-0.09317812021939147,0.08871287393033088,978.0,11.293123972744608,0.6631362928912493,11.056745376351616,-0.1005593594327564,0.048,0.9999999999786788,2521.6246797262816,1.3809031089611232,278,2026-10-07 19:47:08.565243,25.0,0.0847088295923539,0.5824265760918471,0.5763262487011866
0002,cdot_cos,T,S-T,279,55,52732,-0.09100252153368814,0.0191650665370456,-0.08974812774765294,0.09589400014772902,978.0,11.321373264111768,0.6632426878956794,11.078390908258541,-0.10292668034504344,0.251,0.9999999999782995,-22.250301364875114,1.385870857978556,279,2026-10-07 19:47:08.816243,25.0,0.9772624148001258,0.2622316858741418,0.11254697755840784
0002,cdot_cos,P,T-P,280,56,53250,0.43529699091457225,0.8873802050442433,0.5262995124482603,0.9999980690331892,741.0,11.424764279053427,0.6643512047606629,11.116776724787043,-0.3782823998994579,0.518,0.9999999999782291,-248.4001175376963,1.3908394076316577,280,2026-10-07 19:47:09.334244,25.0,0.4829170060904652,0.11981151112313386,0.19959655394142628
0002,cdot_cos,Q,P-Q,281,56,53301,0.21559628226334554,1.1154858186561003,-0.2197007086512267,0.004100580511079476,741.0,11.445497989635335,0.6643557466154386,11.136688582240614,-0.07627331028679726,0.051,0.9999999999777393,66494.66011709635,1.3958065606046672,281,2026-10-07 19:47:09.385243,25.0,0.01907141861009722,0.41255923374258713,0.4065433447432916
0002,cdot_cos,R,Q-R,282,56,53331,0.03911387330278522,1.2042472624576062,-0.17648240896056033,0.011984784346107372,741.0,11.466845320895171,0.6643690209396625,11.156710086438942,-0.07867358703887298,0.03,0.999999999977293,-180.82101292569885,1.400773651049459,282,2026-10-07 19:47:09.415244,25.0,0.9699514030561859,0.6972357688290447,0.7115777086612004
0002,cdot_cos,S,R-S,283,56,53360,-0.20780950765450315,1.2563582685024122,-0.24692338095728839,0.0020804581414025428,741.0,11.487332135765078,0.6643713252246608,11.176512673596532,-0.07563984676437936,0.029,0.9999999999768489,1316.5646943802694,1.4057407391812156,283,2026-10-07 19:47:09.444243,25.0,0.9606859677980117,0.7028313648503984,0.706441892065747
0002,cdot_cos,T,S-T,284,56,53610,-1.5807146403757137,-0.4213701234156908,-1.3729051327212105,1.2412861711765892e-15,741.0,11.507609540056494,0.6643713252246608,11.196241673879713,-0.07499963566246953,0.25,0.9999999999764082,,1.4107084911672456,284,2026-10-07 19:47:09.694243,25.0,0.9915001403264424,0.24875690685824736,0.08110961716566578
0002,cdot_cos,P,T-P,285,57,53991,0.009232384403407085,-8.352714666322086e-05,1.5899470247791208,1.0,1059.0,11.611710589194201,0.6654780028837458,11.234619706274582,-0.38648380999363463,0.381,0.9999999999763389,-281.4588076068124,1.4156766429567305,285,2026-10-07 19:47:10.075244,25.0,0.4466662289098898,0.21057907010420493,0.2732311000989691
0002,cdot_cos,Q,P-Q,286,57,54240,-0.002276384364893003,-0.024460778177186886,-0.01150876876830009,0.42856233143090094,1059.0,11.668070791475898,0.6659517273285126,11.262325125725052,-0.21054576314547332,0.249,0.9999999999760149,371.3932198174295,1.4206443993051652,286,2026-10-07 19:47:10.324243,25.0,0.4336018633844889,0.23027682964690566,0.22634619390239724
0002,cdot_cos,R,Q-R,287,57,54269,-0.010176846578669234,0.12348602223054306,-0.00790046221377623,0.45078201005272606,1059.0,11.72638845035836,0.6664496519054378,11.290433548059532,-0.21876853989411743,0.029,0.9999999999757011,-16.514100989795388,1.4256114836976335,287,2026-10-07 19:47:10.353244,25.0,0.9631109596218713,2.2475338606150896,2.0109537545676583
0002,cdot_cos,S,R-S,288,57,54320,0.008131249651649497,-0.0203826317710048,0.018308096230318732,0.6124689815954448,1059.0,11.798427755391574,0.6671255779509977,11.321556891470797,-0.27147300183605033,0.051,0.9999999999754814,-77.97371071605441,1.4305786373409803,288,2026-10-07 19:47:10.404243,25.0,0.8235404968372413,1.2180604044626935,1.4125353928081
0002,cdot_cos,T,S-T,289,57,54571,-0.012157106168250333,-0.0035921176436696177,-0.02028835581989983,0.3758480531607296,1059.0,11.850630611613555,0.6675400270979038,11.348240956601392,-0.19763684814957996,0.251,0.9999999999751721,178.15491776894035,1.4355464137028375,289,2026-10-07 19:47:10.655244,25.0,0.6882555452721815,0.2529328195050582,0.20797950686048453
0002,cdot_cos,P,T-P,290,58,55050,0.01115375623422319,-7.457812840705101e-05,0.02331086240247352,0.6417048926182417,820.0,11.925400030783113,0.6682470383623587,11.379898464916334,-0.2842876702640385,0.479,0.9999999999749465,-122.55932326803115,1.4405149065745266,290,2026-10-07 19:47:11.134243,25.0,0.7372709688484899,0.1342626644887663,0.15609482081327264
0002,cdot_cos,Q,P-Q,291,58,55160,-0.0062312836015106085,-0.0069307430223844255,-0.0173850398357338,0.39302222919027946,820.0,11.979254244193793,0.6686796844107777,11.406884411403432,-0.20573651006940002,0.11,0.999999999974573,181.5598697403329,1.44548224354224,291,2026-10-07 19:47:11.244244,25.0,0.6826283784472678,0.6938501728563231,0.4895837582789139
0002,cdot_cos,R,Q-R,292,58,55191,0.09235452156071242,0.18702598843946136,0.09858580516222303,0.9216258459594626,820.0,12.078047068811504,0.6696931088871725,11.443784653971614,-0.3792349429206485,0.031,0.9999999999744551,-171.2001603399883,1.4504493325957493,292,2026-10-07 19:47:11.275244,25.0,0.6328664215574058,2.0480346869547703,3.1868653102487277
0002,cdot_cos,S,R-S,293,58,55240,-0.0009456779147163305,-0.00763622572674643,-0.09330019947542875,0.08846645241293331,820.0,12.106232394784989,0.669790304401239,11.465027062688465,-0.10874987622451453,0.049,0.9999999999740047,2782.896610959378,1.4554164803516472,293,2026-10-07 19:47:11.324243,25.0,0.08314062439916468,0.5123123106650617,0.5752107341527596
0002,cdot_cos,T,S-T,294,58,55470,-0.16520237400016527,-0.023570548156316762,-0.16425669608544893,0.01619990405595591,820.0,12.12825367525668,0.6698081011930789,11.48488045143413,-0.08514077115894411,0.23,0.9999999999735262,1326.5933140072004,1.4603842068022246,294,2026-10-07 19:47:11.554244,25.0,0.7578309491693611,0.276197719980057,0.0957446977030036
0002,cdot_cos,P,T-P,295,59,55870,0.01660089427863523,-0.00018615038955033296,0.1818032682788005,0.989492279677492,819.0,12.233283345975815,0.6708942080879,11.523051230782405,-0.40751984294496824,0.4,0.9999999999734437,-296.8207579964901,1.4653524837831324,295,2026-10-07 19:47:11.954243,25.0,0.4533568271459159,0.19566392617061945,0.26257417679783845
0002,cdot_cos,Q,P-Q,296,59,55999,-0.006388729900618859,-0.009683769825223076,-0.02298962417925409,0.36014367625093496,819.0,12.284784816193175,0.6712890643522661,11.549360281740165,-0.20098913616624095,0.129,0.9999999999730558,523.0528813068196,1.4703198889919966,296,2026-10-07 19:47:12.083244,25.0,0.35787500798315847,0.5795420784986474,0.3992362032353502
0002,cdot_cos,R,Q-R,297,59,56027,0.08277732337742927,0.22122379798996,0.08916605327804812,0.9028369372611699,819.0,12.382805202228466,0.6722778573363931,11.58589372145612,-0.38427327808398964,0.028,0.999999999972929,-185.36149109064107,1.4752869671707614,297,2026-10-07 19:47:12.111244,25.0,0.6206654831822865,2.2945584447477327,3.5007280726889585
0002,cdot_cos,S,R-S,298,59,56079,0.00015865158862599107,-0.005663699512925398,-0.08261867178880328,0.11249885229970974,819.0,12.413280089099048,0.6724009599861724,11.607507179765204,-0.12007148369473353,0.052,0.9999999999724762,2146.190962281165,1.4802541254605002,298,2026-10-07 19:47:12.163244,25.0,0.11076207301413082,0.5005512454258151,0.5860555167419653
0002,cdot_cos,T,S-T,299,59,56310,-0.18794770784669954,-0.04221782693883072,-0.18810635943532553,0.008989579413867887,819.0,12.434862531752751,0.6724107958727017,11.627136655638264,-0.08521248568087555,0.231,0.9999999999719801,3544.06264348265,1.4852218729709308,299,2026-10-07 19:47:12.394243,25.0,0.6642589504909489,0.27686685024104896,0.0934304876783661
0002,cdot_cos,P,T-P,300,60,56689,0.01903006835245832,-0.00020123542633466616,0.20697777619915786,0.9943724877665531,740.0,12.541192573910413,0.6734978454118544,11.665392825230294,-0.42125441958726845,0.379,0.9999999999719016,-309.1321248968208,1.490190114333931,300,2026-10-07 19:47:12.773243,25.0,0.45035582349530284,0.20669925405820003,0.28055420094369937
0002,cdot_cos,Q,P-Q,301,60,56819,-0.007179404675926511,-0.013815149759534916,-0.026209473028384833,0.34181040284309494,740.0,12.591540566328867,0.6738710835877081,11.691295977619323,-0.2006000025328883,0.13,0.9999999999714992,591.1893030494637,1.4951575312642986,301,2026-10-07 19:47:12.903244,25.0,0.33288035266348276,0.5565918096525051,0.38729224937271967
0002,cdot_cos,R,Q-R,302,60,56843,0.06254524400123711,0.2333080677896399,0.06972464867716362,0.8510824505215906,740.0,12.685906444420064,0.6747994609659145,11.726834412514803,-0.37758657790311656,0.024,0.9999999999713505,-190.64076691761198,1.5001245947694608,302,2026-10-07 19:47:12.927244,25.0,0.6257958314580216,2.729165707402633,3.931911587133241
0002,cdot_cos,S,R-S,303,60,56899,0.0021588869543738374,-0.010481466666683975,-0.06038635704686327,0.18098934577601244,740.0,12.722540520284193,0.6749967110775498,11.749667032332683,-0.14729775413013513,0.056,0.9999999999709187,1167.4965446852275,1.5050917676836546,303,2026-10-07 19:47:12.983244,25.0,0.20941782437318066,0.5645731123981986,0.6541799261451534
0002,cdot_cos,T,S-T,304,60,57129,-0.1045516100759884,-0.06841097025503506,-0.10671049703036224,0.06490263548476884,740.0,12.749138633008663,0.6750674296972928,11.7702730117982,-0.10719949800411381,0.23,0.9999999999704344,567.0112945036159,1.5100595302887774,304,2026-10-07 19:47:13.213243,25.0,0.6879406919602051,0.283652200698397,0.11564396836725938
0002,cdot_cos,P,T-P,305,61,57429,0.0185412540789256,-0.0002376869538861882,0.123092864154914,0.9559475300303129,740.0,12.853020532605456,0.6761081147248803,11.807791699614262,-0.420121553531942,0.3,0.9999999999703417,-300.68853421793455,1.5150275352930502,305,2026-10-07 19:47:13.513243,25.0,0.47481171284712786,0.25895192617580187,0.3462729986559765
0002,cdot_cos,Q,P-Q,306,61,57558,-0.006182126524832188,-0.011942868000882045,-0.024723380603757786,0.3502172238193637,740.0,12.904509788714144,0.676488941183882,11.833795857715558,-0.209369539027537,0.129,0.9999999999699487,553.4069640456618,1.5199949583388561,306,2026-10-07 19:47:13.642244,25.0,0.36545832061804884,0.5609730310634596,0.39914152022238875
0002,cdot_cos,R,Q-R,307,61,57586,0.057032470927177954,0.23851150157188544,0.06321459745201014,0.8292561956477777,740.0,12.997751574619828,0.6773897422196115,11.868899971878765,-0.3807214310679872,0.028,0.9999999999697966,-190.221686303566,1.5249620349772317,307,2026-10-07 19:47:13.670244,25.0,0.637582518497633,2.355697671562216,3.3300637823458725
0002,cdot_cos,S,R-S,308,61,57638,0.0018421748120845643,-0.009076787434787386,-0.05519029611509339,0.20104796473754333,740.0,13.036428858321628,0.6776079378455276,11.892043909379058,-0.1586740530659701,0.052,0.999999999969369,1017.652746564738,1.5299291963346406,308,2026-10-07 19:47:13.722244,25.0,0.24674666440900328,0.8171566170451442,0.7437939173423016
0002,cdot_cos,T,S-T,309,61,57869,-0.03433026940572717,-0.02265299897809587,-0.03617244421781173,0.28816537020914923,740.0,13.082735862792523,0.6779205462731792,11.916828679097113,-0.19049813809207283,0.231,0.9999999999689868,-101.80175008452821,1.534896982921313,309,2026-10-07 19:47:13.953243,25.0,0.8461512124523995,0.291256500154934,0.2004632228177286
0002,cdot_cos,P,T-P,310,62,58169,0.0133746441497275,-0.00014673178483229653,0.04770491355545467,0.767209828652155,799.0,13.170989361393207,0.6787520565505226,11.950737099064423,-0.364432121063423,0.3,0.9999999999688113,-209.17839227081146,1.5398650154469742,310,2026-10-07 19:47:14.253243,25.0,0.6204724849194291,0.2371868928128625,0.2941783286689474
0002,cdot_cos,Q,P-Q,311,62,58298,-0.007102229108284806,-0.011362092531229162,-0.020476873258012306,0.3747431115500995,799.0,13.22504799848024,0.6791577958768761,11.977153516771605,-0.2242893730576228,0.129,0.9999999999684276,345.4009481045834,1.5448324482085123,311,2026-10-07 19:47:14.382244,25.0,0.535352385254842,0.5838381882584237,0.41905920222506426
0002,cdot_cos,R,Q-R,312,62,58328,0.06502137391220703,0.20281062261100005,0.07212360302049184,0.8585246718235242,799.0,13.32161961396388,0.6800863113877438,12.012795106338622,-0.40234490055168,0.03,0.9999999999682946,-191.7636543601343,1.5497995316651731,312,2026-10-07 19:47:14.412243,25.0,0.6423997461156707,2.2093947073318354,3.219053849454667
0002,cdot_cos,S,R-S,313,62,58378,0.0006913626828018486,-0.010298858398662061,-0.06433001122940518,0.16683168081969665,799.0,13.35761168092015,0.6802665787423458,12.035220127416565,-0.150657430438075,0.05,0.9999999999678462,1396.1899572406196,1.5547666879495265,313,2026-10-07 19:47:14.462244,25.0,0.18813519171255833,0.8955078278706452,0.7198413391254022
0002,cdot_cos,T,S-T,314,62,58608,-0.021240208574473455,-0.00669554977795667,-0.021931571257275302,0.3662613997723688,799.0,13.411170396750945,0.6806621478157875,12.061439862807811,-0.22479334430122286,0.23,0.9999999999674997,-187.41584931832955,1.5597344913476439,314,2026-10-07 19:47:14.692243,25.0,0.7190705109207045,0.2962619710212514,0.23286398187301918
0002,cdot_cos,P,T-P,315,63,58968,0.011937498907134313,-9.838319951657405e-05,0.03317770748160777,0.6962370760352696,920.0,13.493892187589926,0.6814133796656351,12.093964638818086,-0.3485253181040576,0.36,0.999999999967292,-164.70544190576567,1.5647027679700294,315,2026-10-07 19:47:15.052243,25.0,0.7011624066496273,0.19236617128374336,0.22978275233050344
0002,cdot_cos,Q,P-Q,316,63,59097,-0.006076836515452954,-0.007219629940561369,-0.018014335422587267,0.38927556005113023,920.0,13.54967404007524,0.6818329931275761,12.120607037524808,-0.23606554589802436,0.129,0.9999999999669028,268.00801786920164,1.569670209886795,316,2026-10-07 19:47:15.181243,25.0,0.6210199034966448,0.6154461526363679,0.4324174611264649
0002,cdot_cos,R,Q-R,317,63,59114,0.09296534767783579,0.14905237064534257,0.09904218419328875,0.9224460168213845,920.0,13.65267729497011,0.6828261508203264,12.157453050763733,-0.43773056648581177,0.017,0.9999999999668008,-203.05438105133345,1.5746372449485502,317,2026-10-07 19:47:15.198244,25.0,0.6308382286302614,3.8838803535100146,6.05901499381582
0002,cdot_cos,S,R-S,318,63,59157,-0.002067367912012802,-0.007185531050143397,-0.09503271558984859,0.0850353880085989,920.0,13.681725972094581,0.6829176211423262,12.178244725963284,-0.12402809772776145,0.043,0.9999999999663027,3429.5546566300745,1.5796043768565784,318,2026-10-07 19:47:15.241244,25.0,0.07971595726235656,0.7748118844079054,0.6755506308016644
0002,cdot_cos,T,S-T,319,63,59408,-0.06235254331841831,0.013382393614844747,-0.06028517540640551,0.1813646078292502,920.0,13.71931111702919,0.683112663040182,12.200861400755713,-0.16081390559700334,0.251,0.9999999999658564,-188.60464481554274,1.5845722761928698,319,2026-10-07 19:47:15.492243,25.0,0.7955292358620748,0.27127209309475336,0.149741613285292
0002,cdot_cos,P,T-P,320,64,59888,0.012886264377688156,-0.0001356135264825787,0.07523880769610647,0.8677225250161877,1059.0,13.817904562828147,0.6840449322270988,12.236647986654914,-0.42327242195146486,0.48,0.9999999999657307,-281.526537654284,1.589541029175976,320,2026-10-07 19:47:15.972243,25.0,0.5379068010065776,0.16176125151057263,0.2054030120811623
0002,cdot_cos,Q,P-Q,321,64,59977,-0.004242424613814679,-0.002454808361983185,-0.017128688991502834,0.39455212208215396,1059.0,13.874601918479339,0.6844683451578626,12.263341237404038,-0.24460413426925556,0.089,0.9999999999653136,421.9717318503381,1.5945083293952624,321,2026-10-07 19:47:16.061243,25.0,0.4816976981471612,0.9133053756448501,0.6370489399010318
0002,cdot_cos,R,Q-R,322,64,60032,0.1099042624951414,0.13168482501189535,0.11414668710895608,0.9455079345885591,1059.0,13.98047291969293,0.6854817690285149,12.30061349698314,-0.458632550933578,0.055,0.9999999999652192,-211.19338399495564,1.5994755043301567,322,2026-10-07 19:47:16.116243,25.0,0.6270892317174895,1.2067879937378123,1.9249272947925726
0002,cdot_cos,S,R-S,323,64,60077,-0.0015509243279384186,-0.0031949846514482245,-0.11145518682307982,0.05806464595921174,1059.0,14.007348597790498,0.6855439470380009,12.320816540511846,-0.11696816097434468,0.045,0.9999999999646818,5494.939332786212,1.6044426428595717,323,2026-10-07 19:47:16.161243,25.0,0.05387960011548396,0.6784004297765773,0.5972372910570635
0002,cdot_cos,T,S-T,324,64,60328,-0.07417467487832481,0.0450087602038935,-0.07262375055038639,0.13996342682676036,1059.0,14.041528958372822,0.6856937982728765,12.34257157102778,-0.14904539903934452,0.251,0.9999999999641918,-214.06055206446163,1.6094105619780403,324,2026-10-07 19:47:16.412243,25.0,0.8063657124336469,0.27171782025423946,0.1361767353877454
0002,cdot_cos,P,T-P,325,65,60947,0.013577867563407214,-0.0001518773717581756,0.08775254244173203,0.8996925893986704,900.0,14.143750943558127,0.6866561257340755,12.378953704531815,-0.44716616246080715,0.619,0.9999999999640713,-309.7913916433424,1.6143798873338226,325,2026-10-07 19:47:17.031244,25.0,0.5134056508510937,0.1272736095001182,0.16514052533974818
0002,cdot_cos,Q,P-Q,326,65,61036,-0.006944275513633032,-0.004950301306684706,-0.020522143077040245,0.374477969076614,900.0,14.199093686933969,0.6870562016707146,12.40521037471016,-0.24327923799623807,0.089,0.999999999963598,509.62056397938215,1.6193471894913734,326,2026-10-07 19:47:17.120243,25.0,0.43254116275331767,0.8990410078545185,0.6218285772566542
0002,cdot_cos,R,Q-R,327,65,61089,0.09252844172876326,0.15140905793837134,0.09947271724239629,0.9232125256644768,900.0,14.30378024295623,0.6880413320289905,12.44203654472038,-0.4619901972770465,0.053,0.9999999999634697,-222.01220117057926,1.6243143552025476,327,2026-10-07 19:47:17.173243,25.0,0.6228743975482054,1.266982972552472,1.9752180381558881
0002,cdot_cos,S,R-S,328,65,61136,-0.0018838826046768276,-0.007292963121171429,-0.09441232433344009,0.08624990911657195,900.0,14.33339388202453,0.688133279920366,12.46271181365952,-0.13128258095186945,0.047,0.9999999999629104,3596.6851591493837,1.629281499056059,328,2026-10-07 19:47:17.220243,25.0,0.08053593812260343,0.8591184021704651,0.6300774269851053
0002,cdot_cos,T,S-T,329,65,61387,-0.031060146123676528,0.0024608151504859283,-0.0291762635189997,0.3253249611074489,900.0,14.384537372760255,0.6884799636109575,12.487983616057216,-0.2272287214338254,0.251,0.999999999962486,-276.75412223241324,1.6342494376185548,329,2026-10-07 19:47:17.471244,25.0,0.6555735513712034,0.2819151504690728,0.20375892723395925
0002,cdot_cos,P,T-P,330,66,61847,0.014928398294889273,-0.00017666582141778045,0.0459885444185658,0.7594586028430866,959.0,14.474915287560005,0.6892884612175229,12.521636071096767,-0.40294936451842567,0.46,0.9999999999622676,-217.34219329492117,1.639218198614978,330,2026-10-07 19:47:17.931243,25.0,0.6465620124831721,0.15779642415567136,0.19647372782554515
0002,cdot_cos,Q,P-Q,331,66,61976,-0.0074431561940571005,-0.008295585868050384,-0.022371554488946375,0.3637120192392968,959.0,14.529710082983472,0.689675250088197,12.547633264911138,-0.24536343041430786,0.129,0.9999999999617853,407.4210662511284,1.6441856622409081,331,2026-10-07 19:47:18.060243,25.0,0.5261046247014449,0.6250631203583075,0.42476585599586725
0002,cdot_cos,R,Q-R,332,66,62002,0.09858784432985554,0.1587130124071335,0.10603100052391264,0.9340587419583808,959.0,14.636181572612449,0.6906673581576396,12.584650491219934,-0.4785691430677339,0.026,0.9999999999616478,-235.0607961332747,1.6491527207072734,332,2026-10-07 19:47:18.086244,25.0,0.6142840435538366,2.6019601084990875,4.095057293422172
0002,cdot_cos,S,R-S,333,66,62056,-0.001859840714626356,-0.008910143787070727,-0.1004476850444819,0.07507728548065179,959.0,14.665012008625425,0.6907470252367076,12.60504267963384,-0.1301706422481659,0.054,0.9999999999610625,4373.1803010128815,1.6541198920024434,333,2026-10-07 19:47:18.140243,25.0,0.06880524930044808,0.5555854324687506,0.5338969632032607
0002,cdot_cos,T,S-T,334,66,62287,-0.0893015818890185,0.0242124622825356,-0.08744174117439214,0.10101080452892484,959.0,14.696184799319074,0.6908541933791088,12.625913580600129,-0.1410076200312244,0.231,0.9999999999604933,-101.12126178775578,1.6590877698309996,334,2026-10-07 19:47:18.371244,25.0,0.9260251868661609,0.29854919253674006,0.13494714585995227
0002,cdot_cos,P,T-P,335,67,62806,0.015664921008310233,-8.958073381372758e-05,0.10496650289732873,0.9324005451036805,900.0,14.802941735577399,0.691842460451796,12.662889723581655,-0.4843135693348428,0.519,0.9999999999603634,-347.3817541751566,1.664056807403481,335,2026-10-07 19:47:18.890244,25.0,0.4922096333371416,0.15553251319729217,0.2056973723667147
0002,cdot_cos,Q,P-Q,336,67,62936,-0.007698454217588948,-0.009713686231708367,-0.02336337522589918,0.3579933202215684,900.0,14.857627548017863,0.6922214377768484,12.688725019591985,-0.24927552775515271,0.13,0.9999999999598489,620.1902489737936,1.6690242821771817,336,2026-10-07 19:47:19.020243,25.0,0.389502676899464,0.6168864143086185,0.4206600956958795
0002,cdot_cos,R,Q-R,337,67,62963,0.08835120947584754,0.17307467376484847,0.0960496636934365,0.9169219321431998,900.0,14.96333220329764,0.6931909237101134,12.725390750876365,-0.4835908180925874,0.027,0.9999999999596892,-241.6902425271157,1.673991341439472,337,2026-10-07 19:47:19.047244,25.0,0.6159853288842903,2.5312437398531107,3.9149872325843136
0002,cdot_cos,S,R-S,338,67,63015,-0.0011865994522750373,-0.010470329998777233,-0.08953780892812258,0.09635082706853947,900.0,14.994314709969931,0.6932926991273707,12.746128145186637,-0.14236667768936415,0.052,0.9999999999590885,3352.7166932711684,1.6789585041185389,338,2026-10-07 19:47:19.099244,25.0,0.09100891559609162,0.818767997065518,0.5958174360056062
