record_id,input,event,transition,event_index,k,peak,value_cos,value_sin,value_return,x_input,rr,knowledge,decision,decision_norm,entropy,delta_t,cosine_similarity,delta_h_over_delta_d,frobenius_norm,matrix_size,timestamp,scale,P,zdot,zdot_back
0153,cdot_cos,Q,P-Q,1,0,1906,-0.019486228921881166,-0.013877889420460301,-0.044470496094263,0.24754246830276969,1034.0,0.0012295784747732015,0.5003073945799651,0.5003073945799651,,,1.0,,0.004967141530112327,1,2026-10-08 01:01:17.990243,25.0,,,
0153,cdot_cos,R,Q-R,2,0,1929,0.06237174354142046,0.07797799023853642,0.08185797246330162,0.8855883494551926,1034.0,0.007959789516501382,0.5014071015713404,0.7090967233123736,-1.1153095952897735e-05,,1.0,,0.009934283060224654,2,2026-10-08 01:01:18.013243,25.0,,,
0153,cdot_cos,S,R-S,3,0,1953,-0.002960999623932574,-0.004947252088519876,-0.06533274316535304,0.16337625617308343,1034.0,0.011154293112301587,0.501609977968571,0.8688139674250701,-1.101125675819155e-05,0.024,1.0000000000000002,0.0006991409382381895,0.014901424593744031,3,2026-10-08 01:01:18.037244,25.0,0.9872013184517929,0.10281813224740444,0.13310431649167523
0153,cdot_cos,T,S-T,4,0,2241,-0.2622199567060116,0.09633933875137199,-0.259258957082079,0.00152920955615293,1034.0,0.012895059864376794,0.5016118768989329,1.003223753798309,-7.549601326790489e-06,0.288,0.9999999999999999,1.8229501727690696,0.019868566175708004,4,2026-10-08 01:01:18.325243,25.0,0.632217612774445,0.024934218565254195,0.006044329000261137
0153,cdot_cos,P,T-P,5,1,2817,0.029353635581374975,-0.0011702384205133447,0.2915735922873866,0.9993176871990613,998.0,0.025516403005888002,0.5028527896224628,1.1244130202797942,-8.74252404303374e-05,0.576,1.0,-0.06436845846526064,0.024835707914417884,5,2026-10-08 01:01:18.901243,25.0,0.4010596696025392,0.015392938186634316,0.021912054065123625
0153,cdot_cos,Q,P-Q,6,1,2934,-0.021288848562265435,-0.01508654857065938,-0.05064248414364041,0.2199321002119159,998.0,0.030627724655379523,0.5031258883207138,1.232401702798079,-5.1749377168398735e-05,0.117,1.0000000000000002,0.13063358957922125,0.029802849491632758,6,2026-10-08 01:01:19.018244,25.0,0.5018786311044295,0.08238580179882905,0.04368650982471386
0153,cdot_cos,R,Q-R,7,1,2957,0.06286378240496697,0.07820730362165482,0.08415263096723241,0.8912734990311462,998.0,0.044794680626814,0.5042325983430295,1.3340740581866455,-0.00019267721131248141,0.023,1.0,-0.12733943969280032,0.03476999100542487,7,2026-10-08 01:01:19.041243,25.0,0.481225494020441,0.424037315703313,0.6159546074536729
0153,cdot_cos,S,R-S,8,1,2982,-0.003506841608336749,-0.006075192011933617,-0.06637062401330372,0.15986060599567817,998.0,0.05013344117773192,0.5044310960039153,1.4267465945437685,-9.138728449511911e-05,0.025,0.9999999999999997,0.5102827225536075,0.03973713254306434,8,2026-10-08 01:01:19.066243,25.0,0.33010018399126356,0.1682955740889898,0.2135504220367168
0153,cdot_cos,T,S-T,9,1,3276,-0.24566484743702283,0.11120064149309804,-0.24215800582868607,0.0023430636386929373,998.0,0.05320945933126349,0.5044340053574281,1.51330201611902,-5.732181561830919e-05,0.294,1.0000000000000002,11.708947959499145,0.04470427459476116,9,2026-10-08 01:01:19.360243,25.0,0.5519573275400386,0.036809671227818815,0.010462646780719623
0153,cdot_cos,P,T-P,10,2,3815,0.02594073945993803,-0.0006825789814939462,0.27160558689696085,0.99887645212172,1007.0,0.07177752785968938,0.5056742681587661,1.5990824416746499,-0.00041846596915182685,0.539,1.0,-0.29118357266210143,0.049671417383637506,10,2026-10-08 01:01:19.899244,25.0,0.4218864105931563,0.024019614938049466,0.034449106731773455
0153,cdot_cos,Q,P-Q,11,2,3932,-0.021945504220371385,-0.01467583149541692,-0.047886243680309415,0.23198151822353885,1007.0,0.07910260423448082,0.5059623004014915,1.6780871088605596,-0.0001992815100594438,0.117,1.0000000000000002,0.7609719558424457,0.054638559120928215,11,2026-10-08 01:01:20.016243,25.0,0.3329131826290839,0.11287119208557336,0.06260749038283277
0153,cdot_cos,R,Q-R,12,2,3955,0.0681455661120383,0.08286649376726998,0.09009107033240968,0.9048467427435416,1007.0,0.09818938680771355,0.5070857340884387,1.7565965108973451,-0.0006101254868259595,0.023,0.9999999999999999,-0.3657038074787715,0.059605700559223374,12,2026-10-08 01:01:20.039244,25.0,0.5099838646623474,0.5590151699443756,0.8298601118796842
0153,cdot_cos,S,R-S,13,2,3980,-0.0024395184187074584,-0.004055649735616736,-0.07058508453074576,0.1462117731581941,1007.0,0.10481730205192209,0.5072672603254598,1.828978117899691,-0.00024259401956502246,0.025,0.9999999999999999,2.024674081787438,0.06457284205247872,13,2026-10-08 01:01:20.064243,25.0,0.2198068007150988,0.21284628654251792,0.2651166097683416
0153,cdot_cos,T,S-T,14,2,4257,-0.23334741515616297,0.11493952004255722,-0.23090789673745551,0.0031017030674241356,1007.0,0.10883170113483945,0.5072711111608889,1.8980347006192901,-0.00015463724898377864,0.277,0.9999999999999999,22.84095807285753,0.06953998494042031,14,2026-10-08 01:01:20.341243,25.0,0.56620775962786,0.04880942020530964,0.014492415461795506
0153,cdot_cos,P,T-P,15,3,4822,0.02323618215242921,-1.066473298431775e-05,0.2565835973085922,0.9983651857419736,1014.0,0.13185772084566363,0.5085105570447301,1.969452919602484,-0.0009991589586765262,0.565,0.9999999999999998,-0.681370377442709,0.07450712989001929,15,2026-10-08 01:01:20.906244,25.0,0.4294574611337283,0.028357946359357962,0.04075401718729945
0153,cdot_cos,Q,P-Q,16,3,4944,-0.02369602647545178,-0.01653347920798776,-0.046932208627880986,0.23625807070869023,1014.0,0.14087618052091394,0.5088038509024574,2.0352154051617775,-0.0004434262295802238,0.122,0.9999999999999998,1.894798388901509,0.07947427194725167,16,2026-10-08 01:01:21.028243,25.0,0.28556949599257314,0.1304510183636594,0.0739218006168058
0153,cdot_cos,R,Q-R,17,3,4966,0.06515444320891597,0.08175407848759605,0.08885046968436776,0.9021426404642934,1014.0,0.16368776932639653,0.5099237250747801,2.1024693812341426,-0.0012524127236062978,0.022,1.0,-0.7223905274537711,0.08444141324186427,17,2026-10-08 01:01:21.050244,25.0,0.524168327364063,0.6997688782073574,1.0368904002492088
0153,cdot_cos,S,R-S,18,3,4989,-0.0031732332584366147,-0.00536219247929911,-0.06832767646735259,0.15339838021896923,1014.0,0.17166601116203767,0.5101141364548276,2.1642309921426808,-0.00048229994532336093,0.023,0.9999999999999997,4.044468235516413,0.08940855461588443,18,2026-10-08 01:01:21.073244,25.0,0.20255360606196854,0.27782328914412424,0.3468800798104842
0153,cdot_cos,T,S-T,19,3,5277,-0.21907832536946234,0.10763834453259799,-0.21590509211102574,0.004506905984034827,1014.0,0.17646764062702625,0.5101197307734944,2.223560357313119,-0.0003013292299658361,0.288,0.9999999999999997,32.349018019458455,0.09437569891914228,19,2026-10-08 01:01:21.361243,25.0,0.5484963183446917,0.05476764670105727,0.01667232453121034
0153,cdot_cos,P,T-P,20,4,5836,0.021947471290401047,-0.0005402355771735928,0.2410257966598634,0.9975898300026047,1013.0,0.20321217566184666,0.5113579511642846,2.2868622818811395,-0.0018302607041901526,0.559,0.9999999999999999,-1.2347813730062511,0.09934284685572338,20,2026-10-08 01:01:21.920243,25.0,0.4337171553836798,0.03324438098164007,0.0478435331571027
0153,cdot_cos,Q,P-Q,21,4,5954,-0.024726525779658455,-0.016716817019585342,-0.0466739970700595,0.23742484672297326,1013.0,0.21363485856449985,0.5116526257509205,2.3446868913403622,-0.0007830776853755282,0.118,0.9999999999999996,3.553693010210343,0.10430998929401364,21,2026-10-08 01:01:22.038244,25.0,0.26256258283076866,0.15413203348740528,0.08832782120892535
0153,cdot_cos,R,Q-R,22,4,5978,0.06234735688129914,0.07694554001145518,0.08707388266095759,0.898151016938956,1013.0,0.2395873355648743,0.51276727099725,2.405091693701884,-0.002119782379445721,0.024,0.9999999999999994,-1.1992198400989171,0.10927713043042936,22,2026-10-08 01:01:22.062243,25.0,0.5322798934400031,0.7334380428852075,1.0813532083489354
0153,cdot_cos,S,R-S,23,4,6002,-0.003280803640188432,-0.005507854398640058,-0.06562816052148757,0.16236929017210158,1013.0,0.2488398846229898,0.5129687652587385,2.4601117796064758,-0.0008144295735645706,0.024,0.9999999999999994,6.478362193731808,0.11424427166254643,23,2026-10-08 01:01:22.086244,25.0,0.20133568546201144,0.30697234851467514,0.3855228774214796
0153,cdot_cos,T,S-T,24,4,6276,-0.21231427292605998,0.10825596287996016,-0.20903346928587155,0.005347114583703914,1013.0,0.2543220082935787,0.5129754007581059,2.513055969652402,-0.00049710548049465,0.274,0.999999999999999,47.82218722350946,0.1192114175172117,24,2026-10-08 01:01:22.360243,25.0,0.5281665644562749,0.0647719935176697,0.02000775062258721
0153,cdot_cos,P,T-P,25,5,6849,0.02413827065789955,-0.0009484622850104239,0.23645254358395953,0.9972986903132323,1013.0,0.2843349370706728,0.5142129156059064,2.57106458425742,-0.00291309152397644,0.573,0.9999999999999991,-1.9522885303362272,0.12417856974440872,25,2026-10-08 01:01:22.933243,25.0,0.4363307752298833,0.036377935656584044,0.05237858425321834
0153,cdot_cos,Q,P-Q,26,5,6966,-0.022258483682074212,-0.014334218412834315,-0.04639675433997376,0.23868202930332116,1013.0,0.296011122556024,0.5145090629432051,2.6234917613764903,-0.0012209748688628292,0.117,0.9999999999999986,5.713766230513664,0.12914571270081363,26,2026-10-08 01:01:23.050244,25.0,0.25010524967497527,0.17300235352023585,0.09979645713975392
0153,cdot_cos,R,Q-R,27,5,6988,0.06458298033883371,0.07680611533605333,0.08684146402090792,0.8976182691179112,1013.0,0.324817487794408,0.515622699710598,2.6792541504797067,-0.0032219629315059896,0.022,0.9999999999999984,-1.7968049558273025,0.13411285355854158,27,2026-10-08 01:01:23.072243,25.0,0.5373818964782938,0.8835757014696501,1.3093802381083628
0153,cdot_cos,S,R-S,28,5,7012,-0.002830326029999676,-0.004548567549274451,-0.06741330636883339,0.15639062744727833,1013.0,0.3348884534206886,0.5158167113453452,2.7294454907922607,-0.0011969369011486349,0.024,0.9999999999999984,10.437652530458106,0.1390799945882955,28,2026-10-08 01:01:23.096244,25.0,0.18418027352774963,0.3342643234719479,0.41962356776169274
0153,cdot_cos,T,S-T,29,5,7294,-0.25735701028235286,0.09550355837527119,-0.2545266842523532,0.0017209315767464726,1013.0,0.3408621753210615,0.515818846234266,2.7777695078137237,-0.0007272455778254975,0.282,0.9999999999999981,220.00738247146117,0.14404714278199973,29,2026-10-08 01:01:23.378243,25.0,0.524216936461926,0.06912046155159554,0.021183410994230056
0153,cdot_cos,P,T-P,30,6,7862,0.025512901784838494,-0.0008541034522779627,0.28286991206719136,0.9991519713946903,1006.0,0.3738723937357885,0.5170582367984573,2.8320446111286923,-0.004249833867347285,0.568,0.9999999999999983,-2.8421938905273465,0.1490142999302532,30,2026-10-08 01:01:23.946244,25.0,0.43653937384238606,0.04021076187584433,0.058116581716068684
0153,cdot_cos,Q,P-Q,31,6,7979,-0.021779782457700184,-0.014853130334284639,-0.04729268424253868,0.2346358301980175,1006.0,0.38654160081202066,0.517349259191608,2.8804787865496975,-0.0017352453428249783,0.117,0.999999999999997,8.640532768968422,0.15398144354021925,31,2026-10-08 01:01:24.063244,25.0,0.23477547577676483,0.18816765037553287,0.10828382116437732
0153,cdot_cos,R,Q-R,32,6,8002,0.06437440840297284,0.07884156477846373,0.08615419086067302,0.8960284416936467,1006.0,0.4179036239236632,0.5184605069255137,2.9328555409379646,-0.004543522499724962,0.023,0.9999999999999971,-2.5271387029332772,0.15894858413198568,32,2026-10-08 01:01:24.086244,25.0,0.5389762937085266,0.9197654206702461,1.363566222245328
0153,cdot_cos,S,R-S,33,6,8026,-0.002983500086182204,-0.004965897681457217,-0.06735790848915504,0.15657343406847005,1006.0,0.428850810162852,0.5186546696895569,2.9794442610904275,-0.0016693199538962535,0.024,0.9999999999999967,14.803057424490577,0.1639157249057077,33,2026-10-08 01:01:24.110244,25.0,0.178747604201095,0.3631079932908468,0.45613275996619906
0153,cdot_cos,T,S-T,34,6,8309,-0.27433074322946543,0.09288292079132307,-0.27134724314328323,0.0011308196693451955,1006.0,0.43533280760162385,0.5186560719700686,3.0242586248219525,-0.001008775188398334,0.283,0.9999999999999967,471.0503782820583,0.16888287575348343,34,2026-10-08 01:01:24.393243,25.0,0.5195465937726655,0.07457232622740433,0.022904584589299892
0153,cdot_cos,P,T-P,35,7,8868,0.027184963435045867,-0.0009067909584808942,0.30151570666451133,0.9994677647906594,980.0,0.4710587468075628,0.5198953512171801,3.075742399687896,-0.0058303670076557965,0.559,0.999999999999996,-3.890641944094072,0.17385003850844535,35,2026-10-08 01:01:24.952243,25.0,0.43736852737571197,0.04418042669682402,0.06391044580668867
0153,cdot_cos,Q,P-Q,36,7,8982,-0.02016070581822058,-0.014540636534457972,-0.04734566925326644,0.2343980351536665,980.0,0.4847265246486731,0.5201859556521778,3.121115764862874,-0.002351984018371786,0.114,0.9999999999999954,11.969476616250388,0.17881718276869246,36,2026-10-08 01:01:25.066243,25.0,0.22788495031409547,0.20766974490242507,0.11989278807991477
0153,cdot_cos,R,Q-R,37,7,9010,0.06489936233603553,0.08496203075374822,0.08506006815425611,0.8934524455007891,980.0,0.5184074486453157,0.5212935224761485,3.170904738259086,-0.00608189771415929,0.028,0.9999999999999951,-3.3676646998289397,0.18378432326913008,37,2026-10-08 01:01:25.094244,25.0,0.5415709330346861,0.8092154738544587,1.2028901427372367
0153,cdot_cos,S,R-S,38,7,9036,-0.0036363194090617075,-0.006762266003511957,-0.06853568174509725,0.1527242695532606,980.0,0.5300425911845228,0.5214828262133485,3.214636068753695,-0.0021958442436194863,0.026,0.9999999999999944,20.52813921171082,0.1887514638442442,38,2026-10-08 01:01:25.120243,25.0,0.17037882686599487,0.35789174628199893,0.44750548227719444
0153,cdot_cos,T,S-T,39,7,9326,-0.2638885004300839,0.05904224431948119,-0.26025218102102216,0.0014917618600443462,980.0,0.5370178194519797,0.5214846752414194,3.2566707857205692,-0.0013397673089768718,0.29,0.9999999999999937,462.98752740757294,0.19371861810291613,39,2026-10-08 01:01:25.410244,25.0,0.5278335231973338,0.07795359809765297,0.024052511267092725
0153,cdot_cos,P,T-P,40,8,9848,0.03381598610664999,0.0004902444640594287,0.29770448653673387,0.9994145897913194,1017.0,0.5752556780811615,0.5227233075731957,3.3059925142025985,-0.007654058670598806,0.522,0.9999999999999931,-5.097793105857724,0.19868578563375952,40,2026-10-08 01:01:25.932243,25.0,0.43825257256037603,0.05056755103219186,0.07325260273789623
0153,cdot_cos,Q,P-Q,41,8,9962,-0.013858135655392435,-0.010748047986499667,-0.04767412176204242,0.2329276841435519,1017.0,0.589810342729588,0.5230119487382346,3.348910534143628,-0.003051521213346235,0.114,0.9999999999999922,15.945533814042792,0.20365293079103888,41,2026-10-08 01:01:26.046243,25.0,0.22129106476277471,0.22296131196113195,0.1276724969160217
0153,cdot_cos,R,Q-R,42,8,9990,0.07628101853018507,0.09262591588298358,0.0901391541855775,0.90495019181602,1017.0,0.6260908572082996,0.5241332044541837,3.3967714403075457,-0.007936761731738656,0.028,0.9999999999999917,-4.356937002776075,0.20862007101219335,42,2026-10-08 01:01:26.074244,25.0,0.5403594989807077,0.8514208130459318,1.295732659953986
0153,cdot_cos,S,R-S,43,8,10012,-0.002484479461395002,-0.004088927068323752,-0.07876549799158007,0.12248156338916899,1017.0,0.6374899082601602,0.5242849437072356,3.437966338505965,-0.0025913765893462557,0.022,0.9999999999999907,35.22743808791657,0.2135872110382108,43,2026-10-08 01:01:26.096244,25.0,0.12710282079650229,0.42685691559879196,0.5181386841754803
0153,cdot_cos,T,S-T,44,8,10304,-0.3172763563555247,0.09011706599707715,-0.3147918768941297,0.0003819659989437582,1017.0,0.6448725614946464,0.5242854169080713,3.477716072830632,-0.0017032643453972287,0.292,0.9999999999999897,1876.8188407029713,0.21855436901222272,44,2026-10-08 01:01:26.388243,25.0,0.5936782701907665,0.08216706713593856,0.02528305902221329
0153,cdot_cos,P,T-P,45,9,10865,0.037890802808579066,-1.5914182718469878e-05,0.3551671591641038,0.9998607609374773,1026.0,0.6854754754675483,0.5255239483375224,3.5253218754203024,-0.009715693989566397,0.561,0.9999999999999897,-6.46929860126387,0.223521546393415,45,2026-10-08 01:01:26.949243,25.0,0.4383711385390273,0.05027621164061186,0.0723759607360104
0153,cdot_cos,Q,P-Q,46,9,10977,-0.007264820140829119,-0.006044448795961007,-0.04515562294940818,0.24436589970039732,1026.0,0.701282470955413,0.5258265981695704,3.5663295765306486,-0.003942523356254988,0.112,0.9999999999999878,19.075413306008915,0.22848869234822666,46,2026-10-08 01:01:27.061243,25.0,0.23123196197201976,0.24102065105432308,0.1411338882845061
0153,cdot_cos,R,Q-R,47,9,11005,0.08000497989604616,0.09361856646988785,0.08726980003687528,0.8985981863213808,1026.0,0.7394641013037166,0.526939356950673,3.612514303188598,-0.009891543406371729,0.028,0.999999999999987,-5.346190163714121,0.23345583219489618,47,2026-10-08 01:01:27.089243,25.0,0.5480302164145103,0.8938652680098342,1.36362965529656
0153,cdot_cos,S,R-S,48,9,11026,-0.0005803794899652905,-0.000881195677899391,-0.08058535938601145,0.1176749892977191,1026.0,0.7513389259639637,0.5270850575392662,3.6517524749911603,-0.0031831401130949194,0.021,0.9999999999999859,46.04238979436677,0.23842297169086704,48,2026-10-08 01:01:27.110244,25.0,0.12154390316619328,0.46820196111572543,0.5654678409641443
0153,cdot_cos,T,S-T,49,9,11308,-0.3680750930729605,0.13321316226998994,-0.3674947135829952,0.00010231337422818111,1026.0,0.7591285836705771,0.5270851842176976,3.68959636621626,-0.0021156218050743083,0.282,0.9999999999999848,8426.99342048397,0.24339013283779345,49,2026-10-08 01:01:27.392244,25.0,0.603754004795454,0.08974830599080678,0.027622899668841988
0153,cdot_cos,P,T-P,50,10,11891,0.028663164100157255,-0.00044967411755302987,0.3967382571731177,0.9999507452961492,1003.0,0.8019569705427787,0.5283230956048065,3.735808521889429,-0.012018414330996567,0.583,0.9999999999999842,-7.999597248272837,0.2483573207347324,50,2026-10-08 01:01:27.975244,25.0,0.438687349133099,0.05149766841416729,0.07346207010669226
0153,cdot_cos,Q,P-Q,51,10,12010,-0.013087125506399521,-0.010076476638171145,-0.04175028960655677,0.2604256827526278,1003.0,0.8191748650414962,0.5286454388560229,3.7752836728181234,-0.0050171273258355666,0.119,0.9999999999999812,21.719973905894346,0.25332446834370953,51,2026-10-08 01:01:28.094244,25.0,0.24771478816604744,0.23950922648708636,0.14468818906485267
0153,cdot_cos,R,Q-R,52,10,12033,0.06957777925460318,0.08716362535490649,0.0826649047610027,0.8876164968293875,1003.0,0.8589601664467053,0.5297439097500286,3.820037769926752,-0.011997603338619243,0.023,0.9999999999999807,-6.354720958812516,0.2582916072678682,52,2026-10-08 01:01:28.117243,25.0,0.5588788603840519,1.155649341740566,1.7297957132699602
0153,cdot_cos,S,R-S,53,10,12055,-0.002194176799736178,-0.003702540625640481,-0.07177195605433935,0.14254647390909064,1003.0,0.8723347347615622,0.5299202917450275,3.857878067402386,-0.004160805554221381,0.022,0.9999999999999789,44.43082631220865,0.26325874633061697,53,2026-10-08 01:01:28.139244,25.0,0.15205987843200514,0.4904800352442522,0.6079349234025886
0153,cdot_cos,T,S-T,54,10,12342,-0.3128992396649503,0.09513313785380775,-0.31070506286521415,0.0004230375134169486,1003.0,0.8805412879974523,0.5299208151856725,3.8941069147908274,-0.0025848689793741926,0.287,0.9999999999999772,3010.7264120259647,0.26822591228163634,54,2026-10-08 01:01:28.426244,25.0,0.5435261032450214,0.09259821740890511,0.0285942621459587
0153,cdot_cos,P,T-P,55,11,12894,0.02306020964054729,-0.000803499482545283,0.3359594493054976,0.999774955253615,1000.0,0.9254861115542737,0.5311576889266081,3.939170972564098,-0.014581386680705893,0.552,0.9999999999999764,-9.699064103549553,0.27319310696683613,55,2026-10-08 01:01:28.978244,25.0,0.4392317159780574,0.05630705852107235,0.08142178180583584
0153,cdot_cos,Q,P-Q,56,11,13016,-0.023511524513950163,-0.017200433838691194,-0.04657173415449745,0.23788803589251215,1000.0,0.9427042806047162,0.5314519368227956,3.977022279180232,-0.005777910162915427,0.122,0.9999999999999729,29.918570810039874,0.2781602562240703,56,2026-10-08 01:01:29.100243,25.0,0.21791641282756052,0.24201042350621796,0.14113253320034827
0153,cdot_cos,R,Q-R,57,11,13038,0.06095984492828157,0.07858838463536157,0.08447136944223173,0.8920432790888791,1000.0,0.9845366548897909,0.5325551244223745,4.020703171004421,-0.014477315495445361,0.022,0.9999999999999721,-7.885698983427866,0.28312739449908536,57,2026-10-08 01:01:29.122243,25.0,0.5483184409704748,1.2895706729751377,1.9014715584124862
0153,cdot_cos,S,R-S,58,11,13062,-0.0033778363748583813,-0.00600153188348748,-0.06433768130313995,0.16680502923267335,1000.0,0.9994453902156223,0.5327613767732272,4.057389918904565,-0.005311223200579149,0.024,0.9999999999999698,44.441153067935105,0.2880945332775617,58,2026-10-08 01:01:29.146244,25.0,0.17803113026872416,0.4934715478906957,0.6211973052429737
0153,cdot_cos,T,S-T,59,11,13347,-0.21344837847455067,0.09456183842415973,-0.21007054209969228,0.005210975770501701,1000.0,1.0082232891885443,0.5327678199001756,4.092267428362633,-0.003164447513397034,0.285,0.9999999999999675,333.1884819852775,0.2930617038731308,59,2026-10-08 01:01:29.431243,25.0,0.5074259042049915,0.09763101396426539,0.030799645519024657
0153,cdot_cos,P,T-P,60,12,13894,0.020021647993256602,-0.0009589920190250207,0.23347002646780726,0.9970901819383059,975.0,1.0550950681752536,0.5340004714981325,4.136350035584949,-0.01735998470561553,0.547,0.9999999999999666,-11.516260730727353,0.29802890841256563,60,2026-10-08 01:01:29.978244,25.0,0.44143875162946106,0.05946404428038997,0.08568880984773171
0153,cdot_cos,Q,P-Q,61,12,14013,-0.02543857077510611,-0.01736960905754037,-0.04546021876836271,0.2429625386635282,975.0,1.073276953631291,0.5343007713351838,4.173022627378499,-0.006945800740418727,0.119,0.9999999999999621,34.67928610102809,0.30299605880670366,61,2026-10-08 01:01:30.097243,25.0,0.22327531824261543,0.2612865775758552,0.15278895341207885
0153,cdot_cos,R,Q-R,62,12,14035,0.06293607697003309,0.0817931389647181,0.0883746477451392,0.901087450743244,975.0,1.117281273638307,0.5354142897439631,4.215856540610387,-0.017296190589186765,0.022,0.9999999999999614,-9.295212155598756,0.3079631964982159,62,2026-10-08 01:01:30.119244,25.0,0.5496793333857902,1.3461707924407547,2.0001963639552796
0153,cdot_cos,S,R-S,63,12,14059,-0.0038109492535135666,-0.007048926926736526,-0.06674702622354665,0.15860082821685467,975.0,1.1325084684986841,0.5356102444294443,4.251274726409481,-0.006146641520511851,0.024,0.9999999999999583,56.89860919271724,0.31293033476081594,63,2026-10-08 01:01:30.143244,25.0,0.16301299097930388,0.5072310005609046,0.6344664525157103
0153,cdot_cos,T,S-T,64,12,14346,-0.22249461846284344,0.0868825017830889,-0.21868366920932986,0.004205734475257401,975.0,1.1416283616652305,0.5356154405541763,4.284923731707917,-0.0037211891442421644,0.287,0.9999999999999554,466.78101495766026,0.3178975109533089,64,2026-10-08 01:01:30.430244,25.0,0.5211095593951667,0.10098228188407198,0.03177663124232188
0153,cdot_cos,P,T-P,65,13,14869,0.022734244288774914,-0.000842993606112766,0.24522886275161834,0.9978297094314854,892.0,1.1904722983001415,0.5368480238548377,4.328207366751569,-0.020430423611802372,0.523,0.9999999999999545,-13.556271984696632,0.32286472325177096,65,2026-10-08 01:01:30.953243,25.0,0.4413750100474047,0.06370518801516223,0.0933918482503077
0153,cdot_cos,Q,P-Q,66,13,14987,-0.02910828159762286,-0.02245653039548535,-0.051842525886397775,0.21482832840490745,892.0,1.2082639883290902,0.5371133352153994,4.363529626874194,-0.007653936488562409,0.118,0.9999999999999493,48.15657760070511,0.32783187512416073,66,2026-10-08 01:01:31.071244,25.0,0.18838452236009726,0.27162698512337397,0.15077703414363355
0153,cdot_cos,R,Q-R,67,13,15011,0.06583221853554493,0.10350408692651294,0.0949405001331678,0.9147850711729019,892.0,1.2545762667892577,0.5382428508015183,4.4057078820400335,-0.020448847176843057,0.024,0.9999999999999479,-11.327785862826627,0.3327990125425696,67,2026-10-08 01:01:31.095244,25.0,0.5348851238359386,1.2866916471902754,1.9296782691736458
0153,cdot_cos,S,R-S,68,13,15034,-0.003727637552779874,-0.009191255425713902,-0.0695598560883248,0.1494404549693372,892.0,1.2700251873942234,0.5384273329151301,4.439985801925113,-0.0069920204945550304,0.023,0.999999999999944,72.94380153626611,0.33776615010901456,68,2026-10-08 01:01:31.118243,25.0,0.14593445197246646,0.5398579669344732,0.6716922002159009
0153,cdot_cos,T,S-T,69,13,15335,-0.25336726219050953,0.025935248544126033,-0.24963962463772965,0.0019441378866376174,892.0,1.2794097332682435,0.5384297328564275,4.472533538762965,-0.004289123925945981,0.301,0.9999999999999406,1126.2344506437298,0.34273333440267406,69,2026-10-08 01:01:31.419244,25.0,0.5324988664903019,0.09990594275263176,0.031177893269169584
0153,cdot_cos,P,T-P,70,14,15761,0.027464300362624667,-0.001178507570161861,0.2808315625531342,0.9991076764667592,916.0,1.3301685649313078,0.5396628433112676,4.51514358404259,-0.023736956647906232,0.426,0.9999999999999394,-15.771363096975948,0.34770054145569756,70,2026-10-08 01:01:31.845243,25.0,0.44073738825259673,0.08016062350901955,0.1191521870024983
0153,cdot_cos,Q,P-Q,71,14,15881,-0.029806627602092527,-0.023932398075283332,-0.057270927964717194,0.1928225496167977,916.0,1.3477065844979281,0.5399007717599177,4.5492850975213,-0.008415518307684083,0.12,0.9999999999999332,64.39515084113803,0.35266769559205785,71,2026-10-08 01:01:31.965244,25.0,0.16192576097810782,0.2749339603504301,0.1461501630551698
0153,cdot_cos,R,Q-R,72,14,15906,0.07071123344137584,0.11142632241097172,0.10051786104346837,0.9250444504748296,916.0,1.396152715415411,0.5410419519152051,4.590893538281627,-0.023810548829360206,0.025,0.9999999999999318,-13.490447104557989,0.3576348327826653,72,2026-10-08 01:01:31.990243,25.0,0.523842901025585,1.2771425126502356,1.9378452366993137
0153,cdot_cos,S,R-S,73,14,15927,-0.003428747558501378,-0.008043282746164063,-0.07413998099987722,0.1354625360251254,916.0,1.41156371013044,0.5412090292958868,4.624092314420922,-0.007750118643941409,0.021,0.9999999999999276,96.12570007916663,0.36260196954038687,73,2026-10-08 01:01:32.011244,25.0,0.12589817320001484,0.5991375803013476,0.733856891191854
0153,cdot_cos,T,S-T,74,14,16220,-0.23918870793872737,0.04210746871220961,-0.235759960380226,0.0027483593302959517,916.0,1.4213164937880676,0.5412124189836792,4.655685607642318,-0.004948581763770825,0.293,0.9999999999999234,826.4881758157566,0.36756915892870656,74,2026-10-08 01:01:32.304243,25.0,0.567718688579231,0.10628023619376699,0.03328595104992376
0153,cdot_cos,P,T-P,75,15,16677,0.023329751599924956,-0.000954116413536823,0.2625184595386523,0.9985902913000843,959.0,1.4738439285399874,0.5424437749575288,4.697701261650815,-0.027227173649151323,0.457,0.999999999999922,-18.092730581986533,0.37253638209424156,75,2026-10-08 01:01:32.761244,25.0,0.4412037807395317,0.07864991980768496,0.11493968217050281
0153,cdot_cos,Q,P-Q,76,15,16792,-0.027088513080114538,-0.01978420878192853,-0.050418264680039494,0.22089529816116946,959.0,1.4932025204922916,0.5427160901906796,4.731289599400327,-0.010282560384841911,0.115,0.9999999999999157,62.224257777490855,0.3775035372043152,76,2026-10-08 01:01:32.876243,25.0,0.1924539739782505,0.30207449059502595,0.16833558219395017
0153,cdot_cos,R,Q-R,77,15,16821,0.07352836300336907,0.10196281642015452,0.1006168760834836,0.925215905669826,959.0,1.5433210613768433,0.5438563983473346,4.77232095244672,-0.027233624428851657,0.029,0.9999999999999137,-14.865336133115349,0.3824706747646534,77,2026-10-08 01:01:32.905244,25.0,0.5366380473259471,1.1347476781504258,1.7282255477431618
0153,cdot_cos,S,R-S,78,15,16842,-0.0024722963353965986,-0.004779305079187681,-0.07600065933876567,0.1301066087710616,959.0,1.5590178858250163,0.5440167152809352,4.804625962358279,-0.00871378326107791,0.021,0.9999999999999092,115.52018088063282,0.3874378109391398,78,2026-10-08 01:01:32.926244,25.0,0.11939114781990125,0.6126029909835298,0.7474678308653807
0153,cdot_cos,T,S-T,79,15,17138,-0.25991975583525156,0.08195924452445934,-0.257447459499855,0.001599942302900507,959.0,1.5690503869981516,0.5440186866678555,4.835344279325672,-0.005615531252041221,0.296,0.9999999999999036,1571.6103100771243,0.39240500786218635,79,2026-10-08 01:01:33.222244,25.0,0.5759530678986663,0.10865686913044194,0.03389358504437586
0153,cdot_cos,P,T-P,80,16,17636,0.02625056624859153,-0.0009539888406468701,0.2861703220838431,0.9992190811166412,1031.0,1.623342752350238,0.5452496138215933,4.876861264001548,-0.031000458102735697,0.498,0.9999999999999024,-20.622606929752337,0.3973722518090289,80,2026-10-08 01:01:33.720243,25.0,0.44093557288966734,0.07509930281021793,0.10902081396001279
0153,cdot_cos,Q,P-Q,81,16,17755,-0.021528451812694367,-0.01476704205880666,-0.0477790180612859,0.23245946056177474,1031.0,1.6438492925971286,0.5455358993959312,4.909823612557664,-0.011982143432811756,0.119,0.9999999999998943,66.43127134125167,0.4023394097352804,81,2026-10-08 01:01:33.839243,25.0,0.20449302404805145,0.2992507264069255,0.1723238676209302
0153,cdot_cos,R,Q-R,82,16,17780,0.06753591095771444,0.08176518275070642,0.0890643627704088,0.902613695365803,1031.0,1.6945644252350862,0.5466472267112096,4.950101702820454,-0.03026674260623655,0.025,0.9999999999998924,-16.452937781740868,0.40730654576955483,82,2026-10-08 01:01:33.864243,25.0,0.5465578087244033,1.3543847396934616,2.028605305518303
0153,cdot_cos,S,R-S,83,16,17803,-0.002441905789284237,-0.003913392445120261,-0.06997781674699868,0.14811716059847085,1031.0,1.7115685295818017,0.5468295492730822,4.981854818184477,-0.010353172627239855,0.023,0.9999999999998862,109.22164418084287,0.4122736816833224,83,2026-10-08 01:01:33.887244,25.0,0.14610542521979145,0.5962725077435324,0.7393088846398048
0153,cdot_cos,T,S-T,84,16,18095,-0.23237944037509856,0.12705620818584504,-0.2299375345858143,0.003177625530735091,1031.0,1.7219929605912887,0.5468334605853322,5.011811981857273,-0.006398153399273081,0.292,0.9999999999998795,1011.1745049237337,0.41724088490766637,84,2026-10-08 01:01:34.179244,25.0,0.5389404966116531,0.1136289996748459,0.035700106196873214
0153,cdot_cos,P,T-P,85,17,18667,0.0217203089007,-0.0009649825116444897,0.25409974927579854,0.9982606340214933,993.0,1.7779278653919117,0.548061922409315,5.052881828092975,-0.034977939454818266,0.572,0.9999999999998784,-23.264692070680887,0.4222081611882138,85,2026-10-08 01:01:34.751244,25.0,0.44171945189134637,0.06845070957143931,0.0977882951059843
0153,cdot_cos,Q,P-Q,86,17,18788,-0.02026251834293777,-0.014936562693762518,-0.04198282724363777,0.259307550353775,993.0,1.8003005723410153,0.5483809316891942,5.085476199088635,-0.01430163695813386,0.121,0.9999999999998682,64.81410981056591,0.42717532157113863,86,2026-10-08 01:01:34.872243,25.0,0.23557409582799294,0.30655454853977443,0.18489840453804576
0153,cdot_cos,R,Q-R,87,17,18811,0.06464194783653919,0.0841252846286392,0.08490446617947696,0.8930815643934051,993.0,1.8521140661385371,0.5494793262255547,5.125202620457892,-0.03379353065081106,0.023,0.9999999999998658,-17.74580357734007,0.43214245614832675,87,2026-10-08 01:01:34.895243,25.0,0.5616964811271644,1.5164484251149444,2.2527605998922553
0153,cdot_cos,S,R-S,88,17,18834,-0.0024983040387250963,-0.004442794776343945,-0.06714025187526429,0.15729336112147896,993.0,1.8700571998963027,0.5496727305580593,5.156387939048368,-0.011925363435159167,0.023,0.9999999999998586,113.06968635324228,0.4371095911213258,88,2026-10-08 01:01:34.918243,25.0,0.15981271434014518,0.6221739619808513,0.7801362503376336
0153,cdot_cos,T,S-T,89,17,19136,-0.25656508036952097,0.10285488484829311,-0.2540667763307959,0.0017407978731097935,993.0,1.8807340683896563,0.5496748709195761,5.185623023832866,-0.007150615045407808,0.302,0.9999999999998502,2230.813978046702,0.44207680467502203,89,2026-10-08 01:01:35.220243,25.0,0.5128665836939599,0.11308401509312346,0.035353869183290025
0153,cdot_cos,P,T-P,90,18,19660,0.03378859056335876,-0.0008149723432452907,0.2903536709328797,0.9992965722929688,964.0,1.9383599450125493,0.5509032291385041,5.226327632502866,-0.039276942885348894,0.524,0.9999999999998489,-26.153875428927222,0.44704408361287873,90,2026-10-08 01:01:35.744244,25.0,0.4413382475770549,0.07532847337338441,0.10997304699025377
0153,cdot_cos,Q,P-Q,91,18,19780,-0.016080801451306595,-0.013061900576828711,-0.04986939201466536,0.2232658722470316,964.0,1.9596783084849632,0.5511775883638109,5.25789987814367,-0.014828956130904247,0.12,0.9999999999998369,89.10940292641212,0.4520112459353591,91,2026-10-08 01:01:35.864243,25.0,0.1923063913131505,0.3096828074057256,0.17765302893678245
0153,cdot_cos,R,Q-R,92,18,19805,0.06640406731579851,0.0929725882002776,0.0824848687671051,0.8871667326255556,964.0,2.0126838187899234,0.5522674697433716,5.2971642912446,-0.03755627372133992,0.025,0.999999999999833,-20.8530194355618,0.45697838022428344,92,2026-10-08 01:01:35.889244,25.0,0.545990507414278,1.4262775637901193,2.1202204121984103
0153,cdot_cos,S,R-S,93,18,19828,-0.0015936917148848613,-0.0031117249247390724,-0.06799775903068338,0.15447258231197017,964.0,2.030992186674469,0.5524571877773595,5.327704989302194,-0.013203945812595957,0.023,0.9999999999998248,128.3606381367699,0.46194551431583036,93,2026-10-08 01:01:35.912243,25.0,0.15813249647290203,0.6350210429589107,0.7960159949802481
0153,cdot_cos,T,S-T,94,18,20122,-0.33184114047266894,0.032791054151339774,-0.33024744875778406,0.0002595799442212308,964.0,2.0418947867660333,0.5524575065718851,5.356275063387683,-0.007919725698813815,0.294,0.999999999999815,16575.6300381023,0.46691273357082574,94,2026-10-08 01:01:36.206244,25.0,0.513131763483251,0.11929007934531885,0.037083673780830564
0153,cdot_cos,P,T-P,95,19,20624,0.02576648894703527,-0.0007399849582421867,0.3576076294197042,0.9998690011145689,988.0,2.1011347533295166,0.553685140183653,5.396656054630625,-0.043750354760521484,0.502,0.9999999999998126,-29.186744903561124,0.47188002107369476,95,2026-10-08 01:01:36.708243,25.0,0.4408814916011574,0.08083331860185976,0.11800790152088306
0153,cdot_cos,Q,P-Q,96,19,20744,-0.02400435621851122,-0.01707285737897471,-0.04977084516554649,0.22369340900287607,988.0,2.1230514386423005,0.5539597006397824,5.427675371836716,-0.016501169642999827,0.12,0.9999999999997997,99.24657578759272,0.4768471857771123,96,2026-10-08 01:01:36.828243,25.0,0.19179106458002013,0.32678005126212295,0.18263904427319919
0153,cdot_cos,R,Q-R,97,19,20767,0.07927935888670905,0.10266700566982191,0.10328371510522028,0.9297001779684207,988.0,2.179561965632426,0.555100456588553,5.467106434743657,-0.04331514331535902,0.023,0.9999999999997959,-23.505442773501663,0.4818143186138979,97,2026-10-08 01:01:36.851244,25.0,0.5384590317993145,1.5945292342339816,2.4569794343532867
0153,cdot_cos,S,R-S,98,19,20788,-0.0025311129974216998,-0.004539231441814247,-0.08181047188413075,0.11453202654631013,988.0,2.1963997834170637,0.5552409491722586,5.496605936760574,-0.013125327301365858,0.021,0.999999999999786,214.88547806372958,0.48678145119766597,98,2026-10-08 01:01:36.872243,25.0,0.10024690364856383,0.6688204860448906,0.8018008468875025
0153,cdot_cos,T,S-T,99,19,21073,-0.26210520371605445,0.10925912573874534,-0.25957409071863274,0.001517227462427524,988.0,2.2076524260463115,0.5552428102449287,5.524597178797792,-0.00882790090514599,0.285,0.9999999999997745,2309.1126237567914,0.4917486758179603,99,2026-10-08 01:01:37.157243,25.0,0.6145896437634295,0.1263149468250629,0.03948295659385213
0153,cdot_cos,P,T-P,100,20,21612,0.016811977786938635,-0.0005298084519997566,0.2789171815029931,0.9990639727822713,1022.0,2.2683993031073495,0.5564679505307318,5.564680533031343,-0.048409293383880225,0.539,0.9999999999997724,-32.307640959490136,0.4967159922937144,100,2026-10-08 01:01:37.696243,25.0,0.44147213803029245,0.0781990993558343,0.11270292590174022
0153,cdot_cos,Q,P-Q,101,20,21734,-0.028174601733232517,-0.019395422904069117,-0.044986579520171155,0.24514709431708484,1022.0,2.291951055151901,0.5567684671771018,5.5954549846839425,-0.01911926717180421,0.122,0.9999999999997573,97.4655699305759,0.5016831601673489,101,2026-10-08 01:01:37.818244,25.0,0.21611084027951968,0.3311507029153958,0.193047147906159
0153,cdot_cos,R,Q-R,102,20,21756,0.06717472883938971,0.08387390413854727,0.09534933057262224,0.9155784433338706,1022.0,2.349200074618706,0.557890471467757,5.634418733099244,-0.047273429165791886,0.022,0.9999999999997531,-25.092740044288167,0.506650291646188,102,2026-10-08 01:01:37.840243,25.0,0.5512537945579391,1.728193707348053,2.602228157582053
0153,cdot_cos,S,R-S,103,20,21778,-0.003836236919229284,-0.006487567591217581,-0.071010965758619,0.14488766305199596,1022.0,2.3679915782752152,0.5580679715869757,5.663772490455663,-0.015770017103618653,0.022,0.9999999999997412,177.48389241000854,0.5116174235870414,103,2026-10-08 01:01:37.862243,25.0,0.1356499327187206,0.6937751499599308,0.8541592571140532
0153,cdot_cos,T,S-T,104,20,22068,-0.21340334485576873,0.1089985518079749,-0.20956710793653943,0.005276626554804904,1022.0,2.379726181216943,0.558074435638483,5.691266035343957,-0.009911493241209603,0.29,0.9999999999997287,906.3238211838163,0.5165846587943353,104,2026-10-08 01:01:38.152243,25.0,0.5537267870428054,0.12745183924839482,0.04046414807492341
0153,cdot_cos,P,T-P,105,21,22634,0.027044213260221456,-0.0004801340518760178,0.2404475581159902,0.997554821434497,1016.0,2.441913645039284,0.5592961191664936,5.731081022261733,-0.05331271681934288,0.566,0.9999999999997253,-35.52574998601305,0.5215520040134457,105,2026-10-08 01:01:38.718244,25.0,0.4430433600495248,0.07584233102068172,0.10987184420908339
0153,cdot_cos,Q,P-Q,106,21,22753,-0.019962904641283804,-0.013882607547474606,-0.04700711790150526,0.23592032152976594,1016.0,2.4655796999323547,0.5595849412128827,5.761280946414949,-0.02064706356742804,0.119,0.9999999999997081,113.0995838451461,0.5265191732363843,106,2026-10-08 01:01:38.837244,25.0,0.20554366157210843,0.3413323176153822,0.19887441086613866
0153,cdot_cos,R,Q-R,107,21,22777,0.06560780609203676,0.0811142038008607,0.08557071073332057,0.8946616232912705,1016.0,2.523150736631745,0.5606798497093896,5.799718845252997,-0.05103107062328011,0.024,0.9999999999997031,-27.750270595933976,0.5314863043677271,107,2026-10-08 01:01:38.861243,25.0,0.5513408223736465,1.610497452461603,2.3987931958079356
0153,cdot_cos,S,R-S,108,21,22800,-0.002413802483286655,-0.0039858176115070715,-0.06802160857532341,0.15439472314978275,1016.0,2.5428835776505117,0.5608687422589954,5.828720330444807,-0.017760609453812547,0.023,0.9999999999996895,176.13432207299704,0.5364534355731688,108,2026-10-08 01:01:38.884243,25.0,0.15362011740331663,0.6869054314815036,0.8579496095115865
0153,cdot_cos,T,S-T,109,21,23086,-0.24528956716959632,0.126348202573285,-0.24287576468630967,0.0023014906430544467,1016.0,2.5547483864798943,0.5608715578595022,5.855672358750098,-0.01074555248377262,0.286,0.9999999999996744,2491.49584723945,0.5414206781428798,109,2026-10-08 01:01:39.170244,25.0,0.5205686376408398,0.1321644704433322,0.041485345557282095
0153,cdot_cos,P,T-P,110,22,23650,0.02873987557464443,-0.000963241605359012,0.27402944274424074,0.9989424434621145,968.0,2.6184816547440977,0.5620932729564984,5.895285436067951,-0.05854131904626701,0.564,0.9999999999996708,-39.1218596545206,0.5463880422476206,110,2026-10-08 01:01:39.734244,25.0,0.4420001804620221,0.07885848486533821,0.11300224869539599
0153,cdot_cos,Q,P-Q,111,22,23771,-0.014150671001583154,-0.012550059890079408,-0.04289054657622758,0.2549728362013852,968.0,2.643700757407996,0.5624049869106833,5.9253058148462445,-0.02355925651699369,0.121,0.9999999999996512,112.22488457644711,0.5513552149323245,111,2026-10-08 01:01:39.855244,25.0,0.22653535230641098,0.34541688892355243,0.208422336065274
0153,cdot_cos,R,Q-R,112,22,23792,0.06723530230473557,0.09048037618835966,0.08138597330631872,0.8843873056840313,968.0,2.7020725418635974,0.5634858005673259,5.963374813327091,-0.055365519006662985,0.021,0.9999999999996448,-29.428072354740106,0.5563223435810833,112,2026-10-08 01:01:39.876243,25.0,0.5629987805191947,1.8632240725095637,2.779608783600073
0153,cdot_cos,S,R-S,113,22,23816,-0.002581578331686088,-0.004878689834262778,-0.06981688063642165,0.14862554646257273,968.0,2.7219561684533975,0.563667377626267,5.991868043769394,-0.01913386444069508,0.024,0.99999999999963,199.53872354397038,0.5612894741134221,113,2026-10-08 01:01:39.900243,25.0,0.15053074651119114,0.6654216243706564,0.8284844412416725
0153,cdot_cos,T,S-T,114,22,24104,-0.29103994415228096,0.05516185475875042,-0.28845836582059486,0.0007375350446776106,968.0,2.734012779833389,0.5636682786364083,6.018331949112169,-0.011670301549073692,0.288,0.999999999999612,8283.550371748266,0.5662567269469863,114,2026-10-08 01:01:40.188244,25.0,0.5275378261600475,0.13414851945387096,0.04186323395830336
0153,cdot_cos,P,T-P,115,23,24618,0.026219690439531082,-0.000436234980047375,0.31725963459181206,0.9996408785948359,1103.0,2.799225715658827,0.5648891017922185,6.0577624515416435,-0.06397654940497906,0.514,0.9999999999996075,-42.8450653208598,0.5712240880730987,115,2026-10-08 01:01:40.702244,25.0,0.4414967154486493,0.0874382200965454,0.12687341600279825
0153,cdot_cos,Q,P-Q,116,23,24739,-0.021171847392951207,-0.013860645963032832,-0.04739153783248229,0.23419231350194383,1103.0,2.8238992700926375,0.5651749987269751,6.087122888718553,-0.024595260482455222,0.121,0.9999999999995867,137.74645382629637,0.5761912636953964,116,2026-10-08 01:01:40.823244,25.0,0.20165965257904317,0.35638602215590165,0.20391367300669722
0153,cdot_cos,R,Q-R,117,23,24761,0.07648449085233736,0.08232436261763998,0.09765633824528856,0.9199308933311552,1103.0,2.8854711330205554,0.5662976092601212,6.1254470947678765,-0.06228042504705185,0.022,0.9999999999995801,-33.569224100351406,0.5811583917383406,117,2026-10-08 01:01:40.845243,25.0,0.5460261398240154,1.8245483720900069,2.7987210421780833
0153,cdot_cos,S,R-S,118,23,24785,-0.0037161603706781375,-0.005271105243376788,-0.08020065122301549,0.11867724997226768,1103.0,2.904179398464598,0.5664423842582423,6.1531411728978185,-0.01918814378354966,0.024,0.999999999999562,297.65002122424664,0.5861255213135456,118,2026-10-08 01:01:40.869244,25.0,0.10584532576618035,0.6555376359656251,0.7795110601684363
0153,cdot_cos,T,S-T,119,23,25067,-0.1926099710824319,0.16129986009721273,-0.18889381071175376,0.008815883501428794,1103.0,2.9169369395469054,0.5664531383484461,6.179276104668679,-0.013155817200885642,0.282,0.9999999999995431,560.9332326911068,0.5910927810749587,119,2026-10-08 01:01:41.151244,25.0,0.6322128088095064,0.14037231068465464,0.04523950738406927
0153,cdot_cos,P,T-P,120,24,25721,0.025767662637195553,-0.0006648673475627719,0.21837763371962746,0.9957621014047762,1060.0,2.983349381690743,0.5676674175456218,6.2184869745520395,-0.06937116377096994,0.654,0.9999999999995385,-46.295239761035425,0.5960602334757079,120,2026-10-08 01:01:41.805243,25.0,0.44469967505625263,0.07041957053451764,0.10154807667253468
0153,cdot_cos,Q,P-Q,121,24,25833,-0.019630690709716934,-0.01288595406656923,-0.04539835334691249,0.2432471271137176,1060.0,3.0090457378060544,0.567963921596009,6.247605333945603,-0.027255695388641414,0.112,0.9999999999995126,142.04011151731285,0.601027406867804,121,2026-10-08 01:01:41.917243,25.0,0.21326946454145357,0.3959426288313861,0.2294317510295661
0153,cdot_cos,R,Q-R,122,24,25861,0.0791802529538604,0.08688451510358604,0.09881094366357733,0.922031435495429,1060.0,3.0720405305489735,0.5690873802877144,6.285777791722265,-0.06776391478320998,0.028,0.9999999999995053,-36.056705683654585,0.6059945364904156,122,2026-10-08 01:01:41.945244,25.0,0.5500288641781651,1.4613498248913543,2.249814026532824
0153,cdot_cos,S,R-S,123,24,25883,-0.002868300494793699,-0.004163969206379295,-0.0820485534486541,0.11392978733191518,1060.0,3.0908813279999703,0.5692261500992972,6.313025625234899,-0.020538307111164354,0.022,0.9999999999994836,340.3161475352504,0.6109616634309769,123,2026-10-08 01:01:41.967244,25.0,0.10031987528351882,0.7193776190755089,0.8563998841362164
0153,cdot_cos,T,S-T,124,24,26182,-0.2151603725776531,0.1419019956103389,-0.2122920720828594,0.004930845305298132,1060.0,3.103693145788296,0.5692321557677199,6.3387032485714165,-0.014037813761141875,0.299,0.9999999999994604,1082.3929815159258,0.6159289420653721,124,2026-10-08 01:01:42.266243,25.0,0.6293484451330124,0.1349595422914194,0.04284888892416599
0153,cdot_cos,P,T-P,125,25,26781,0.026882892690043805,-0.0007778501154668978,0.24204326526769693,0.9976502214171699,1103.0,3.171587134290239,0.5704468519885602,6.377792022412756,-0.07530798807964124,0.599,0.9999999999994544,-50.4407384062795,0.6208963896093896,125,2026-10-08 01:01:42.865243,25.0,0.44326183895034516,0.08021564938609375,0.11334555676451281
0153,cdot_cos,Q,P-Q,126,25,26897,-0.011142376024102622,-0.007735246135217021,-0.038025268714146424,0.27875779616121454,1103.0,3.1997914937528362,0.5707861046171676,6.407060681775215,-0.03175713627670308,0.116,0.9999999999994269,128.372923687292,0.625863567732284,126,2026-10-08 01:01:42.981244,25.0,0.2537585293958697,0.3917469059396981,0.24314102984997532
0153,cdot_cos,R,Q-R,127,25,26922,0.07388526988551174,0.0776632057612075,0.08502764590961435,0.8933752598595363,1103.0,3.262472416468249,0.5718729068251576,6.444682941941127,-0.07153800120109283,0.025,0.9999999999994179,-36.60359229299374,0.6308306943565312,127,2026-10-08 01:01:43.006243,25.0,0.5734524918887138,1.6574703667065727,2.5072369086165125
0153,cdot_cos,S,R-S,128,25,26946,-0.0017276895199013114,-0.0023560922637060576,-0.07561295940541304,0.1312075332743065,1103.0,3.282665012088165,0.5720324643098965,6.471811135258072,-0.02333925251343469,0.024,0.9999999999993938,302.0776415880214,0.6357978209874801,128,2026-10-08 01:01:43.030244,25.0,0.12680094606754577,0.6875621918069527,0.8413581508298259
0153,cdot_cos,T,S-T,129,25,27245,-0.3384127892642994,0.14358517837672574,-0.3366850997443981,0.000220999853821517,1103.0,3.2954754016749828,0.5720327330484589,6.497045505657338,-0.014881319960766541,0.299,0.9999999999993676,31472.71637172896,0.6407651106405319,129,2026-10-08 01:01:43.329243,25.0,0.5664542117789004,0.13743943177516493,0.04284411233049467
0153,cdot_cos,P,T-P,130,26,27884,0.03771130740795788,-3.475998007777464e-05,0.37612409667225727,0.999917538981657,1053.0,3.3648537922897135,0.5732482077217302,6.536037885138292,-0.08154220829886252,0.639,0.9999999999993611,-54.84350254595206,0.6457326069910699,130,2026-10-08 01:01:43.968243,25.0,0.441533390680903,0.07569317056725268,0.10857338124371005
0153,cdot_cos,Q,P-Q,131,26,28005,-0.005387233867694883,-0.004516917734290507,-0.04309854127565277,0.2539863197433537,1053.0,3.3922112736599317,0.5735568068754403,6.564660660961964,-0.03261492209975661,0.121,0.9999999999993283,158.54640432706447,0.6506997907143574,131,2026-10-08 01:01:44.089243,25.0,0.2230966191826791,0.3739258789684884,0.22609488735717526
0153,cdot_cos,R,Q-R,132,26,28027,0.0742420643001602,0.08612999643227294,0.07962929816785508,0.8798206060825435,1053.0,3.4553438550000877,0.5746253646612003,6.601945805427201,-0.07622368745723493,0.022,0.9999999999993172,-40.810862958115806,0.6556669138145486,132,2026-10-08 01:01:44.111244,25.0,0.5643302431664116,1.90484614435139,2.8696627881889083
0153,cdot_cos,S,R-S,133,26,28049,-0.0007563220571812524,-0.0011509955356266827,-0.07499838635734145,0.13296889097649434,1053.0,3.476024504011393,0.5747867973730916,6.628767711816238,-0.02527209153495688,0.022,0.9999999999992895,315.62125993764386,0.660634037520978,133,2026-10-08 01:01:44.133244,25.0,0.13317102721205015,0.7666033961918037,0.9400295005138716
0153,cdot_cos,T,S-T,134,26,28343,-0.3632810603271348,0.11640276148806249,-0.3625247382699536,0.00011584768255324944,1053.0,3.489074404432527,0.5747869380126166,6.653642839712643,-0.01602479625026973,0.294,0.9999999999992595,65751.7528090855,0.6656013350234449,134,2026-10-08 01:01:44.427244,25.0,0.5615459661710367,0.14243991724463426,0.044387416398415605
0153,cdot_cos,P,T-P,135,27,28937,0.02631995187358505,-0.00039875001047985685,0.38960101220071985,0.9999411244216504,1067.0,3.559779175351238,0.5760004170216965,6.692523181245998,-0.08780109259120483,0.594,0.9999999999992522,-59.149186598093955,0.6705688291361468,135,2026-10-08 01:01:45.021244,25.0,0.44153962702424443,0.08286783888393513,0.11903160087325042
0153,cdot_cos,Q,P-Q,136,27,29060,-0.017258687811136233,-0.011732378164725315,-0.04357863968472128,0.2517188488961002,1067.0,3.587521397026642,0.5763057468092385,6.720825549185077,-0.03492475028990054,0.123,0.999999999999216,173.1778046517055,0.675536017243274,136,2026-10-08 01:01:45.144243,25.0,0.2200263996800047,0.37603528703890843,0.22554651768621292
0153,cdot_cos,R,Q-R,137,27,29081,0.06535114349497682,0.07584860282546722,0.08260983130611306,0.8874790793333849,1067.0,3.6522838559628092,0.5773817744285558,6.758083824361813,-0.08252888661005024,0.021,0.9999999999992041,-44.24062678833028,0.6805031380983281,137,2026-10-08 01:01:45.165244,25.0,0.5616828755377996,2.0743862891879004,3.0839266160079655
0153,cdot_cos,S,R-S,138,27,29106,-0.0024215047929467925,-0.003726750358233311,-0.06777264828792362,0.15520905985978536,1067.0,3.674645621172534,0.5775698831651421,6.784913281405525,-0.028835800879989888,0.025,0.9999999999991741,285.43642737937313,0.6854702623208359,138,2026-10-08 01:01:45.190243,25.0,0.15535715411120984,0.714837698939288,0.894470608388982
0153,cdot_cos,T,S-T,139,27,29395,-0.2613617483035755,0.11853658604865373,-0.2589402435106287,0.0015414238668706418,1067.0,3.6880257409097736,0.5775717512120114,6.8094739385384075,-0.01733799427691726,0.289,0.9999999999991406,6154.9882885795005,0.6904375679860615,139,2026-10-08 01:01:45.479244,25.0,0.5152223761795891,0.14766825415926887,0.0462979921703801
0153,cdot_cos,P,T-P,140,28,30004,0.0275267653578926,-0.0007513010553036241,0.2888885136614681,0.9992703479344144,1039.0,3.759997872076591,0.578782294591546,6.8482480132302825,-0.09426961584176435,0.609,0.9999999999991322,-63.55131329075439,0.6954050988355676,140,2026-10-08 01:01:46.088243,25.0,0.44216119034521534,0.08087666962839955,0.11818083935438023
0153,cdot_cos,Q,P-Q,141,28,30125,-0.022494301167326966,-0.015247802269209632,-0.050021066525219565,0.222608984230942,1039.0,3.7865335245171643,0.5790518407849287,6.87586348858996,-0.035210136831427305,0.121,0.9999999999990917,219.10707871315768,0.7003722887606479,141,2026-10-08 01:01:46.209243,25.0,0.18686981705063618,0.3851139451393945,0.21930291273200908
0153,cdot_cos,R,Q-R,142,28,30147,0.06529553856133943,0.07794287348585491,0.0877898397286664,0.8997767061625307,1039.0,3.8531954468003247,0.5801408541418277,6.913180029737003,-0.08948233766548963,0.022,0.9999999999990788,-49.83612045733052,0.7053394086209036,142,2026-10-08 01:01:46.231244,25.0,0.5452488421496219,2.0309795159713198,3.0300873765072898
0153,cdot_cos,S,R-S,143,28,30171,-0.0027949285568505994,-0.004452996176415726,-0.06809046711819003,0.15417010773268702,1039.0,3.8758966232199024,0.5803273705764921,6.9397099033228375,-0.030825139463788107,0.024,0.9999999999990452,314.4880948815491,0.7103065306125511,143,2026-10-08 01:01:46.255244,25.0,0.1491353035018923,0.7645057673145161,0.9458823508157372
0153,cdot_cos,T,S-T,144,28,30456,-0.19647487631441668,0.11487324220033053,-0.19367994775756608,0.007829481531699966,1039.0,3.8898917236314214,0.5803368421445007,6.964045994912127,-0.019093568134671335,0.285,0.9999999999990079,1238.6092058363183,0.7152738449410316,144,2026-10-08 01:01:46.540244,25.0,0.5409516909332263,0.1527072343612377,0.04910561547901432
0153,cdot_cos,P,T-P,145,29,31043,0.022778014339446012,-0.0016054840645669266,0.2192528906538627,0.9958534451328945,1010.0,3.962939746805808,0.5815410723494912,7.00268585339138,-0.10069605101126458,0.587,0.9999999999989992,-67.76319223552208,0.7202413870594077,145,2026-10-08 01:01:47.127244,25.0,0.44468721048444154,0.08532251619669898,0.12444296963268554
0153,cdot_cos,Q,P-Q,146,29,31145,-0.026793962055438773,-0.015182169667641084,-0.04957197639488478,0.22455795712554846,1010.0,3.990060357646346,0.5818124841155748,7.030071332081679,-0.03785550513802238,0.102,0.9999999999989551,231.53213576549206,0.7252085659408704,146,2026-10-08 01:01:47.229243,25.0,0.19013693412222385,0.4720331867410434,0.2658883415739038
0153,cdot_cos,R,Q-R,147,29,31174,0.07206238047585074,0.07796292308791353,0.09885634253128951,0.9221129889336594,1010.0,4.059234516900981,0.5829264741484912,7.06761227057786,-0.09765007635856071,0.029,0.9999999999989428,-53.67603789416361,0.7301756897385336,147,2026-10-08 01:01:47.258244,25.0,0.5420835598534793,1.5643228476232849,2.385315836366712
0153,cdot_cos,S,R-S,148,29,31198,-0.004461139572406947,-0.006716249526646887,-0.07652352004825769,0.12863432858326604,1010.0,4.080791082808497,0.5830818082452162,7.093500730570958,-0.030770190790108832,0.024,0.9999999999989049,430.5550872508575,0.735142810341746,148,2026-10-08 01:01:47.282243,25.0,0.113775455063101,0.7474159897634299,0.8981902461464945
0153,cdot_cos,T,S-T,149,29,31497,-0.19174903261155934,0.10710615626946307,-0.1872878930391524,0.009173711097996765,1010.0,4.095110484409625,0.5830928854526098,7.117560114881037,-0.020529676771447347,0.299,0.999999999998864,924.467120160684,0.7401101476359733,149,2026-10-08 01:01:47.581243,25.0,0.6072497269569196,0.1481898899691838,0.047890975254611265
0153,cdot_cos,P,T-P,150,30,32053,0.026869079385979936,6.25696936659446e-05,0.21861811199753928,0.9957873960284059,992.0,4.1694086370100685,0.5842947924596646,7.156125043827391,-0.10758643992483946,0.556,0.9999999999988548,-72.43219537151978,0.7450776925262419,150,2026-10-08 01:01:48.137243,25.0,0.44522313312658235,0.09177598337734375,0.13362977086410638
0153,cdot_cos,Q,P-Q,151,30,32166,-0.022050414456869092,-0.01587214381645605,-0.04891949384284903,0.22741116047353097,992.0,4.197165377925232,0.5845691357814294,7.183310658390339,-0.0406813403289486,0.113,0.9999999999988077,243.87362216621392,0.750044883006036,151,2026-10-08 01:01:48.250243,25.0,0.19308709069299912,0.43439066297153,0.24563487535542577
0153,cdot_cos,R,Q-R,152,30,32194,0.07745720343577615,0.0976857983850978,0.09950761789264524,0.9232743565167884,992.0,4.267580926841634,0.5856824116236887,7.220782624832654,-0.10433319643502047,0.028,0.9999999999987945,-57.175278300206806,0.7550120048087845,152,2026-10-08 01:01:48.278244,25.0,0.543306050767378,1.633766019538891,2.5148410327286665
0153,cdot_cos,S,R-S,153,30,32216,-0.004202870445736198,-0.007361343580399443,-0.08166007388151235,0.11491389278631253,992.0,4.2886562750194095,0.5858209127714719,7.246209410008027,-0.03156131678154431,0.022,0.9999999999987532,525.424379640693,0.7599791223281638,153,2026-10-08 01:01:48.300243,25.0,0.09968598842451587,0.8020677989187719,0.9579703717170561
0153,cdot_cos,T,S-T,154,30,32517,-0.22887683954395427,0.1010616510743709,-0.22467396909821807,0.003622906363438492,992.0,4.30287190999406,0.5858252790959967,7.269905432138147,-0.021376318916460302,0.301,0.9999999999987078,2332.6250275641455,0.7649464743156886,154,2026-10-08 01:01:48.601243,25.0,0.6209766932556046,0.14930776501488954,0.0472280231715971
0153,cdot_cos,P,T-P,155,31,33045,0.0204395525893672,-0.0008040117732000642,0.24931639213332146,0.998040119167328,1049.0,4.378539549558373,0.5870276005621052,7.3084397669896095,-0.11487473282477556,0.528,0.9999999999986986,-77.76490443186857,0.7699140220038104,155,2026-10-08 01:01:49.129244,25.0,0.44311928948432944,0.09832566199429872,0.14330992341725904
0153,cdot_cos,Q,P-Q,156,31,33167,-0.028653056666223732,-0.01877890087405304,-0.04909260925559093,0.22665166844127688,1049.0,4.40670380906004,0.5873004998539473,7.335386294624213,-0.043260439019279534,0.122,0.9999999999986484,262.420225871993,0.7748812236580399,156,2026-10-08 01:01:49.251244,25.0,0.19101138187397795,0.4107091152268836,0.23085458607923506
0153,cdot_cos,R,Q-R,157,31,33189,0.07546716548700397,0.08885611473403662,0.10412022215322769,0.931054761677451,1049.0,4.478752573673733,0.5884209692384783,7.372899074098832,-0.11183869504125771,0.022,0.9999999999986351,-61.20493515374487,0.7798483390200086,157,2026-10-08 01:01:49.273243,25.0,0.5416208905963811,2.1295270173280074,3.274943846076951
0153,cdot_cos,S,R-S,158,31,33213,-0.004734279760066183,-0.00760584849740439,-0.08020144524707015,0.11867517375482275,1049.0,4.500402997822472,0.5885637222055681,7.398136730166914,-0.03395802885561598,0.024,0.999999999998591,545.5625040470725,0.7848154568892844,158,2026-10-08 01:01:49.297244,25.0,0.10091880925191735,0.7581203568491901,0.9021010061974755
0153,cdot_cos,T,S-T,159,31,33499,-0.19604131071155168,0.11851581263640115,-0.1913070309514855,0.00830402889266245,1049.0,4.515142350802494,0.5885737104663239,7.421637557285479,-0.023211748642809976,0.286,0.999999999998542,1075.891036038682,0.7897828091799003,159,2026-10-08 01:01:49.583244,25.0,0.6294132244135544,0.15992359473833168,0.05153619923084516
0153,cdot_cos,P,T-P,160,32,34094,0.02178228716587953,-0.0010262982732645036,0.21782359787743122,0.9957032482822088,1042.0,4.591879294012798,0.589770832057411,7.460082142294134,-0.12196497085120178,0.595,0.9999999999985333,-82.49222380052073,0.7947504437969456,160,2026-10-08 01:01:50.178244,25.0,0.4449981646434382,0.08970706229256498,0.12896965245429243
0153,cdot_cos,Q,P-Q,161,32,34215,-0.02240244418935271,-0.01526635076222679,-0.04418473135523224,0.2488755676115447,1042.0,4.621893754930646,0.5900698865810233,7.487153540713544,-0.04825316395356013,0.121,0.9999999999984789,246.48283532802515,0.7997176482461897,161,2026-10-08 01:01:50.299244,25.0,0.21705474612531997,0.4236865978711381,0.24805339601527537
0153,cdot_cos,R,Q-R,162,32,34239,0.07548373552307569,0.09082059053545802,0.0978861797124284,0.9203531152013584,1042.0,4.694411450697613,0.5911752236952323,7.524438265432794,-0.11778379770326272,0.024,0.999999999998464,-62.904459513656214,0.8046847636845724,162,2026-10-08 01:01:50.323244,25.0,0.5541475652122048,1.9732426784118497,3.0215706569569623
0153,cdot_cos,S,R-S,163,32,34261,-0.0034929562887677005,-0.005650787604909738,-0.07897669181184339,0.12191521667163135,1042.0,4.716609403494415,0.5913215740873361,7.549494567738526,-0.03641661579730119,0.022,0.999999999998415,555.975154807074,0.8096518779868773,163,2026-10-08 01:01:50.345243,25.0,0.1070625311093664,0.839517602528751,1.0089978544000773
0153,cdot_cos,T,S-T,164,32,34557,-0.21826245961164015,0.12339002675459358,-0.21476950332287245,0.0046360876342711795,1042.0,4.731350225208878,0.5913271390556295,7.572688362206982,-0.024277718541090443,0.296,0.9999999999983619,2181.3057354882026,0.8146192528104655,164,2026-10-08 01:01:50.641243,25.0,0.606529710716841,0.15674328684335212,0.04980007335967344
0153,cdot_cos,P,T-P,165,33,35136,0.022041030026370877,-0.0007602387383365942,0.24030348963801101,0.9975460203774956,1050.0,4.809401429305679,0.5925240055610034,7.611114946810715,-0.12969241797217423,0.579,0.999999999998352,-88.07556979644507,0.8195869025250407,165,2026-10-08 01:01:51.220243,25.0,0.4436118043098642,0.09296775895493654,0.1348034613070831
0153,cdot_cos,Q,P-Q,166,33,35258,-0.025126923763780964,-0.016475759199423134,-0.047167953790151845,0.23519627665702822,1050.0,4.839006890078695,0.5928060372867756,7.637778211306985,-0.04973772333935207,0.122,0.9999999999982928,283.495391924071,0.82455411173934,166,2026-10-08 01:01:51.342243,25.0,0.2003827032028189,0.4199502264635524,0.24266771125422462
0153,cdot_cos,R,Q-R,167,33,35280,0.06663489104366019,0.07826277370754921,0.09176181480744115,0.9083826769542256,1050.0,4.911869284562786,0.5938947336408634,7.674818130372447,-0.12360600719369795,0.022,0.9999999999982763,-67.85021698381442,0.8295212234830367,167,2026-10-08 01:01:51.364243,25.0,0.5501244288913506,2.206676718012042,3.3119270220041535
0153,cdot_cos,S,R-S,168,33,35301,-0.0032876839383960137,-0.005105465644060317,-0.0699225749820562,0.14829150332618396,1050.0,4.9361006656712245,0.5940723736730414,7.700064785299703,-0.041510438618986886,0.021,0.9999999999982246,462.14565246442487,0.8344883349936655,168,2026-10-08 01:01:51.385243,25.0,0.13838591480426113,0.9372399432953781,1.1538752908780225
0153,cdot_cos,T,S-T,169,33,35598,-0.2004419621903201,0.12056230058135532,-0.19715427825192408,0.007182802303342791,1050.0,4.951233362181192,0.5940809774066697,7.7230594685846645,-0.02602706022796219,0.297,0.9999999999981672,1799.6115477422825,0.8394557248580891,169,2026-10-08 01:01:51.682244,25.0,0.5516202626288034,0.15874697443985888,0.05095184010090035
0153,cdot_cos,P,T-P,170,34,36186,0.02530659492905527,-0.00033298141808523314,0.22574855711937536,0.9964727874849761,1059.0,5.030396368488501,0.5952740145180525,7.761430549214451,-0.13732390399771943,0.588,0.9999999999981559,-93.28866864900164,0.8444234142827161,170,2026-10-08 01:01:52.270243,25.0,0.4446492286133888,0.09383778226236436,0.13463096310766798
0153,cdot_cos,Q,P-Q,171,34,36303,-0.01806065601034427,-0.011997045245704732,-0.04336725093939954,0.252715565310733,1059.0,5.061586594121732,0.5955764025142524,7.788179482073113,-0.05469069413275008,0.117,0.9999999999980933,273.2688165649072,0.8493906222738276,171,2026-10-08 01:01:52.387244,25.0,0.22070705100588564,0.4439110960119795,0.2665831250703564
0153,cdot_cos,R,Q-R,172,34,36330,0.06512367141795562,0.07558351246176542,0.0831843274282999,0.888905346491698,1059.0,5.134271564955304,0.5966394485792111,7.824860506410681,-0.12865248418081604,0.027,0.9999999999980745,-69.57533872338297,0.8543577374003463,172,2026-10-08 01:01:52.414243,25.0,0.5627634303272753,1.8118446890381132,2.6920359567989447
0153,cdot_cos,S,R-S,173,34,36353,-0.0021332087202308217,-0.0032584925395986696,-0.06725688013818644,0.15690726399239582,1059.0,5.1594262073297905,0.5968270008123769,7.850041070295754,-0.04494422792976011,0.023,0.999999999998019,446.3196989878348,0.859324849098079,173,2026-10-08 01:01:52.437243,25.0,0.15528520724881278,0.8728781612475971,1.0936801032385484
0153,cdot_cos,T,S-T,174,34,36645,-0.25849833565085667,0.11231882901554198,-0.25636512693062585,0.0016437529314614044,1059.0,5.174423960372693,0.5968289654508011,7.872722250513132,-0.026901228639057976,0.292,0.9999999999979557,9183.877841717709,0.864292248047355,174,2026-10-08 01:01:52.729243,25.0,0.5113439446409802,0.16352671698821827,0.051362167955146754
0153,cdot_cos,P,T-P,175,35,37245,0.024274382919430227,-0.0005142920292815203,0.2827727185702869,0.9991499100713949,1037.0,5.25492581005091,0.5980225875768216,7.911102943160376,-0.1455883769571573,0.6,0.9999999999979445,-99.43444054091134,0.8692599822748072,175,2026-10-08 01:01:53.329243,25.0,0.4425401589824304,0.0938634887442813,0.13416974946369437
0153,cdot_cos,Q,P-Q,176,35,37360,-0.017543660274655717,-0.012773151625580577,-0.04181804319408594,0.2600995746179517,1037.0,5.287060146865831,0.5983331224355477,7.937794080121355,-0.058728007409978536,0.115,0.9999999999978767,279.7121389318374,0.8742271917699692,176,2026-10-08 01:01:53.444243,25.0,0.22785905123618633,0.45843634037347164,0.2794290157819213
0153,cdot_cos,R,Q-R,177,35,37388,0.06304090950651396,0.0749397958109629,0.08058456978116968,0.8823229611176934,1037.0,5.3603661683368085,0.5993859454366524,7.97431963775248,-0.13519523798330302,0.028,0.999999999997856,-72.63066108272031,0.879194306318709,177,2026-10-08 01:01:53.472243,25.0,0.5680158551052432,1.7730968366171305,2.6180721953920547
0153,cdot_cos,S,R-S,178,35,37411,-0.0021171898376343527,-0.0033724354960826225,-0.06515809934414832,0.16397391100416872,1037.0,5.38635356971639,0.5995815049053781,7.999423303165627,-0.048366602758812806,0.023,0.999999999997796,444.0011817901973,0.8841614161016739,178,2026-10-08 01:01:53.495244,25.0,0.1660911053709743,0.900851160507841,1.1298870165035555
0153,cdot_cos,T,S-T,179,35,37704,-0.2125913190718311,0.11940358442760642,-0.21047412923419676,0.005158932931851685,1037.0,5.401805321720169,0.5995876570659947,8.021944407337982,-0.0288688671662886,0.293,0.9999999999977274,3169.2500907526182,0.8891288306874967,179,2026-10-08 01:01:53.788243,25.0,0.5089580399891753,0.1655143080417151,0.05273635496170276
0153,cdot_cos,P,T-P,180,36,38282,0.026080067036034157,-0.0009379989927462339,0.23867138610786526,0.9974440820465845,1008.0,5.483344954228835,0.6007765428013809,8.060271657603609,-0.15355945127013493,0.578,0.999999999997715,-104.88020874717535,0.8940965733058449,180,2026-10-08 01:01:54.366244,25.0,0.4439683438932835,0.09639998316508817,0.14107202856170614
0153,cdot_cos,Q,P-Q,181,36,38401,-0.024600474383699045,-0.01656591989362129,-0.0506805414197332,0.21976891417476266,1008.0,5.513243702259011,0.6010383333712355,8.086152809911669,-0.05687072261285139,0.119,0.9999999999976402,369.33617857590707,0.8990637911835612,181,2026-10-08 01:01:54.485244,25.0,0.18265622119465988,0.4428961033997909,0.25124998344685534
0153,cdot_cos,R,Q-R,182,36,38425,0.06323494971873193,0.07936969703158181,0.08783542410243098,0.8998794277109226,1008.0,5.5887542268379855,0.6021096735256601,8.122912704764582,-0.14487450262157223,0.024,0.9999999999976197,-82.14364004304535,0.9040308994545085,182,2026-10-08 01:01:54.509243,25.0,0.5447390715287501,2.1175693104979465,3.146271857457269
0153,cdot_cos,S,R-S,183,36,38449,-0.002876890958964609,-0.004976843386747511,-0.06611184067769654,0.1607314178758262,1008.0,5.6148870291629125,0.6023009276765604,8.147785039423432,-0.050589190183052184,0.024,0.9999999999975546,492.9843979579151,0.9089980085795666,183,2026-10-08 01:01:54.533243,25.0,0.1550908426039876,0.8697840233828728,1.0888667635386244
0153,cdot_cos,T,S-T,184,36,38736,-0.21972516962216623,0.10280700212204728,-0.2168482786632016,0.0044023401570338514,1008.0,5.630503859960363,0.602306165577364,8.17008744207363,-0.030344372880724807,0.287,0.9999999999974802,3865.063135261854,0.9139654308662456,184,2026-10-08 01:01:54.820243,25.0,0.5131594059290296,0.1712799442983335,0.05441404459042129
0153,cdot_cos,P,T-P,185,37,39290,0.026479520100900746,0.0005438444515245928,0.24620468972306697,0.9978819037429077,1054.0,5.713201717190156,0.6034928378310469,8.208399395767605,-0.16192603877309975,0.554,0.9999999999974682,-110.88290425937709,0.9189331772565935,185,2026-10-08 01:01:55.374244,25.0,0.4437013844900056,0.10276604585739912,0.14927411052309114
0153,cdot_cos,Q,P-Q,186,37,39412,-0.02130904553825016,-0.014333083757390435,-0.047788565639150904,0.23241687581869133,1054.0,5.744368638770362,0.6037690516592848,8.234321910180098,-0.06162402882797793,0.122,0.9999999999973896,363.1317468244762,0.9239004030745793,186,2026-10-08 01:01:55.496243,25.0,0.1963916354528397,0.44545069606760634,0.25546657032955516
0153,cdot_cos,R,Q-R,187,37,39434,0.07336894119149832,0.08628572807604731,0.09467798672974848,0.9142720816255883,1054.0,5.821891687030652,0.6048549667697541,8.271277239219982,-0.15458804438035928,0.022,0.9999999999973688,-85.60891607098613,0.9288675072014009,187,2026-10-08 01:01:55.518244,25.0,0.5480623944196449,2.315564775246758,3.523774920922283
0153,cdot_cos,S,R-S,188,37,39457,-0.002865287775725066,-0.004498624880861758,-0.07623422896722339,0.12944715627533174,1054.0,5.846253488881219,0.6050086326802043,8.29547039502014,-0.04900098936855783,0.023,0.9999999999972979,687.1208760776552,0.9338346134300252,188,2026-10-08 01:01:55.541243,25.0,0.11592702861180583,0.8742367537697319,1.0592087761116145
0153,cdot_cos,T,S-T,189,37,39754,-0.21654525784754022,0.135431453029921,-0.21367997007181516,0.004763492667857538,1054.0,5.8621065777040595,0.6050142869969358,8.317581260903788,-0.031996429492891894,0.297,0.9999999999972196,3007.3589229528407,0.938802063177586,189,2026-10-08 01:01:55.838243,25.0,0.5877510561492452,0.16776567543471307,0.05337740344390752
0153,cdot_cos,P,T-P,190,38,40344,0.026619748404261515,-0.000321529717111489,0.24316500625180174,0.997715053611232,1047.0,5.9459063000894385,0.6061979640488765,8.355872525931385,-0.17039472172792058,0.59,0.999999999997206,-116.92234128229592,0.9437698870363519,190,2026-10-08 01:01:56.428244,25.0,0.4438708177614541,0.09781140187333989,0.14203342777182887
0153,cdot_cos,Q,P-Q,191,38,40456,-0.02105789977353466,-0.013748326315260217,-0.04767764817779618,0.23291193268721072,1047.0,5.977524031914601,0.6064741091233683,8.381649772821346,-0.06490257019187945,0.112,0.9999999999971216,382.0171398319509,0.9487371042413304,191,2026-10-08 01:01:56.540244,25.0,0.1968344003676761,0.49373472814589636,0.28230117701037527
0153,cdot_cos,R,Q-R,192,38,40486,0.07687698886628408,0.08896539084263284,0.09793488863981874,0.9204423325997341,1047.0,6.056502879194119,0.6075647369579513,8.418674856187232,-0.16346570390931459,0.03,0.9999999999970999,-90.37283901260268,0.9537042166887486,192,2026-10-08 01:01:56.570244,25.0,0.5471900479608031,1.7172253071730648,2.6326282426506253
0153,cdot_cos,S,R-S,193,38,40509,-0.002697273935175809,-0.00417364944640119,-0.07957426280145989,0.12032495087117351,1047.0,6.0805575503449845,0.6077072304008384,8.442549573216029,-0.0502067468682154,0.023,0.9999999999970222,794.8362727880102,0.9586713208684017,193,2026-10-08 01:01:56.593244,25.0,0.10478429901891066,0.8707352529869037,1.0458552674289185
0153,cdot_cos,T,S-T,194,38,40804,-0.22484999499298688,0.133848401749315,-0.2221527210578111,0.003857703617852584,1047.0,6.096556700831517,0.6077117985387196,8.46445680092654,-0.03350339030949924,0.295,0.9999999999969372,3656.4913304167717,0.9636387835809755,194,2026-10-08 01:01:56.888243,25.0,0.6074063920196078,0.17106275850126987,0.05423440842892354
0153,cdot_cos,P,T-P,195,39,41391,0.026815051785819267,0.0001796024933724298,0.25166504677880613,0.9981516763824011,1070.0,6.181484577860734,0.6088931339863027,8.502741083459131,-0.17912663088515052,0.587,0.999999999996923,-123.2700168894257,0.9686066380895262,195,2026-10-08 01:01:57.475244,25.0,0.44354210728131127,0.10080072813330784,0.14468122151484972
0153,cdot_cos,Q,P-Q,196,39,41514,-0.016533516008195956,-0.0113188718830119,-0.04334856779401522,0.25280378348932353,1070.0,6.21489675566002,0.6091921312289929,8.528701661155882,-0.07113144998981254,0.123,0.9999999999968346,361.1912267942428,0.9735738738588899,196,2026-10-08 01:01:57.598243,25.0,0.21909540847238254,0.453057184401538,0.2716437219454197
0153,cdot_cos,R,Q-R,197,39,41536,0.06802535869703011,0.07868908812052619,0.08455887470522606,0.8922537719197401,1070.0,6.292936645223512,0.6102467650197133,8.565233432266318,-0.1674704621746405,0.022,0.999999999996809,-91.34830785102677,0.9785409736863432,197,2026-10-08 01:01:57.620243,25.0,0.5625587386960493,2.3713320608813393,3.5472677074314425
0153,cdot_cos,S,R-S,198,39,41559,-0.001976582584056216,-0.002995575990803793,-0.07000194128108632,0.14804107682926465,1070.0,6.319235366338799,0.6104216484883708,8.589405877203374,-0.056897563156861224,0.023,0.9999999999967284,632.2661590979492,0.9835080757879785,198,2026-10-08 01:01:57.643244,25.0,0.14322078033336783,0.9208434063535713,1.1434226571863997
0153,cdot_cos,T,S-T,199,39,41842,-0.25582432361469665,0.13829269897891713,-0.25384774103064045,0.0017503396938816464,1070.0,6.335295441915776,0.6104237160249524,8.611098111435135,-0.03486278534581182,0.283,0.9999999999966369,10657.503236979326,0.988475537879778,199,2026-10-08 01:01:57.926244,25.0,0.5315048514885842,0.18046374936972076,0.056749383664229984
0153,cdot_cos,P,T-P,200,40,42461,0.0250448595600599,-0.0003169345796788167,0.28086918317475656,0.99910851456855,1078.0,6.421377848482061,0.6116032332412417,8.649388078473747,-0.18816613620118527,0.619,0.9999999999966224,-129.97127022669497,0.9934434726773276,200,2026-10-08 01:01:58.545243,25.0,0.44276178632279817,0.09706449318842221,0.1390668926757429
0153,cdot_cos,Q,P-Q,201,40,42582,-0.017572162036951475,-0.011412773122425834,-0.042617021597011376,0.25627399292936587,1078.0,6.455461284483043,0.6119055726060866,8.675271657601899,-0.07518285284608386,0.121,0.9999999999965276,373.69689988287,0.9984107100308622,201,2026-10-08 01:01:58.666244,25.0,0.22251073228763585,0.46595993521527823,0.2816812892643128
0153,cdot_cos,R,Q-R,202,40,42604,0.06496566729085038,0.07242307965353018,0.08253782932780185,0.8872992010477828,1078.0,6.5341401528041585,0.6129516976370943,8.71169346116454,-0.17489991202551908,0.022,0.9999999999964996,-95.32040265146419,1.0033778075290205,202,2026-10-08 01:01:58.688244,25.0,0.5654474884210549,2.4088351677888515,3.57631219641434
0153,cdot_cos,S,R-S,203,40,42627,-0.002069782698502813,-0.00302408299407885,-0.0670354499893532,0.15764096594750002,1078.0,6.5614500318657525,0.613137447546193,8.735876926466112,-0.0611932861316351,0.023,0.9999999999964129,612.1490257821125,1.0083449073927915,203,2026-10-08 01:01:58.711244,25.0,0.1559600724915278,0.9492682097285348,1.1873860461562604
0153,cdot_cos,T,S-T,204,40,42921,-0.23386196298963755,0.1293903768120545,-0.23179218029113474,0.0030340915887441416,1078.0,6.577806490451671,0.6131410223236876,8.757418454007327,-0.03677203474069424,0.294,0.9999999999963151,6831.544460600025,1.013312400865966,204,2026-10-08 01:01:59.005243,25.0,0.5147233805632796,0.1760433130106634,0.055634212877274186
0153,cdot_cos,P,T-P,205,41,43539,0.045831072660785094,0.004546947849416244,0.27969303565042264,0.9990819368474579,1057.0,6.6649634999160225,0.6143174792443455,8.795701065974782,-0.19726417057320944,0.618,0.999999999996299,-136.41990030774804,1.0182803725584415,205,2026-10-08 01:01:59.623244,25.0,0.4432639355488254,0.09648496503471707,0.14103075965105413
0153,cdot_cos,Q,P-Q,206,41,43661,-0.00422584304924843,-0.003543459674628857,-0.050056915710033525,0.22245392646781062,1057.0,6.697061907234581,0.6145792460303411,8.820885667524102,-0.0732846644270021,0.122,0.999999999996194,473.6258103742706,1.0232476156718568,206,2026-10-08 01:01:59.745243,25.0,0.1841964570986739,0.45312588624010275,0.26310169933244953
0153,cdot_cos,R,Q-R,207,41,43682,0.07208190223824537,0.08410589483729061,0.0763077452874938,0.8707598176461269,1057.0,6.775526216158608,0.6156032509702518,8.857002604471973,-0.18044631149198959,0.021,0.9999999999961623,-104.64954111874675,1.0282147091957599,207,2026-10-08 01:01:59.766243,25.0,0.5521861959042333,2.4971149697310824,3.7363956630488677
0153,cdot_cos,S,R-S,208,41,43706,-0.0003481663614686285,-0.0005384362563921871,-0.072430068599714,0.1405472987193246,1057.0,6.801940735963287,0.6157684374820888,8.880752865462195,-0.061209145928652973,0.024,0.9999999999960677,721.8335458347518,1.0331818081868922,208,2026-10-08 01:01:59.790244,25.0,0.1425548303392442,0.8906293123888132,1.100604991861635
0153,cdot_cos,T,S-T,209,41,43994,-0.3863449592254428,0.12894567452750252,-0.3859967928639742,6.44265817284975e-05,1057.0,6.818276423153271,0.6157685131971137,8.902076290369795,-0.037973131469888316,0.288,0.999999999995962,306887.76084284513,1.0381493083701163,209,2026-10-08 01:02:00.078244,25.0,0.542315836278083,0.18160971833657466,0.056721136076332626
0153,cdot_cos,P,T-P,210,42,44596,0.020700633513362612,-0.0007245975341424026,0.4070455927388054,0.9999619335745309,1057.0,6.906547933725154,0.6169430047140205,8.940368006719446,-0.20652849878424456,0.602,0.9999999999959447,-143.5134821222591,1.0431172933112542,210,2026-10-08 01:02:00.680243,25.0,0.44213672228844314,0.10155767025048966,0.14663041623236414
0153,cdot_cos,Q,P-Q,211,42,44719,-0.024621092479055008,-0.015706233299275972,-0.04532172599241762,0.24359993571905064,1057.0,6.94055185813486,0.6172289155691758,8.965783138297008,-0.08024492197504013,0.123,0.9999999999958359,441.68864012042815,1.04808454241887,211,2026-10-08 01:02:00.803244,25.0,0.20727130183872025,0.47039570092733035,0.27645466999761253
0153,cdot_cos,R,Q-R,212,42,44741,0.06448240337201258,0.07644341395599247,0.08910349585106758,0.9026996586081738,1057.0,7.022265276153277,0.6182876968418501,9.002420123171778,-0.1942394169933122,0.022,0.9999999999958052,-107.66576436541763,1.0530516350926453,212,2026-10-08 01:02:00.825243,25.0,0.5560615880341089,2.4917091454544806,3.7142462735644055
0153,cdot_cos,S,R-S,213,42,44766,-0.002754393517235283,-0.004368548916522188,-0.06723679688924786,0.15697369444117468,1057.0,7.050187060534857,0.6184716978073757,9.026312627868519,-0.06688117614221571,0.025,0.9999999999957063,692.1607203927373,1.0580187334883129,213,2026-10-08 01:02:00.850244,25.0,0.14893483328296273,0.8891891542758934,1.1168713752632087
0153,cdot_cos,T,S-T,214,42,45060,-0.37003437108115594,0.09866164556194672,-0.36727997756392067,0.00010286405370760745,1057.0,7.066724733867072,0.6184718183711218,9.047478070888905,-0.03973792549085445,0.294,0.9999999999955933,225136.09214966753,1.0629862596496669,214,2026-10-08 01:02:01.144243,25.0,0.5050708517286873,0.1800343545746132,0.05625058956535529
0153,cdot_cos,P,T-P,215,43,45653,0.029988498648249304,-8.898366017486868e-05,0.40002286972940526,0.9999546280786259,1057.0,7.15604726102473,0.6196431422419031,9.085767702439625,-0.21598436090935752,0.593,0.9999999999955751,-150.4677227323447,1.067954268886017,215,2026-10-08 01:02:01.737243,25.0,0.44219036410175283,0.10599087499102798,0.15062820768576407
0153,cdot_cos,Q,P-Q,216,43,45768,-0.009667834021644936,-0.007712185360705019,-0.03965633266989424,0.27063399848618713,1057.0,7.192429911606431,0.6199599179557944,9.111529270186141,-0.08872324859092998,0.115,0.999999999995463,401.7388541410911,1.0729215098747482,216,2026-10-08 01:02:01.852243,25.0,0.23826771674107772,0.5161324532565613,0.31637087462348773
0153,cdot_cos,R,Q-R,217,43,45796,0.0772825092915476,0.08900013635053758,0.08695034331319254,0.897868147907608,1057.0,7.274757725273739,0.6210101351139714,9.148067153781207,-0.2022092979392095,0.028,0.9999999999954312,-108.05960316366674,1.0778886101082257,217,2026-10-08 01:02:01.880243,25.0,0.5705065557575357,1.9279853889929064,2.9402790595467145
0153,cdot_cos,S,R-S,218,43,45819,-0.0019212062164519206,-0.0029448513672256037,-0.07920371550799953,0.12130893635757063,1057.0,7.300397093390034,0.6211519408945163,9.171215120499385,-0.06343482936531623,0.023,0.9999999999953216,978.6234950411753,1.0828557030713963,218,2026-10-08 01:02:01.903244,25.0,0.11217782677594947,0.9215745121499384,1.114755135491076
0153,cdot_cos,T,S-T,219,43,46119,-0.3163030966027627,0.12800095474276058,-0.31438189038631076,0.0003858996355750946,1057.0,7.317150152832636,0.6211523919642792,9.192232583248986,-0.04156960421638169,0.3,0.999999999995201,48474.15399691683,1.087823256295619,219,2026-10-08 01:02:02.203244,25.0,0.5909696016906599,0.1785024373697756,0.05584353147534138
0153,cdot_cos,P,T-P,220,44,46710,0.024816764886162117,-0.0006406576262222168,0.3411198614889248,0.9998021881771085,1063.0,7.407498555811899,0.6223203338052425,9.230519237709759,-0.2255522366684381,0.591,0.9999999999951815,-157.5272209618768,1.0927913007681744,220,2026-10-08 01:02:02.794244,25.0,0.44233022952922896,0.10561864302587483,0.15287377830670548
0153,cdot_cos,Q,P-Q,221,44,46826,-0.021435337514525345,-0.01342233152045573,-0.04625210240068746,0.23933977831204806,1063.0,7.44199138888922,0.6225997141268939,9.255627986512312,-0.08681520786007081,0.116,0.9999999999950594,496.58840675801605,1.0977585476582987,221,2026-10-08 01:02:02.910244,25.0,0.20228597298956777,0.5166347202762643,0.2973520092872508
0153,cdot_cos,R,Q-R,222,44,46851,0.07976214416086749,0.08867791770897128,0.10119748167539283,0.9262140508557443,1063.0,7.527357810915992,0.623680111169885,9.292642314630157,-0.2163481397847246,0.025,0.9999999999950286,-119.8938230764098,1.1027256407370016,222,2026-10-08 01:02:02.935244,25.0,0.5495120916871017,2.211696302810804,3.41465688107089
0153,cdot_cos,S,R-S,223,44,46873,-0.003184418779432297,-0.00471365281358388,-0.08294656294029978,0.11168300859617106,1063.0,7.55257620402976,0.6238103027501655,9.315492303062516,-0.06437550579623967,0.022,0.9999999999949116,1167.3000178741709,1.1076927296463435,223,2026-10-08 01:02:02.957243,25.0,0.09435213327495424,0.9691695538884625,1.146290596080361
0153,cdot_cos,T,S-T,224,44,47170,-0.20217546510434234,0.13544734150426713,-0.19899104632491005,0.00686264420722223,1063.0,7.570001271287085,0.6238183021172333,9.336475371098992,-0.04460675008531414,0.297,0.9999999999947845,2471.2899837239047,1.112660295420855,224,2026-10-08 01:02:03.254244,25.0,0.6419925563016301,0.18267108087950618,0.058670260125671385
0153,cdot_cos,P,T-P,225,45,47773,0.017501011262463267,-0.0004308740459269542,0.2196764763668056,0.9958969447712136,1062.0,7.661082826072187,0.6249784407803624,9.37469495048649,-0.23454522965447572,0.603,0.9999999999947639,-163.72049790744444,1.1176283998951246,225,2026-10-08 01:02:03.857243,25.0,0.4449399278823074,0.10467233064178368,0.15104735453582466
0153,cdot_cos,Q,P-Q,226,45,47893,-0.02795561720650783,-0.017765987363759162,-0.0454566284689711,0.24297904829507833,1062.0,7.696236102041076,0.6252612744294848,9.399757285380273,-0.09124636034422277,0.12,0.9999999999946345,506.6542462500139,1.1225956581894174,226,2026-10-08 01:02:03.977243,25.0,0.20794925233601966,0.503081733124063,0.29294396640740705
0153,cdot_cos,R,Q-R,227,45,47918,0.06779631269313263,0.0787130831135706,0.09575192989964046,0.9163531647169556,1062.0,7.781822442021962,0.6263271616015512,9.436589548317421,-0.22364427046888563,0.025,0.9999999999946007,-124.21381323876898,1.1275627489310367,227,2026-10-08 01:02:04.002244,25.0,0.55321849628776,2.2697828980350643,3.423453599235451
0153,cdot_cos,S,R-S,228,45,47940,-0.0035845023528043823,-0.005578735772409731,-0.07138081504593702,0.1437458562078237,1062.0,7.809725246942829,0.6264942535241735,9.459875131029055,-0.07343376247538128,0.022,0.9999999999944802,898.9692956794033,1.1325298353120763,228,2026-10-08 01:02:04.024243,25.0,0.12931243991761987,1.0425162207322693,1.268309314584861
0153,cdot_cos,T,S-T,229,45,48232,-0.18193289197301105,0.11240731345289239,-0.17834838962020666,0.011444791677101723,1062.0,7.827693155734182,0.6265075557918633,9.480799024685059,-0.04742586260975939,0.292,0.9999999999943461,1955.147834346288,1.137497410039411,229,2026-10-08 01:02:04.316243,25.0,0.5778790691592068,0.18818268155218326,0.061533934216962
0153,cdot_cos,P,T-P,230,46,48835,0.020572792453545718,-0.0007098896219810314,0.20250568442655675,0.9937109860406532,1071.0,7.919623932969304,0.6276618134819884,9.518982463763429,-0.24404776250334853,0.603,0.9999999999943244,-170.34489055238197,1.1424655555233802,230,2026-10-08 01:02:04.919244,25.0,0.4467885895084001,0.10593404954933046,0.15245568364033518
0153,cdot_cos,Q,P-Q,231,46,48957,-0.02408012858403559,-0.01572267120427764,-0.04465292103758131,0.24669396127413357,1071.0,7.9554496194906745,0.6279481391964912,9.544006131412479,-0.0958477080895157,0.122,0.9999999999941885,517.5925420151958,1.1474328223196066,231,2026-10-08 01:02:05.041243,25.0,0.21305532103509736,0.4960878827167224,0.29365316820795423
0153,cdot_cos,R,Q-R,232,46,48981,0.06338040480215298,0.07363040835874267,0.08746053338618857,0.8990318493765196,1071.0,8.040669376352184,0.6289908408894871,9.580523894264882,-0.22947104225385523,0.024,0.9999999999941507,-128.15106665877704,1.1523999088602748,232,2026-10-08 01:02:05.065243,25.0,0.5586063685378021,2.3879847819187248,3.5508232025629103
0153,cdot_cos,S,R-S,233,46,49003,-0.0030976484240124425,-0.004764666778659882,-0.06647805322616543,0.15950022789763624,1071.0,8.070072889022773,0.6291757049092752,9.603971146774695,-0.07972585098273496,0.022,0.999999999994025,810.028860363132,1.1573669927046968,233,2026-10-08 01:02:05.087244,25.0,0.15285715814238535,1.0777494131707064,1.3365233032085881
0153,cdot_cos,T,S-T,234,46,49285,-0.18916305408913103,0.12378541371837999,-0.1860654056651186,0.009455716055002955,1071.0,8.088090350531695,0.6291866630896858,9.624726037434689,-0.0489964895846361,0.282,0.999999999993882,2804.2394126193,1.1623345665481195,234,2026-10-08 01:02:05.369244,25.0,0.5340986303969854,0.19688113189938566,0.0638917074784473
0153,cdot_cos,P,T-P,235,47,49906,0.021926097010819493,-0.0007145364461030651,0.21108915109995052,0.994919381870965,1046.0,8.181113847414027,0.6303389250359703,9.662933977375342,-0.2543787417329205,0.621,0.9999999999938602,-178.24267547023325,1.1673027879654403,235,2026-10-08 01:02:05.990243,25.0,0.44602171457288914,0.10292010867838557,0.14979629127589592
0153,cdot_cos,Q,P-Q,236,47,50021,-0.026820760708103172,-0.01750074449120359,-0.04874685771892266,0.2281703364362042,1046.0,8.21591712551025,0.6306029709007797,9.687528910291338,-0.09589124767977063,0.115,0.9999999999937133,600.227139204008,1.1722700462526485,236,2026-10-08 01:02:06.105243,25.0,0.19151603687353358,0.5269587152262151,0.3026372008367263
0153,cdot_cos,R,Q-R,237,47,50049,0.062168320782638745,0.07338150985284447,0.08898908149074192,0.9024481351887569,1046.0,8.302314351916056,0.6316465450003199,9.724097340598455,-0.23952243222658656,0.028,0.9999999999936737,-137.6339108167712,1.177237138081308,237,2026-10-08 01:02:06.133244,25.0,0.5490001825991832,2.076018092830883,3.0856152287787832
0153,cdot_cos,S,R-S,238,47,50073,-0.003764846248844578,-0.006025951783793702,-0.06593316703148332,0.16133489412416385,1046.0,8.33217413870878,0.6318329801851781,9.747466851842148,-0.08334653971041879,0.024,0.9999999999935408,837.6953772700085,1.1822042232062941,238,2026-10-08 01:02:06.157243,25.0,0.15353699139486923,0.9973332956205356,1.2441577830301458
0153,cdot_cos,T,S-T,239,47,50364,-0.2028150400130732,0.11719661194847718,-0.19905019376422864,0.006852573496802339,1046.0,8.350186350105842,0.6318408980022049,9.768045613741663,-0.05042110219671263,0.291,0.9999999999933891,4158.3983820599215,1.1871718319222697,239,2026-10-08 01:02:06.448243,25.0,0.5204772607921643,0.19273920351207643,0.061897633666880475
0153,cdot_cos,P,T-P,240,48,50952,0.027662189394718092,-0.0015773783839994576,0.2304772294077913,0.9968648267191544,1070.0,8.444348355152808,0.6329919681021645,9.806292228159695,-0.26500946649170753,0.588,0.9999999999933658,-186.4251050414056,1.1921400313902595,240,2026-10-08 01:02:07.036243,25.0,0.4449744178430178,0.11051476054574917,0.16013946436558887
0153,cdot_cos,Q,P-Q,241,48,51060,-0.019249794376525638,-0.011387070296012216,-0.046911983771243726,0.2363493173015572,1070.0,8.480151708507643,0.6332646565902751,9.830934991802367,-0.10151301416199132,0.108,0.9999999999932143,599.5722572029508,1.1971072803675682,241,2026-10-08 01:02:07.144243,25.0,0.19976852093532335,0.5723619384562434,0.33151253106328477
0153,cdot_cos,R,Q-R,242,48,51087,0.0728845734199157,0.07548570102807822,0.09213436779644132,0.9091548641995763,1070.0,8.567978533859357,0.6343127992467477,9.86761535287298,-0.250530783897234,0.027,0.9999999999931752,-142.17317539269723,1.2020743681991721,242,2026-10-08 01:02:07.171244,25.0,0.5516683544379836,2.141529687328219,3.2528453833968083
0153,cdot_cos,S,R-S,243,48,51113,-0.0028536411665554323,-0.003930962213043211,-0.07573821458647112,0.13085099272932854,1070.0,8.595794311623367,0.6344635497827316,9.890331885261725,-0.07987035118132312,0.026,0.9999999999930311,1132.0718138881832,1.207041455113201,243,2026-10-08 01:02:07.197243,25.0,0.11804159739696805,0.889111581075203,1.0698376063080772
0153,cdot_cos,T,S-T,244,48,51388,-0.188052345263743,0.14609815715754268,-0.18519870409718758,0.00966083298627974,1070.0,8.614212336075267,0.6344746787707094,9.910835259355167,-0.05302740286362218,0.275,0.9999999999928716,2411.9846630400157,1.2120090495741278,244,2026-10-08 01:02:07.472243,25.0,0.6027763810132977,0.20619858587066758,0.06697463437054745
0153,cdot_cos,P,T-P,245,49,52022,0.023271338607770427,-0.00048663914205697656,0.21132368387151343,0.9949489339682352,1062.0,8.709203533852234,0.6356200589841724,9.949052007737679,-0.2749241227050887,0.634,0.9999999999928482,-193.7319304395639,1.2169773850538537,245,2026-10-08 01:02:08.106244,25.0,0.44614116593079867,0.10555087022733008,0.14982838766083065
0153,cdot_cos,Q,P-Q,246,49,52138,-0.016378232562359415,-0.011470902114355834,-0.03964957117012984,0.27066736629994714,1062.0,8.748050839523522,0.6359313848772711,9.974219566760668,-0.11325944678874467,0.116,0.9999999999926921,519.2779640243477,1.221944654596671,246,2026-10-08 01:02:08.222244,25.0,0.2399358719886816,0.5470233654331578,0.33489056613179236
0153,cdot_cos,R,Q-R,247,49,52162,0.07174332985026698,0.07941702448590651,0.08812156241262639,0.9005220877291601,1062.0,8.836112954632727,0.6369663594977054,10.010737801894523,-0.25829623248662503,0.024,0.9999999999926489,-140.13559640430054,1.2269117337183657,247,2026-10-08 01:02:08.246243,25.0,0.5703452719739812,2.4256196323076593,3.6692547962168622
0153,cdot_cos,S,R-S,248,49,52184,-0.002822552694000972,-0.004142175744310486,-0.07456588254426795,0.1342204097836238,1062.0,8.86448058187429,0.6371205113652387,10.033409508401709,-0.08374118091322448,0.022,0.9999999999924979,1132.3576831508508,1.2318788097239077,248,2026-10-08 01:02:08.268243,25.0,0.1243743983916453,1.058730539513896,1.2894376018892248
0153,cdot_cos,T,S-T,249,49,52482,-0.21765393099149655,0.14141566726453328,-0.21483137829749557,0.004628954903590597,1062.0,8.882697098371338,0.637125827207959,10.053701628463081,-0.05391634264829919,0.298,0.9999999999923276,5610.55693980726,1.236846470122506,249,2026-10-08 01:02:08.566243,25.0,0.5751244686064422,0.19195897579367546,0.06112924999009555
0153,cdot_cos,P,T-P,250,50,53084,0.028310585896688403,-0.00018967617701458022,0.24596451688818494,0.997869174936923,1059.0,8.97888813144732,0.6382709852964539,10.091976547100865,-0.2861454724843944,0.602,0.9999999999923025,-202.79220150408676,1.2418147830295672,250,2026-10-08 01:02:09.168243,25.0,0.44415700697003546,0.1110059766957425,0.15978576922920615
0153,cdot_cos,Q,P-Q,251,50,53206,-0.016063363769135027,-0.010817294599740264,-0.044373949665823434,0.2479923231842646,1059.0,9.016348294313012,0.6385553392038196,10.116646450304321,-0.11223069368055406,0.122,0.9999999999921355,611.6138174960075,1.246782070208473,251,2026-10-08 01:02:09.290244,25.0,0.21232892477875012,0.5126941540831345,0.30705051529255634
0153,cdot_cos,R,Q-R,252,50,53229,0.06511887152361873,0.07671761459591586,0.08118223529275376,0.8838654982306023,1059.0,9.103985505043605,0.6395680099712148,10.152854854321717,-0.26406365024429546,0.023,0.999999999992088,-149.93318801360084,1.251749144510162,252,2026-10-08 01:02:09.313244,25.0,0.5627126304550174,2.5648779335526304,3.81031351002578
0153,cdot_cos,S,R-S,253,50,53251,-0.0025025096588606435,-0.0038882560788371322,-0.06762138118247937,0.1557055572201589,1059.0,9.134332679256433,0.6397462781435621,10.175814923620415,-0.09201602428124145,0.022,0.9999999999919309,965.1056815000837,1.2567162177424502,253,2026-10-08 01:02:09.335244,25.0,0.15416108415265056,1.1019589999409523,1.379417009674003
0153,cdot_cos,T,S-T,254,50,53546,-0.26744028513119517,0.12092942645520956,-0.26493777547233455,0.0013270825060877423,1059.0,9.152471701041007,0.6397477973622816,10.195929546661887,-0.05514570124414918,0.295,0.9999999999917523,24269.265882540418,1.2616838907803152,254,2026-10-08 01:02:09.630244,25.0,0.5124263339588475,0.19560706805465805,0.06148820943923332
0153,cdot_cos,P,T-P,255,51,54143,0.026585091965226404,-0.00046698713085493825,0.29402537709642157,0.999358227325222,1047.0,9.249740849408681,0.6408910471080501,10.234237257336892,-0.2971661773197777,0.597,0.999999999991726,-211.69519343556686,1.266652236223425,255,2026-10-08 01:02:10.227243,25.0,0.4428925587606676,0.11281744805995685,0.16292989676327374
0153,cdot_cos,Q,P-Q,256,51,54264,-0.018870445317676707,-0.01257499169791806,-0.04545553728290311,0.24298406615567894,1047.0,9.287175734024595,0.6411687758780029,10.258729533151898,-0.11516503078487411,0.121,0.9999999999915504,655.3197443888658,1.2716195264060233,256,2026-10-08 01:02:10.348243,25.0,0.2059028583848715,0.5218364661461709,0.30937921170176896
0153,cdot_cos,R,Q-R,257,51,54285,0.06403307751042044,0.07468192425585297,0.08290352282809714,0.888210196646105,1047.0,9.376025274216055,0.6421831864679207,10.295008929376332,-0.2748557038070404,0.021,0.9999999999915007,-157.42212730163433,1.2765865935242728,257,2026-10-08 01:02:10.369244,25.0,0.5593397470294076,2.8521636582806864,4.230930485307585
0153,cdot_cos,S,R-S,258,51,54309,-0.002473157300915808,-0.003846530387340529,-0.06650623481133625,0.15940580003846017,1047.0,9.406966607672384,0.6423651068736917,10.317940682600822,-0.0963096409353769,0.024,0.9999999999913369,981.4515425849834,1.2815536685857307,258,2026-10-08 01:02:10.393243,25.0,0.1566290069081136,1.030896621681136,1.2892222273470644
0153,cdot_cos,T,S-T,259,51,54602,-0.2220206420090451,0.1315726469856209,-0.2195474847081293,0.004116253531527463,1047.0,9.425508312056749,0.6423698039672822,10.337992884124821,-0.057865655193595836,0.293,0.999999999991149,8184.632688661406,1.2865213564274751,259,2026-10-08 01:02:10.686244,25.0,0.5145995750011305,0.19905007959308715,0.06328226752342996
0153,cdot_cos,P,T-P,260,52,55190,0.023675645659436705,-0.00030525759808107704,0.24569628766848178,0.9978548689370583,1032.0,9.523609954313933,0.6435076564773621,10.3762789718737,-0.3076188427035843,0.588,0.9999999999911214,-219.49522042399587,1.2914897251794024,260,2026-10-08 01:02:11.274244,25.0,0.4440173202864101,0.11557746989192708,0.16683952764827228
0153,cdot_cos,Q,P-Q,261,52,55310,-0.021734647205869668,-0.014359785325151893,-0.04541029286530637,0.243192186269253,1032.0,9.561427416649655,0.6437847234404744,10.400691506275656,-0.11939402920917677,0.12,0.9999999999909385,679.3477337753759,1.2964570183989972,261,2026-10-08 01:02:11.394243,25.0,0.2066970552133189,0.5330017108165608,0.3151455194643512
0153,cdot_cos,R,Q-R,262,52,55333,0.06316444723350198,0.07625730108773046,0.08489909443937164,0.8930687404483979,1032.0,9.651530364909908,0.6448013629918306,10.437053008609322,-0.2860053568996606,0.023,0.9999999999908885,-163.88436537634018,1.301424087421873,262,2026-10-08 01:02:11.417243,25.0,0.5584745787642134,2.6423711441035125,3.9175194895761933
0153,cdot_cos,S,R-S,263,52,55356,-0.002589458198724642,-0.004219965497964192,-0.06575390543222662,0.16194219383854233,1032.0,9.682976489278417,0.644985572984291,10.4599393883165,-0.10042465177355128,0.023,0.9999999999907168,1007.4410331779906,1.306391157607924,263,2026-10-08 01:02:11.440243,25.0,0.15755831145108515,1.0863626407533273,1.3672227986308318
0153,cdot_cos,T,S-T,264,52,55641,-0.25807315509039785,0.10254752557243518,-0.2554836968916732,0.0016803147526344116,1032.0,9.70150304638456,0.6449874841249503,10.479837323466597,-0.05931825292548603,0.285,0.9999999999905197,21508.829634488968,1.3113588461795795,264,2026-10-08 01:02:11.725244,25.0,0.5000832943107019,0.20645031251273532,0.06500546353032957
0153,cdot_cos,P,T-P,265,53,56222,0.025088956534217128,-0.00024834151203530154,0.28316211162461496,0.9991581384664523,1042.0,9.800653167410676,0.6461230764116502,10.51815332301483,-0.318923878533789,0.581,0.9999999999904919,-228.60812692091417,1.3163272423226717,265,2026-10-08 01:02:12.306243,25.0,0.44307998120370656,0.11966003770056739,0.1706542530569969
0153,cdot_cos,Q,P-Q,266,53,56342,-0.015850729973973954,-0.01155094314147608,-0.04093968650819108,0.2643477279769068,1042.0,9.84054801019262,0.6464232456828307,10.542877001222912,-0.12919015280977264,0.12,0.999999999990306,632.0891041839341,1.3212945410776733,266,2026-10-08 01:02:12.426244,25.0,0.23023857532686653,0.5445038176278357,0.3324570231828676
0153,cdot_cos,R,Q-R,267,53,56363,0.06813120326503458,0.07906768001571803,0.08398193323900853,0.890859271215328,1042.0,9.931334083641357,0.6474339736923522,10.579191389520181,-0.29556079658640805,0.021,0.9999999999902537,-164.6047623191891,1.3262616027507714,267,2026-10-08 01:02:12.447244,25.0,0.5695559758494398,2.883885741905768,4.323146354701736
0153,cdot_cos,S,R-S,268,53,56388,-0.002978295153990238,-0.0047352910032674445,-0.07110949841902482,0.1445827367806623,1042.0,9.961671211352662,0.6475978865121784,10.601667380691373,-0.09934886004334335,0.025,0.9999999999900715,1197.050583054564,1.33122867532866,268,2026-10-08 01:02:12.472243,25.0,0.13876419234341988,0.984164807561676,1.2134851084522325
0153,cdot_cos,T,S-T,269,53,56683,-0.22653295891262973,0.12911410486390207,-0.2235546637586395,0.003725333563667074,1042.0,9.98054232401944,0.6476021094476071,10.621497391074472,-0.06195223085085012,0.295,0.9999999999898662,8855.600523403698,1.3361964076152113,269,2026-10-08 01:02:12.767244,25.0,0.5468194946550501,0.20151359357112397,0.06396987344670506
0153,cdot_cos,P,T-P,270,54,57264,0.030166240642454763,-0.00022983610806255074,0.25669919955508447,0.9983698959355928,1048.0,10.080564231559626,0.6487330008567745,10.65980460149416,-0.3298351649846668,0.581,0.9999999999898371,-236.87768070590474,1.3411648477802849,270,2026-10-08 01:02:13.348243,25.0,0.4438928177759747,0.1179415931526787,0.1721547461965321
0153,cdot_cos,Q,P-Q,271,54,57380,-0.01938236385245333,-0.012586341426819669,-0.0495486044949081,0.22465971820587902,1048.0,10.117590455262853,0.6489872520298948,10.68371347098997,-0.12289214207412312,0.116,0.9999999999896353,813.9314378409763,1.3461321419710641,271,2026-10-08 01:02:13.464243,25.0,0.1856410631845545,0.5650214658619188,0.3191915836485129
0153,cdot_cos,R,Q-R,272,54,57405,0.0785881078837209,0.08996476974843103,0.09797047173617424,0.9205074504327357,1048.0,10.21164921163959,0.6500281218001098,10.720573533445421,-0.31378286705191444,0.025,0.9999999999895874,-183.3953972343349,1.3510992108480966,272,2026-10-08 01:02:13.489243,25.0,0.5442465461424315,2.4448109398906226,3.7623502550695065
0153,cdot_cos,S,R-S,273,54,57429,-0.0030871017643933677,-0.004712417655895024,-0.08167520964811427,0.1148754124190704,1048.0,10.239831002257384,0.6501579179240844,10.742406899681287,-0.09456455226197545,0.024,0.999999999989391,1688.943460537326,1.3560662784039517,273,2026-10-08 01:02:13.513243,25.0,0.0984519181864291,0.9833770310668047,1.1742412757413945
0153,cdot_cos,T,S-T,274,54,57712,-0.2297487932813337,0.14108286849938884,-0.22666169151694035,0.0034478786393841616,1048.0,10.258851309130797,0.6501618132903028,10.762128063149465,-0.06397004567080211,0.283,0.9999999999891753,7854.0770947115625,1.3610340002678183,274,2026-10-08 01:02:13.796243,25.0,0.6198591463983271,0.21192165902948656,0.06720956492372143
0153,cdot_cos,P,T-P,275,55,58312,0.022690774695176393,-0.0004951533459526834,0.2524395679765101,0.9981870570008621,1049.0,10.359778661268074,0.6512887071938135,10.80043702887628,-0.34091944486112036,0.6,0.9999999999891467,-245.76350828370738,1.3660025325412282,275,2026-10-08 01:02:14.396243,25.0,0.4438093362593592,0.11708837105523173,0.16821225356212705
0153,cdot_cos,Q,P-Q,276,55,58427,-0.020934190401966146,-0.013239016345433,-0.04362496509714254,0.2515007693488779,1049.0,10.399357354397075,0.6515723705806282,10.824770261823431,-0.13455189998317493,0.115,0.9999999999889412,727.5085699118662,1.3709698291715842,276,2026-10-08 01:02:14.511244,25.0,0.21572747464948513,0.5816638035658003,0.34416254894784226
0153,cdot_cos,R,Q-R,277,55,58453,0.07251454028019806,0.08265737845862357,0.09344873068216421,0.9118325297867633,1049.0,10.493561336088208,0.6525999090237182,10.8614643706486,-0.3218761560410367,0.026,0.9999999999888896,-182.3038907376955,1.3759368980406559,277,2026-10-08 01:02:14.537244,25.0,0.5587929985971654,2.387198972461723,3.6232300650435465
0153,cdot_cos,S,R-S,278,55,58475,-0.002509143247283649,-0.0038075693682757066,-0.0750236835274817,0.13289599629119178,1049.0,10.523491700965085,0.6527495503701677,10.883547182749435,-0.10285307775479144,0.022,0.9999999999886878,1463.6534853702397,1.380903957716379,278,2026-10-08 01:02:14.559244,25.0,0.1188996760737866,1.1187764341211917,1.3604711307671542
0153,cdot_cos,T,S-T,279,55,58770,-0.21713853582162218,0.13190997955515602,-0.21462939257433852,0.004652279569703945,1049.0,10.54278749918954,0.6527547883063726,10.903191748995301,-0.06646322857193346,0.295,0.9999999999884626,6947.363953943603,1.3858717302792345,279,2026-10-08 01:02:14.854244,25.0,0.5783832720446774,0.20525632695704843,0.06540948550662726
0153,cdot_cos,P,T-P,280,56,59361,0.025914501201790875,-0.0007755285745453566,0.24305303702341305,0.9977086632348353,1036.0,10.644592933869744,0.6538772384976576,10.941496785263814,-0.3521421908077196,0.591,0.9999999999884319,-254.51370978763865,1.3908402853083637,280,2026-10-08 01:02:15.445244,25.0,0.4442977863524644,0.11981191780715236,0.17225961874822934
0153,cdot_cos,Q,P-Q,281,56,59473,-0.018032990658064466,-0.01277930483710782,-0.043947491859855345,0.2499859362959272,1036.0,10.684405186037594,0.6541582120627805,10.965729087167524,-0.13857704155639072,0.112,0.9999999999882175,760.0898296532122,1.3958075790320408,281,2026-10-08 01:02:15.557244,25.0,0.21413912173576322,0.5958157948179807,0.3554665372129514
0153,cdot_cos,R,Q-R,282,56,59501,0.06768731725649976,0.07846367615066543,0.08572030791456423,0.8950135626147214,1036.0,10.778055671908971,0.6551632863592927,11.002101895214858,-0.3275638955376663,0.028,0.9999999999881607,-188.03272020496036,1.4007746507091756,282,2026-10-08 01:02:15.585243,25.0,0.5616106103640643,2.235253706919206,3.344660209692041
0153,cdot_cos,S,R-S,283,56,59525,-0.0020852743055397418,-0.003208671632263231,-0.06977259156203951,0.14876570502771047,1036.0,10.80957939362507,0.6553302118256065,11.024399950368743,-0.11087916612358745,0.024,0.9999999999879535,1298.0927008868164,1.405741712884741,283,2026-10-08 01:02:15.609244,25.0,0.1416718155160099,1.0618724577300398,1.3134884048374336
0153,cdot_cos,T,S-T,284,56,59814,-0.21930304897913874,0.12731171551658954,-0.217217774673599,0.004362037797424001,1036.0,10.829025549880013,0.6553351057573158,11.043942910605086,-0.06855956134774614,0.289,0.9999999999877183,8647.36316103281,1.4107094898484958,284,2026-10-08 01:02:15.898243,25.0,0.5394162570443666,0.2114167939118256,0.0672877379063789
0153,cdot_cos,P,T-P,285,57,60397,0.03276259440372348,-0.00045571958842362454,0.2520656433828622,0.998170061098522,1051.0,10.931778300506105,0.6564541218237886,11.082261114903847,-0.36374823168674353,0.583,0.9999999999876872,-263.79305819035136,1.4156780693588564,285,2026-10-08 01:02:16.481244,25.0,0.4441827553940337,0.12373232033561586,0.1762482858080475
0153,cdot_cos,Q,P-Q,286,57,60516,-0.00782174296576373,-0.006382484848784714,-0.04058433736948721,0.2660789418038772,1051.0,10.973297435391341,0.6567521218517252,11.106727674511154,-0.14789249825922046,0.119,0.9999999999874681,724.3480308447284,1.4206453872258447,286,2026-10-08 01:02:16.600243,25.0,0.23234200232359647,0.5631727475486633,0.34890029315324705
0153,cdot_cos,R,Q-R,287,57,60539,0.06880177423634833,0.0793445954857908,0.07662351720211205,0.8716456222378169,1051.0,11.065813414422687,0.6577274719055958,11.142651682565203,-0.331109924240362,0.023,0.9999999999874042,-187.8478657524594,1.4256124427343517,287,2026-10-08 01:02:16.623244,25.0,0.5750241708141228,2.7001285330119074,4.022433870928063
0153,cdot_cos,S,R-S,288,57,60562,-0.0013905063442048542,-0.0021046325190754805,-0.07019228058055318,0.14744191821908126,1051.0,11.097503347909889,0.6578923243335718,11.164844633617589,-0.11402961947608102,0.023,0.9999999999871877,1316.8159391370102,1.430579499469751,288,2026-10-08 01:02:16.646244,25.0,0.1490134698280953,1.107881173365577,1.3778231950957514
0153,cdot_cos,T,S-T,289,57,60849,-0.3294368181983041,0.12184411914128629,-0.32804631185409927,0.0002742605216161863,1051.0,11.116775948397503,0.6578926309443212,11.184216378620764,-0.06950795944885413,0.287,0.9999999999869411,145205.80286982752,1.43554729112446,289,2026-10-08 01:02:16.933243,25.0,0.5270151048166692,0.2144095632522766,0.067151918075311
0153,cdot_cos,P,T-P,290,58,61448,0.039677333947983805,-0.002239629531034267,0.3691141521462879,0.9999017457511379,1017.0,11.220574437216696,0.6590095970143329,11.222571348093906,-0.3758373011654875,0.599,0.9999999999869099,-274.2512507236725,1.4405159612625928,290,2026-10-08 01:02:17.532243,25.0,0.44261348696700437,0.12012393625501007,0.17328629185174044
0153,cdot_cos,Q,P-Q,291,58,61562,-0.005303942526850996,-0.004360106356631419,-0.0449812764748348,0.24517162835900944,1017.0,11.260684424031005,0.6592832035695362,11.246572817069831,-0.1461108350506034,0.114,0.9999999999866762,839.6233999007343,1.445483270354671,291,2026-10-08 01:02:17.646244,25.0,0.2075723423379354,0.587422488411595,0.3518419895992066
0153,cdot_cos,R,Q-R,292,58,61585,0.07349419440455239,0.08467605511570159,0.07879813693140339,0.8776061102911294,1017.0,11.35450676457454,0.6602617233172836,11.282601310866683,-0.3433289296460167,0.023,0.9999999999866114,-201.5473832279959,1.4504503229618624,292,2026-10-08 01:02:17.669244,25.0,0.5630262636138579,2.711429564279485,4.079232197544961
0153,cdot_cos,S,R-S,293,58,61609,-0.0008057545543233466,-0.001242169218755074,-0.07429994895887573,0.1349948625105052,1017.0,11.385410183987862,0.6604121198044038,11.30447859897124,-0.11368589272236329,0.024,0.9999999999863826,1526.9175585203125,1.4554173796718013,293,2026-10-08 01:02:17.693243,25.0,0.13265834302507093,1.0482818780447694,1.2876424755550915
0153,cdot_cos,T,S-T,294,58,61906,-0.4272194521347602,0.08570226341582445,-0.42641369758043685,2.345643009418907e-05,1017.0,11.404824294720688,0.6604121459341782,11.323753452409381,-0.07157774950546551,0.297,0.9999999999861249,1611500.4539324704,1.460385219859758,294,2026-10-08 01:02:17.990243,25.0,0.5552785634076294,0.20893802042871193,0.0653673762048038
0153,cdot_cos,P,T-P,295,59,62465,0.027846336426294357,-0.001523795371741246,0.45506578856105456,0.9999885400954307,1042.0,11.509519368122517,0.6615252146237866,11.362113394421753,-0.38748027997860895,0.559,0.9999999999860921,-283.81225114174595,1.4653538212839292,295,2026-10-08 01:02:18.549243,25.0,0.4425181376662533,0.1308565007479856,0.18728993452920956
0153,cdot_cos,Q,P-Q,296,59,62580,-0.014270567483217294,-0.010438372734034232,-0.04211690390951165,0.25866427687731897,1042.0,11.551121862556936,0.6618128388959175,11.386304815360337,-0.15489118440985494,0.115,0.9999999999858553,808.6560075252919,1.4703211385327695,296,2026-10-08 01:02:18.664243,25.0,0.22276697526371597,0.6021573640385546,0.36176082116886754
0153,cdot_cos,R,Q-R,297,59,62603,0.07549859457758602,0.08374179950144173,0.08976916206080332,0.9041515811663803,1042.0,11.648015561851384,0.662817278583288,11.422832529574562,-0.36238456283196674,0.023,0.9999999999857955,-206.57624447845188,1.4752881884891234,297,2026-10-08 01:02:18.687244,25.0,0.5640694692779916,2.7653320350111312,4.212769534541208
0153,cdot_cos,S,R-S,298,59,62627,-0.0023347081489991993,-0.003482365091531166,-0.07783330272658522,0.125008485656786,1042.0,11.678327136167448,0.6629560376094465,11.444441981190256,-0.11396470431242406,0.024,0.9999999999855557,1790.2969298420035,1.4802552426549977,298,2026-10-08 01:02:18.711244,25.0,0.1130645419569599,1.0440977803940859,1.2629822631693433
0153,cdot_cos,T,S-T,299,59,62912,-0.2395929508244471,0.15210710702746133,-0.2372582426754479,0.002647585560610043,1042.0,11.6981322553103,0.6629589761175303,11.463678709444261,-0.07462255882782988,0.285,0.9999999999852885,13388.476180195637,1.4852230689364403,299,2026-10-08 01:02:18.996243,25.0,0.590246415443381,0.21977764986286874,0.06949164611526976
0153,cdot_cos,P,T-P,300,60,63507,0.025369282157797997,-0.0013941868314793326,0.2649622329822451,0.9986737275983865,1038.0,11.803600396589284,0.6640664863893574,11.502015988085668,-0.3988680020806847,0.595,0.9999999999852565,-292.7696938809758,1.490191822456615,300,2026-10-08 01:02:19.591244,25.0,0.44356356976144284,0.12196495119792602,0.17725738030081228
0153,cdot_cos,Q,P-Q,301,60,63619,-0.022477126270783434,-0.013661192838718784,-0.04784640842858143,0.232158997860301,1038.0,11.843270547235832,0.6643236886274985,11.525633936518727,-0.1508973455016114,0.112,0.999999999985002,964.1076935071709,1.4951591358607894,301,2026-10-08 01:02:19.703244,25.0,0.19333961952273068,0.6236265521049849,0.3541977736298988
0153,cdot_cos,R,Q-R,302,60,63644,0.0816152681399254,0.0900788393033692,0.10409239441070883,0.9310100904663667,1038.0,11.9432927442608,0.6653541475493833,11.562671197784152,-0.3821285517728625,0.025,0.9999999999849474,-224.39633580764993,1.5001261889511515,302,2026-10-08 01:02:19.728243,25.0,0.5460123637511933,2.5834426498072105,4.000887880998718
0153,cdot_cos,S,R-S,303,60,63666,-0.002574445056873084,-0.0037766880102040263,-0.08418971319679848,0.10863669716824113,1038.0,11.972442679726193,0.6654742861706475,11.58389001736374,-0.11195051137630502,0.022,0.9999999999846935,2248.885808355334,1.5050932342070733,303,2026-10-08 01:02:19.750243,25.0,0.08951309867839224,1.1246454442222953,1.3249970666087534
0153,cdot_cos,T,S-T,304,60,63968,-0.20154414023680373,0.12112424829435742,-0.19896969517993066,0.006866283159011477,1038.0,11.992777143806581,0.6654818787017229,11.603121887248586,-0.07825543704826188,0.302,0.999999999984417,4437.92379555572,1.510061132529152,304,2026-10-08 01:02:20.052243,25.0,0.6501331696069094,0.20932176259566468,0.06733266251784244
0153,cdot_cos,P,T-P,305,61,64545,0.017265377027449146,0.0020751345195034847,0.21880951726425288,0.9958074214293421,1107.0,12.098873024333974,0.6665821038200944,11.641405584219285,-0.4097799096627235,0.577,0.9999999999843813,-301.3242172703449,1.5150298785915397,305,2026-10-08 01:02:20.629244,25.0,0.44528953546819666,0.12794352617812332,0.18387500957953737
0153,cdot_cos,Q,P-Q,306,61,64688,-0.02667073820861901,-0.02117840609884045,-0.043936115236068156,0.25003926601170956,1107.0,12.140423973016135,0.6668580773369867,11.665303377226893,-0.1614013675332796,0.143,0.9999999999841228,900.0086128787216,1.519997292730154,306,2026-10-08 01:02:20.772243,25.0,0.21461973956632255,0.48586470102205687,0.29056607470042833
0153,cdot_cos,R,Q-R,307,61,64712,0.057554372905282744,0.0811220783957141,0.08422511111390175,0.8914489668823901,1107.0,12.237830328826282,0.6678410563822598,11.701572165291838,-0.3799723245067374,0.024,0.9999999999840533,-222.3556626405291,1.5249643396266586,307,2026-10-08 01:02:20.796243,25.0,0.5625762362818739,2.772796617754092,4.0585981587561255
0153,cdot_cos,S,R-S,308,61,64735,-0.0028449718061653805,-0.005380540830765165,-0.06039934471144812,0.1809412210080369,1107.0,12.273518210668332,0.6680403978167183,11.724112925614174,-0.13993283334279127,0.023,0.9999999999838073,1204.1625556470328,1.5299313847114877,308,2026-10-08 01:02:20.819244,25.0,0.17989340947858398,1.235875083297043,1.551647036610844
0153,cdot_cos,T,S-T,309,61,65021,-0.17198037028353824,0.09940396736978309,-0.16913539847737286,0.014366507253785804,1107.0,12.294680582657946,0.668056222698873,11.743408233047445,-0.08316864688479955,0.286,0.9999999999835212,3587.0211166914473,1.5348992552000862,309,2026-10-08 01:02:21.105243,25.0,0.5053424012560247,0.22332944257760062,0.073994307655995
0153,cdot_cos,P,T-P,310,62,65652,0.017757701767621214,-0.00026943106964285007,0.18973807205115945,0.9913666497098026,1085.0,12.40126265182272,0.6691473068696947,11.7816063304505,-0.42034812455238346,0.631,0.9999999999834833,-309.0315914066002,1.5398682195322755,310,2026-10-08 01:02:21.736243,25.0,0.4483668997113659,0.11774228247234461,0.16890977680629632
0153,cdot_cos,Q,P-Q,311,62,65772,-0.02590622814771117,-0.015838520374051965,-0.04366392991533238,0.25131743738590506,1085.0,12.443271343138045,0.6694236150973912,11.805468169743662,-0.1666043492641612,0.12,0.9999999999832103,918.3359373826122,1.5448355679098082,311,2026-10-08 01:02:21.856243,25.0,0.2180497306059465,0.589962357275368,0.350072427627716
0153,cdot_cos,R,Q-R,312,62,65795,0.06527376238913378,0.07181028788099807,0.09117999053684495,0.9071649271776762,1085.0,12.542853617568808,0.6704200145524077,11.842032839572555,-0.3965807637465104,0.023,0.9999999999831417,-230.80744707807932,1.5498026083047933,312,2026-10-08 01:02:21.879244,25.0,0.55995544699328,2.891570985354395,4.329664105685322
0153,cdot_cos,S,R-S,313,62,65817,-0.00352727335820603,-0.005125130507151219,-0.06880103574733981,0.15186782841681548,1085.0,12.576283608464347,0.6705866718252121,11.863943628582446,-0.13380760012988044,0.022,0.9999999999828771,1576.7278510853262,1.5547696467946577,313,2026-10-08 01:02:21.901243,25.0,0.14032228857548104,1.2389071317503342,1.5195450407063535
0153,cdot_cos,T,S-T,314,62,66107,-0.1818296362726223,0.129828110919078,-0.17830236291441628,0.011457817431572035,1085.0,12.597365531365822,0.670599243707338,11.88310317357822,-0.08456457912355193,0.29,0.999999999982577,3916.917173835332,1.5597375509169171,314,2026-10-08 01:02:22.191243,25.0,0.5586050345895175,0.22196384147426282,0.07269628586715492
0153,cdot_cos,P,T-P,315,63,66737,0.021147826855571972,-0.0008695092452714493,0.20297746312819429,0.9937842675484642,1068.0,12.70502263651942,0.671688725172873,11.92134732905798,-0.4333121851196756,0.63,0.9999999999825365,-320.10421198387905,1.5647065644427425,315,2026-10-08 01:02:22.821243,25.0,0.4471588193921878,0.11805363569179952,0.1708842938945992
0153,cdot_cos,Q,P-Q,316,63,66850,-0.025608480622937902,-0.01541585290980821,-0.046756307478509875,0.2370524817376506,1068.0,12.74611311233749,0.6719483325677368,11.944871848563555,-0.1662914433306414,0.113,0.9999999999822486,1028.5559929029648,1.569673895342665,316,2026-10-08 01:02:22.934243,25.0,0.2007410487153869,0.6242469519277362,0.3636325293634505
0153,cdot_cos,R,Q-R,317,63,66878,0.06351582659117469,0.07074940306626779,0.08912430721411259,0.9027453471379954,1068.0,12.846102447655088,0.6729360085033288,11.981342208145085,-0.40626635518760573,0.028,0.9999999999821753,-242.9692809242367,1.5746409488196065,317,2026-10-08 01:02:22.962244,25.0,0.5539484234410615,2.397695814846041,3.5710476899142307
0153,cdot_cos,S,R-S,318,63,66902,-0.0032730705967326168,-0.004873720188724086,-0.0667888971879073,0.15846118968034423,1068.0,12.880384077968868,0.6731092200395984,12.003314045508867,-0.13998251814092952,0.024,0.9999999999818999,1537.3331521765701,1.5796079904151672,318,2026-10-08 01:02:22.986243,25.0,0.1492302380125346,1.1510090309525915,1.42840126307416
0153,cdot_cos,T,S-T,319,63,67185,-0.19489488167390706,0.13195864636306132,-0.19162181107717444,0.0082394730932667,1068.0,12.901350881140813,0.6731182251928546,12.022333104181417,-0.08579675878817648,0.283,0.9999999999815863,6017.194578614776,1.584575892385254,319,2026-10-08 01:02:23.269243,25.0,0.5317618635222733,0.22907625677730442,0.07408764371711855
0153,cdot_cos,P,T-P,320,64,67805,0.02377575855558589,-0.0008408217308933649,0.21867064022949295,0.9957929011551584,1034.0,13.010041239304822,0.6742056143848143,12.060614625887771,-0.44623173408135985,0.62,0.9999999999815438,-331.4682341504594,1.5895449250103453,320,2026-10-08 01:02:23.889244,25.0,0.44586882450813825,0.12207047167229541,0.1753070292967899
0153,cdot_cos,Q,P-Q,321,64,67920,-0.019911233340851382,-0.013814309111592012,-0.04368699189643727,0.25120897112086826,1034.0,13.052718266014459,0.6744796349706337,12.084356001638273,-0.17615902132582362,0.115,0.9999999999812493,985.592786570988,1.5945122676393695,321,2026-10-08 01:02:24.004243,25.0,0.215861381312775,0.6192467082243138,0.3711045800837963
0153,cdot_cos,R,Q-R,322,64,67950,0.06420487481842531,0.07930016972121913,0.0841161081592767,0.8911849863028993,1034.0,13.152467982196415,0.6754507829050362,12.120591088818141,-0.4133480388236978,0.03,0.9999999999811694,-244.23572258719798,1.599479325017227,322,2026-10-08 01:02:24.034244,25.0,0.563367009254676,2.237466170955068,3.32499053939852
0153,cdot_cos,S,R-S,323,64,67974,-0.0027675206998571448,-0.004655656712415817,-0.06697239551828245,0.1578504044745932,1034.0,13.186966236271763,0.6756226397154164,12.142485837912854,-0.14364875921834314,0.024,0.9999999999808822,1569.3255275064125,1.6044463633530819,323,2026-10-08 01:02:24.058244,25.0,0.15297340625253483,1.1518948058834022,1.437427253139519
0153,cdot_cos,T,S-T,324,64,68255,-0.21940479864903462,0.11753351862906285,-0.21663727794917748,0.004425520894278315,1034.0,13.207758932878818,0.6756274572404815,12.161354342229636,-0.08676085757476351,0.281,0.9999999999805542,11808.532571170688,1.609414279217766,324,2026-10-08 01:02:24.339243,25.0,0.5190857159998158,0.23221174064126612,0.07399536159094253
0153,cdot_cos,P,T-P,325,65,68839,0.02341603541903843,0.001537081247334744,0.24282083406807303,0.9976953539171827,1017.0,13.317469234512155,0.6767125756863542,12.199670342559196,-0.45924264311419416,0.584,0.9999999999805107,-343.2637118612773,1.6143832402737068,325,2026-10-08 01:02:24.923244,25.0,0.4443785924280952,0.12961685757112656,0.1878601055365355
0153,cdot_cos,Q,P-Q,326,65,68970,-0.023485304180730193,-0.01816926892890474,-0.046901339599768624,0.2363973493861579,1017.0,13.359151422521894,0.6769694094047253,12.223063723014388,-0.17540312047669246,0.131,0.9999999999802032,1105.1489829207155,1.6193506437040655,326,2026-10-08 01:02:25.054244,25.0,0.19825275874145856,0.5451007600584061,0.3181846412957184
0153,cdot_cos,R,Q-R,327,65,68992,0.06351989532479249,0.08959929558062178,0.08700519950552268,0.8979938384121159,1017.0,13.460285633647457,0.6779440605242197,12.259421321765045,-0.4271845082695501,0.022,0.9999999999801221,-258.32975795836865,1.6243176706913218,327,2026-10-08 01:02:25.076244,25.0,0.5546614888534664,3.092840836586836,4.597009596616514
0153,cdot_cos,S,R-S,328,65,69017,-0.002835225822377096,-0.005715063366779666,-0.06635512114716959,0.159912665743547,1017.0,13.495236419331714,0.6781174621512305,12.28129260954437,-0.14833736573599898,0.025,0.9999999999798261,1608.099920056012,1.6292847095359144,328,2026-10-08 01:02:25.101243,25.0,0.15261799043948723,1.1152764412010185,1.3980314273702987
0153,cdot_cos,T,S-T,329,65,69299,-0.23707890953954364,0.09773319283477772,-0.23424368371716653,0.002854237885130511,1017.0,13.516049455707508,0.6781205567044009,12.300055871858149,-0.08851673101823364,0.282,0.9999999999794849,19330.94421849157,1.6342526497957994,329,2026-10-08 01:02:25.383244,25.0,0.5087433505693568,0.23305094562156395,0.07380509353118249
0153,cdot_cos,P,T-P,330,66,69856,0.023296576963244123,-0.0007554845007203487,0.26037548650278775,0.9985128227914134,1028.0,13.626677152662277,0.6792021797742465,12.338384148916132,-0.4719438387353595,0.557,0.9999999999794404,-354.49235358104704,1.6392215647872774,330,2026-10-08 01:02:25.940243,25.0,0.4437729433389673,0.13776997856846118,0.1986134595238215
0153,cdot_cos,Q,P-Q,331,66,69975,-0.021558169615627943,-0.015333816406804243,-0.04485474657887206,0.245757498606786,1028.0,13.669525211832774,0.6794680983922199,12.361904270425578,-0.18374558695764565,0.119,0.9999999999791289,1083.7836552178305,1.6441889328424786,331,2026-10-08 01:02:26.059244,25.0,0.2083650834202172,0.6187696522671156,0.3600677241218249
0153,cdot_cos,R,Q-R,332,66,70000,0.0793633670241802,0.0976689058311224,0.10092153663980814,0.9257411993972027,1028.0,13.77394432990185,0.6804687374285469,12.398796394841314,-0.4494516907246212,0.025,0.9999999999790561,-265.5364163507948,1.6491559677419991,332,2026-10-08 01:02:26.084243,25.0,0.5536744842284949,2.7054699510133773,4.176764722763053
0153,cdot_cos,S,R-S,333,66,70024,-0.0035679683550537467,-0.005975110030909925,-0.08293133537923394,0.11172078230539294,1028.0,13.804798709383443,0.6805893849856991,12.41965673245154,-0.13343491661826304,0.024,0.9999999999787355,2619.3383568270974,1.654123000420829,333,2026-10-08 01:02:26.108243,25.0,0.09363777088891545,1.0769462289557847,1.2855991450663555
0153,cdot_cos,T,S-T,334,66,70315,-0.26634285113442513,0.13771212612892622,-0.2627748827793714,0.001400713170492128,1028.0,13.825637748891728,0.6805908974659668,12.438318418857321,-0.09029077805783932,0.291,0.9999999999783837,28525.422434867338,1.659090994401466,334,2026-10-08 01:02:26.399244,25.0,0.6201242025821002,0.2274215016114308,0.07161181961610014
0153,cdot_cos,P,T-P,335,67,70884,0.015563200254519566,-0.0008127498883250494,0.2819060513889447,0.9991313066359063,1086.0,13.937158023321295,0.6816687828373543,12.476654039081566,-0.4846319530782494,0.569,0.9999999999783391,-365.84704226274584,1.664059999807178,335,2026-10-08 01:02:26.968243,25.0,0.4432186492804817,0.137208748626703,0.1959934524245476
0153,cdot_cos,Q,P-Q,336,67,70997,-0.025921248069810707,-0.015291694505768883,-0.04148444832433027,0.2617077727327977,1086.0,13.981781304828916,0.6819507984684628,12.500433336631728,-0.1949175096097912,0.113,0.9999999999780218,1027.2992398672131,1.6690273519590175,336,2026-10-08 01:02:27.081243,25.0,0.2261981578464529,0.6656354205486895,0.3948962965276142
0153,cdot_cos,R,Q-R,337,67,71025,0.07903122683249461,0.08443473004498453,0.10495247490230532,0.9323784372194011,1086.0,14.087591628365299,0.6829544420771162,12.537445901147517,-0.46389157739348286,0.028,0.9999999999779509,-267.9975894477035,1.6739943950953289,337,2026-10-08 01:02:27.109244,25.0,0.5599986100334456,2.4431924310414552,3.778940126299408
