record_id,input,event,transition,event_index,k,peak,value_cos,value_sin,value_return,x_input,rr,knowledge,decision,decision_norm,entropy,delta_t,cosine_similarity,delta_h_over_delta_d,frobenius_norm,matrix_size,timestamp,scale,P,zdot,zdot_back
0229,cdot_cos,Q,P-Q,1,0,1023,-0.03693079245634303,-0.029533277217242675,-0.07697036633334908,0.1273873671755205,839.0,0.0006327510819091957,0.5001581877651994,0.5001581877651994,,,1.0,,0.004967141530112327,1,2026-10-08 00:31:17.107244,25.0,,,
0229,cdot_cos,R,Q-R,2,0,1073,0.01372755265542642,0.03324688838119146,0.05065834511176945,0.7801359207072742,839.0,0.006374987106222472,0.5011269472448784,0.7087005252643336,-7.256734821288908e-06,,1.0,,0.009934283060224654,2,2026-10-08 00:31:17.157243,25.0,,,
0229,cdot_cos,S,R-S,3,0,1090,-0.020142857684185007,-0.12004202553241293,-0.033870410339611426,0.30011290853560196,839.0,0.010389706603785354,0.5014996204795147,0.8686228226470288,-1.213756240241612e-05,0.017,0.9999999999999998,-0.013096802043995765,0.014901424592327463,3,2026-10-08 00:31:17.174243,25.0,0.6688965606908447,0.16910267567347842,0.23615997044487536
0229,cdot_cos,T,S-T,4,0,1333,-0.19385829279057104,0.02601583874631086,-0.17371543510638604,0.012832155922347266,839.0,0.012124478079120739,0.5015155551182965,1.0030311102368235,-7.043346570685942e-06,0.243,0.9999999999999999,0.31969446571631555,0.019868566165041762,4,2026-10-08 00:31:17.417243,25.0,0.48516492818748114,0.029314749737785178,0.007138977264754672
0229,cdot_cos,P,T-P,5,1,1753,0.048693489329291774,0.0020060431435154,0.2425517821198628,0.9976798360152785,859.0,0.02463667497634895,0.502754436132498,1.1241930951879968,-8.294573636350668e-05,0.42,1.0,-0.06126689239946021,0.024835707839834197,5,2026-10-08 00:31:17.837244,25.0,0.4004826288524566,0.01967722759466077,0.029790944993400504
0229,cdot_cos,Q,P-Q,6,1,1882,-0.02496975745481225,-0.024937432155150267,-0.07366324678410402,0.1368643977308916,859.0,0.028653349258635784,0.5029243868584293,1.231908127023987,-3.8599548847677594e-05,0.129,1.0,0.26093555807321556,0.029802849433559916,6,2026-10-08 00:31:17.966244,25.0,0.3169921117425657,0.06130097442952794,0.031137009940208016
0229,cdot_cos,R,Q-R,7,1,1929,0.013430765741389876,0.0413578880365399,0.03840052319620212,0.7231244239316509,859.0,0.04045232637916716,0.5038223110829129,1.33298854012035,-0.00014703382229334458,0.047,1.0,-0.12076105142172278,0.034769990977697056,7,2026-10-08 00:31:18.013243,25.0,0.47831850642228974,0.20727139034358014,0.25104206639428456
0229,cdot_cos,S,R-S,8,1,1947,-0.011653016691424581,-0.0997312825310319,-0.025083782432814457,0.3481696288659869,859.0,0.048136859950932316,0.5042546348063675,1.4262474868987314,-0.00012275843118516293,0.018,1.0,0.05615095769948345,0.03973713250309628,8,2026-10-08 00:31:18.031244,25.0,0.8205755638762822,0.29673227157270377,0.42691853176473094
0229,cdot_cos,T,S-T,9,1,2173,-0.22162681817720978,0.027130994497312322,-0.2099738014857852,0.00522352793685633,859.0,0.051134688155784494,0.5042611208366159,1.5127833625462024,-5.366418579568338e-05,0.226,0.9999999999999998,10.652778778833147,0.044704274411484515,9,2026-10-08 00:31:18.257244,25.0,0.27595156158864886,0.04746139821625401,0.01326472657014238
0229,cdot_cos,P,T-P,10,2,2612,0.04752551792691073,0.004572970365825655,0.2691523361041205,0.9988054713961921,899.0,0.06958941194467913,0.5055013040279481,1.5985354810216725,-0.00040172929305690023,0.439,1.0,-0.28065620441712097,0.049671416922631856,10,2026-10-08 00:31:18.696243,25.0,0.42045532587554524,0.027707584214867697,0.04203809519110396
0229,cdot_cos,Q,P-Q,11,2,2741,-0.02176654540446241,-0.02243202516907857,-0.06929206333137314,0.1502934187117922,899.0,0.07546194709643833,0.5056879128301456,1.6771770681332014,-0.00015359453865732738,0.129,0.9999999999999996,1.3297055201984507,0.05463855871979033,11,2026-10-08 00:31:18.825243,25.0,0.19878765557846642,0.08304348073320929,0.04552352830821085
0229,cdot_cos,R,Q-R,12,2,2796,0.01382836417297088,0.040841921743516946,0.03559490957743329,0.7088639097549337,899.0,0.09101462997384713,0.5065680372221625,1.7548031562386064,-0.0004668399992216612,0.055,1.0000000000000004,-0.3559104410758321,0.059605700306068904,12,2026-10-08 00:31:18.880243,25.0,0.5112017009740133,0.23097990222783596,0.2827760523165236
0229,cdot_cos,S,R-S,13,2,2813,-0.012211196770408021,-0.08980212162843017,-0.0260395609433789,0.34276669774430996,899.0,0.10086973634150029,0.5069936015879549,1.8279914272030109,-0.0003409576866597418,0.017,0.9999999999999999,0.29580087686034184,0.06457284176843274,13,2026-10-08 00:31:18.897243,25.0,0.6912856497101755,0.40298533775518275,0.5797121392737152
0229,cdot_cos,T,S-T,14,2,3052,-0.25914175617876856,0.005022776330579344,-0.24693055940836053,0.0020800855897826834,899.0,0.10471613145752334,0.5069961841023013,1.8970060176628425,-0.00014257607891475654,0.239,1.0,76.81723357071625,0.06953998439741954,14,2026-10-08 00:31:19.136243,25.0,0.2487246598527193,0.055970714611503714,0.016093703414322404
0229,cdot_cos,P,T-P,15,3,3511,0.06787814584776278,0.002420560316927889,0.3270199020265313,0.999718612821461,639.0,0.12762373792579906,0.5082373313366771,1.9683947207982357,-0.0009595555389981969,0.459,0.9999999999999998,-0.6582454018795637,0.07450712854225659,15,2026-10-08 00:31:19.595244,25.0,0.4268107984280303,0.0318485659115545,0.04990763936443512
0229,cdot_cos,Q,P-Q,16,3,3640,-0.016615431197472337,-0.02870962565224085,-0.08449357704523511,0.10790326659529524,639.0,0.13395311496433038,0.5083712870736823,2.0334851494315016,-0.0002984853866901166,0.129,1.0,4.934989475536252,0.07947427067344351,16,2026-10-08 00:31:19.724244,25.0,0.10918093693886192,0.08560244448737625,0.04906493828318848
0229,cdot_cos,R,Q-R,17,3,3685,-0.0056613124448103595,0.06530697369067877,0.010954118752661977,0.5680385575651126,639.0,0.14970916860354214,0.5090764541991427,2.0989759934834904,-0.0008057317205385387,0.045,1.0,-0.7193278239073109,0.08444141220666739,17,2026-10-08 00:31:19.769243,25.0,0.5328328906860627,0.40249185037138896,0.3501345253158169
0229,cdot_cos,S,R-S,18,3,3702,0.04161857255620666,-0.1118663333343131,0.047279885001017014,0.7653067021336671,639.0,0.17017738149775538,0.5100264537871416,2.163858985690766,-0.0011802820013655808,0.017,1.0000000000000002,-0.39426362448851204,0.08940855355968716,18,2026-10-08 00:31:19.786243,25.0,0.728083417362475,0.7439527399941642,1.2040125231890142
0229,cdot_cos,T,S-T,19,3,3931,-0.15366096596527118,-0.2962106527474351,-0.19527953852147784,0.007524869675413085,639.0,0.17500356176334372,0.5100357942992978,2.2231944862918196,-0.00030030316107676095,0.229,0.9999999999999999,94.21098389203988,0.09437569726896382,19,2026-10-08 00:31:20.015244,25.0,0.053380934800197816,0.06809934553114119,0.021075022993835554
0229,cdot_cos,P,T-P,20,4,4150,0.006627748983753769,-0.0002331409041087603,0.16028871494902494,0.9821408346666166,1199.0,0.20136688175101805,0.5112548489881342,2.2864011942976536,-0.0017884633994194568,0.219,0.9999999999999996,-1.2207493658575104,0.09934284108075454,20,2026-10-08 00:31:20.234244,25.0,0.43513944771089785,0.07349500455629925,0.12038045656472296
0229,cdot_cos,Q,P-Q,21,4,4286,-0.1231248533697044,-0.06274805636484722,-0.12975260235345817,0.03754977158554904,1199.0,0.2071943737590028,0.5113014540214761,2.343077618561829,-0.00042914245757112826,0.136,0.9999999999999999,29.166826936423238,0.10430998399883049,21,2026-10-08 00:31:20.370244,25.0,0.042107540450423114,0.1223610246468915,0.04284920594106427
0229,cdot_cos,R,Q-R,22,4,4346,0.01474690838125755,0.3611638290218768,0.13787176175096194,0.9691353882165196,1199.0,0.23464908045497254,0.5125042295861407,2.40385791840566,-0.0021862412435938935,0.06,1.0000000000000002,-1.4608700389691456,0.10927712591784369,22,2026-10-08 00:31:20.430244,25.0,0.4476660995228999,0.3700688386375203,0.4575784449328292
0229,cdot_cos,S,R-S,23,4,4360,0.013195818182123262,0.36266419944891504,-0.001551090199134287,0.4903069008312868,1199.0,0.25160263439550523,0.5131126859058932,2.4608019972100905,-0.0014856197103792215,0.014,0.9999999999999998,1.1514738371025268,0.11424426716708339,23,2026-10-08 00:31:20.444243,25.0,0.6240016874610433,1.1252077918483567,1.2109681386094777
0229,cdot_cos,T,S-T,24,4,4470,-0.007127732260956998,0.356837113969273,-0.02032355044308026,0.3756416713129829,1199.0,0.26615489862672653,0.5135788198808816,2.5160121059538474,-0.0013577541016508404,0.11,0.9999999999999999,0.27431085393756643,0.11921141035307742,24,2026-10-08 00:31:20.554244,25.0,0.9101240691165767,0.18154804381511802,0.13229331119292093
0229,cdot_cos,P,T-P,25,5,5349,0.04864117488345162,-0.0035794178916050733,0.055768907144408617,0.8012655141500709,899.0,0.2915432040348312,0.5145730307910925,2.5728651576722528,-0.002551222556577442,0.879,0.9999999999999992,-1.200417781246668,0.12417857052337522,25,2026-10-08 00:31:21.433243,25.0,0.626377180456062,0.019884306033633118,0.0288831688374342
0229,cdot_cos,Q,P-Q,26,5,5443,-0.020799193878041307,-0.014057675894009938,-0.06944036876149293,0.14982054760879518,899.0,0.30111150863385355,0.5147589156887445,2.6247657656027816,-0.0010217454669438112,0.094,0.9999999999999991,8.228086891150946,0.12914571304603095,26,2026-10-08 00:31:21.527244,25.0,0.22381717567004455,0.18596679249612447,0.10179047445768467
0229,cdot_cos,R,Q-R,27,5,5501,0.02566447827063566,0.04264692033976762,0.04646367214867697,0.7616218335433513,899.0,0.3265049610241026,0.5157038086119924,2.679675604785582,-0.002871256670253445,0.058,0.9999999999999989,-1.957376500347134,0.13411285483257823,27,2026-10-08 00:31:21.585243,25.0,0.5251103007374369,0.31579469928069126,0.43781814465946617
0229,cdot_cos,S,R-S,28,5,5518,-0.02987688622702129,-0.08399098169403996,-0.05554136449765695,0.19964188056780455,899.0,0.33774369375041374,0.5159514725536513,2.730158580480542,-0.001344901040328468,0.017,0.9999999999999992,6.163011133963775,0.13907999563776133,28,2026-10-08 00:31:21.602243,25.0,0.3214477067708084,0.5277068207684551,0.6611019250771265
0229,cdot_cos,T,S-T,29,5,5769,-0.17309675840774089,0.056869743107959926,-0.1432198721807196,0.027106612472002425,899.0,0.34444699293023007,0.5159850988168342,2.7786648057048895,-0.0008238247298106274,0.251,0.9999999999999983,15.496111110626737,0.14404714314283357,29,2026-10-08 00:31:21.853244,25.0,0.5312573614525575,0.07904423058643861,0.026706371234327987
0229,cdot_cos,P,T-P,30,6,6248,0.044463139310563955,-0.004972105202392999,0.21755989771830483,0.9956749512706765,859.0,0.3774238975048059,0.5172201495290991,2.832931443801737,-0.004287839604067214,0.479,0.9999999999999981,-2.804755173092459,0.14901429804832608,30,2026-10-08 00:31:22.332243,25.0,0.44580684279081434,0.04495078990214311,0.06884531226425024
0229,cdot_cos,Q,P-Q,31,6,6343,-0.028446241858387136,-0.020400244995861183,-0.0729093811689511,0.1391060745514783,859.0,0.38750984965648316,0.517392682466672,2.8807205565908562,-0.0013896308691855037,0.095,0.9999999999999977,16.798002605484808,0.15398144106503564,31,2026-10-08 00:31:22.427244,25.0,0.12423304155041688,0.1995438345283908,0.10616791738607616
0229,cdot_cos,R,Q-R,32,6,6403,0.019814365244155627,0.039459173345296014,0.04826060710254276,0.7696817691438731,859.0,0.4153372260652002,0.518347240887508,2.932214810721984,-0.0040235043867416324,0.06,0.9999999999999972,-2.7592585849793396,0.15894858305473325,32,2026-10-08 00:31:22.487243,25.0,0.5196385742198195,0.3441412896834607,0.46378960681195036
0229,cdot_cos,S,R-S,33,6,6420,-0.02490890997929956,-0.09001023379842728,-0.04472327522345519,0.2463672483168896,859.0,0.42880680441849844,0.5186527573003177,2.9794332749666284,-0.0020476243110436913,0.017,0.999999999999997,6.467345101126068,0.16391572359531367,33,2026-10-08 00:31:22.504243,25.0,0.3809975982478097,0.5966481755744245,0.7923281384293095
0229,cdot_cos,T,S-T,34,6,6648,-0.199038912144774,0.05612818565706715,-0.17413000216547445,0.01270152852212641,859.0,0.4356232640347306,0.5186685079035201,3.0243311377697144,-0.0010611271615764144,0.228,0.9999999999999968,62.632340919656755,0.16888287243630729,34,2026-10-08 00:31:22.732243,25.0,0.394684283779797,0.09318643874022821,0.02989675270277269
0229,cdot_cos,P,T-P,35,7,7107,0.04288280860897817,0.0028650349772139346,0.24192172075375218,0.9976430873449391,859.0,0.4712998204840425,0.5199055225038253,3.0758025726351996,-0.005825712783567617,0.459,0.9999999999999964,-3.8516809913286227,0.17385003132997265,35,2026-10-08 00:31:23.191243,25.0,0.44137759941130633,0.05120451094518399,0.07772670250394748
0229,cdot_cos,Q,P-Q,36,7,7237,-0.024705370577455834,-0.025195780416255125,-0.067588179186434,0.15581470787664445,859.0,0.4826290050824095,0.5200987012811608,3.1205922359648515,-0.0019457940155687783,0.13,0.9999999999999957,20.08460153601997,0.17881717652501278,36,2026-10-08 00:31:23.321243,25.0,0.13614935094211322,0.1528390645542661,0.08714757383359242
0229,cdot_cos,R,Q-R,37,7,7284,0.013057740728233683,0.04281554003035554,0.03776311130568952,0.719922614104708,859.0,0.5110379772681517,0.5209911810285592,3.1690656646195485,-0.0050817676593567195,0.047,0.9999999999999953,-3.513775693990935,0.18378431807751083,37,2026-10-08 00:31:23.368243,25.0,0.5395051672154539,0.49326103289834083,0.6044462167179186
0229,cdot_cos,S,R-S,38,7,7302,-0.009534119520634314,-0.09524909077568487,-0.022591860248867997,0.3624383687522692,859.0,0.5289955421748536,0.5214404413400507,3.2143747887742444,-0.0033618631457326504,0.018,0.9999999999999951,3.8283028116018794,0.18875145837299198,38,2026-10-08 00:31:23.386244,25.0,0.5995399539433859,0.6947979030794632,0.9976424948167701
0229,cdot_cos,T,S-T,39,7,7547,-0.2254133032546581,0.012699626281866154,-0.2158791837340238,0.004509812925953477,859.0,0.5360507017790124,0.5214460312596185,3.256429451913142,-0.0013525712128976256,0.245,0.9999999999999946,359.4491671070339,0.1937186104966516,39,2026-10-08 00:31:23.631244,25.0,0.22638118494705045,0.09238525805045407,0.028796569812893108
0229,cdot_cos,P,T-P,40,8,7966,0.05229303295911074,0.0019489109673845027,0.27770633621376883,0.9990352327122708,879.0,0.574264318619576,0.5226842019533874,3.3057451853442146,-0.00763579192221454,0.419,0.9999999999999939,-5.0745997631323885,0.19868577267255177,40,2026-10-08 00:31:24.050244,25.0,0.439171923367989,0.05954579001682445,0.09120194950015198
0229,cdot_cos,Q,P-Q,41,8,8076,-0.01929391936445267,-0.017257778080418305,-0.07158695232356341,0.14311272021694027,879.0,0.5859500738131113,0.5228615485802074,3.3479474977891295,-0.0024398925288084813,0.11,0.9999999999999932,29.29798827625562,0.20365291790074258,41,2026-10-08 00:31:24.160243,25.0,0.11888950314578892,0.19097309812498778,0.10623413812304734
0229,cdot_cos,R,Q-R,42,8,8135,0.01878268663696286,0.04514349435593187,0.03807660600141553,0.7215001670171768,879.0,0.6162784002070734,0.5237555496667006,3.3943239519857205,-0.006560524528185181,0.059,0.9999999999999928,-4.609202451353104,0.20862006029631344,42,2026-10-08 00:31:24.219244,25.0,0.5336074086025554,0.3980404471362948,0.5140394304061373
0229,cdot_cos,S,R-S,43,8,8153,-0.01762406046966057,-0.08862976658567118,-0.036406747106623435,0.2869653218201916,879.0,0.632918846575194,0.5241110825207057,3.4368262496549886,-0.0037399816145706473,0.018,0.9999999999999925,7.933283469700911,0.2135872002894387,43,2026-10-08 00:31:24.237243,25.0,0.470405793377116,0.6691275964289873,0.9244692426733709
0229,cdot_cos,T,S-T,44,8,8385,-0.23858744797253822,0.05641327436208109,-0.22096338750287764,0.00397366566407762,879.0,0.6403669936785169,0.5241160054838653,3.4765923196849,-0.001706267894325567,0.232,0.9999999999999918,413.1076456039425,0.21855435442152146,44,2026-10-08 00:31:24.469243,25.0,0.30364147596832763,0.10340188719194858,0.0321040823419089
0229,cdot_cos,P,T-P,45,9,8845,0.047146866407808775,-0.006753165566299758,0.285734314380347,0.9992105291461362,839.0,0.6808973222322582,0.5253537733018512,3.5241802998106824,-0.00963243887004313,0.46,0.9999999999999909,-6.403600788890312,0.22352152485629306,45,2026-10-08 00:31:24.929244,25.0,0.4391728015718641,0.05708637275157843,0.08810940989943757
0229,cdot_cos,Q,P-Q,46,9,8954,-0.028000321368470034,-0.019685836192545512,-0.07514718777627881,0.13254060018177316,839.0,0.6928864566099691,0.5255179343405666,3.5642361065373604,-0.0029624982227865367,0.109,0.9999999999999893,40.63047297610845,0.22848867095357983,46,2026-10-08 00:31:25.038244,25.0,0.10524565296953806,0.21128223017496084,0.10999205851110895
0229,cdot_cos,R,Q-R,47,9,8995,0.022750730162202356,0.042926791005925044,0.050751051530672386,0.7805331966782325,839.0,0.7269568484103996,0.5264845676326626,3.6093964144770476,-0.00869925119992216,0.041,0.9999999999999891,-5.934776945967048,0.2334558121967576,47,2026-10-08 00:31:25.079243,25.0,0.5171337921188557,0.6012668104413373,0.8309851658641606
0229,cdot_cos,S,R-S,48,9,9012,-0.02808168051713063,-0.09799454016521228,-0.05083241067933299,0.2191185792944381,839.0,0.7421903350661587,0.5267558945994922,3.6494719574492773,-0.00402442449424072,0.017,0.9999999999999883,17.229495321844606,0.2384229517487274,48,2026-10-08 00:31:25.096244,25.0,0.3129807100670881,0.6781465068512443,0.8960874503387691
0229,cdot_cos,T,S-T,49,9,9245,-0.25081681157757896,0.05600103704171969,-0.22273513106044832,0.003802153445730768,839.0,0.750013829643342,0.5267606025357328,3.687324284553686,-0.0020992673702285958,0.233,0.9999999999999871,408.91741639189496,0.24339010890449786,49,2026-10-08 00:31:25.329243,25.0,0.39969184189080076,0.10845903136588385,0.03357722994499241
0229,cdot_cos,P,T-P,50,10,9684,0.04972105738496582,0.0036457589087019178,0.30053786896254475,0.9994546006461072,899.0,0.7927322436826606,0.5279979885414947,3.733509655619772,-0.011847595833633089,0.439,0.9999999999999872,-7.878162851374499,0.24835728416156125,50,2026-10-08 00:31:25.768243,25.0,0.43919547718764707,0.06345537375071872,0.09730846022623836
0229,cdot_cos,Q,P-Q,51,10,9813,-0.021584237566622463,-0.021671169150901483,-0.07130529495158829,0.1439783935114109,899.0,0.805727647796473,0.528176214624012,3.771932723025869,-0.0037341756760936777,0.129,0.9999999999999852,45.52319190853016,0.2533244331342492,51,2026-10-08 00:31:25.897243,25.0,0.11386436602940796,0.18014469055743432,0.10073956677373948
0229,cdot_cos,R,Q-R,52,10,9865,0.015266123273971997,0.04310229730348406,0.03685036084059446,0.715298570441127,899.0,0.8392095738464787,0.5290615516558206,3.815117197363708,-0.009898620013332325,0.052,0.9999999999999845,-6.962822197379122,0.25829157534845515,52,2026-10-08 00:31:25.949243,25.0,0.5364628561128867,0.5118647893529759,0.6438831932693396
0229,cdot_cos,S,R-S,53,10,9882,-0.014127410661666902,-0.09303144847016524,-0.0293935339356389,0.3241338844645746,899.0,0.8589615858891825,0.5294626777405965,3.854546569989772,-0.006027910195937854,0.017,0.9999999999999839,9.649608849438408,0.26325871445568216,53,2026-10-08 00:31:25.966244,25.0,0.5261698018358759,0.8250692162722829,1.161883061335519
0229,cdot_cos,T,S-T,54,10,10124,-0.21572332349237647,0.043540237619113506,-0.20159591283070957,0.006432761500395902,899.0,0.8672619271997363,0.5294706381060095,3.8907987850506327,-0.0025749341832553407,0.242,0.9999999999999823,433.771043608709,0.26822587583866736,54,2026-10-08 00:31:26.208243,25.0,0.26158504354050116,0.10966326036399755,0.03429893103534626
0229,cdot_cos,P,T-P,55,11,10583,0.04520515114710382,-0.004803381747146587,0.26092847463948027,0.998533211162079,859.0,0.9120386039053573,0.5307061112030628,3.935821962235827,-0.014313462196328447,0.459,0.999999999999982,-9.501241298633248,0.27319306021386536,55,2026-10-08 00:31:26.667244,25.0,0.4403858393191235,0.06342810638630665,0.09755267256126583
0229,cdot_cos,Q,P-Q,56,11,10692,-0.027474018060495577,-0.01940124075362121,-0.0726791692075994,0.13979673632843553,859.0,0.9254889288623658,0.5308790503360233,3.972735162806685,-0.004440088124833713,0.109,0.9999999999999793,57.09161311538351,0.2781602085322772,56,2026-10-08 00:31:26.776243,25.0,0.10820921353739037,0.23185265110293687,0.12339747666980262
0229,cdot_cos,R,Q-R,57,11,10739,0.020804045680760882,0.04146959983823552,0.048278063741256455,0.7697591242579198,859.0,0.9625824818457975,0.5318311666221173,4.01523738201915,-0.012578755488656104,0.047,0.9999999999999789,-8.54797621119516,0.2831273503407304,57,2026-10-08 00:31:26.823244,25.0,0.5236054174039515,0.5802609769989926,0.7892245315623777
0229,cdot_cos,S,R-S,58,11,10756,-0.02550563231562246,-0.0946086232677866,-0.046309677996383344,0.23907782671492397,859.0,0.9800334607002711,0.5321268355250611,4.052557370597082,-0.006088279485600392,0.017,0.9999999999999776,21.951838487012424,0.2880944889619383,58,2026-10-08 00:31:26.840243,25.0,0.3443623667800379,0.7704197011513715,1.026528167910209
0229,cdot_cos,T,S-T,59,11,11002,-0.2150669184945406,0.05138755478664149,-0.18956128617891815,0.008671259496485907,859.0,0.9887767516849442,0.5321375588981022,4.087426275311473,-0.003091472762307418,0.246,0.9999999999999758,279.4649325179904,0.29306165456845884,59,2026-10-08 00:31:27.086244,25.0,0.3793187735032079,0.11281834302033286,0.03554183327102878
0229,cdot_cos,P,T-P,60,12,11442,0.045972749995079186,-0.0005593269891363827,0.2610396684896198,0.9985372769915499,879.0,1.0355400854662749,0.5333722058884179,4.131483480985242,-0.01699532514998745,0.44,0.9999999999999755,-11.261399004523987,0.2980288446149477,60,2026-10-08 00:31:27.526243,25.0,0.44126987035984444,0.06920779843626955,0.10628030404847882
0229,cdot_cos,Q,P-Q,61,12,11571,-0.025668048376688266,-0.02293021607913252,-0.07164079837176746,0.14294771901194608,879.0,1.0496796143088614,0.5335489213053355,4.167150451781808,-0.00529311887465025,0.129,0.9999999999999726,66.22063020566617,0.3029959967639693,61,2026-10-08 00:31:27.655244,25.0,0.10960921492736221,0.199909213731914,0.1096087507177249
0229,cdot_cos,R,Q-R,62,12,11613,0.015776691304214014,0.03910394905254371,0.04144473968090228,0.7381003724587445,879.0,1.0871166626091087,0.5344612438486059,4.208352210589894,-0.014357582462431543,0.042,0.9999999999999709,-9.935590931785423,0.307963137949489,62,2026-10-08 00:31:27.697243,25.0,0.5318805517051435,0.6912541044801503,0.8913582928630309
0229,cdot_cos,S,R-S,63,12,11630,-0.01778406733118192,-0.09473489746251111,-0.03356075863539593,0.3017414413407778,879.0,1.107744959085194,0.5348341426977143,4.24511457204736,-0.00812534865571636,0.017,0.9999999999999696,16.712933873666678,0.31293027603547763,63,2026-10-08 00:31:27.714243,25.0,0.4643989699220861,0.8792781298388745,1.2134292044756074
0229,cdot_cos,T,S-T,64,12,11881,-0.19148045101166167,0.03984248305101925,-0.17369638368047974,0.012838190666968301,879.0,1.1170121190236304,0.5348500075614221,4.278800229560084,-0.003699975286252087,0.251,0.9999999999999677,278.94178298568573,0.3178974465795719,64,2026-10-08 00:31:27.965244,25.0,0.302384816619069,0.11532087665829376,0.036920955930025534
0229,cdot_cos,P,T-P,65,13,12321,0.04239963264236446,0.0015106571269654322,0.23388008365402613,0.9971197738779214,879.0,1.1656360391676575,0.5360819858233652,4.322031327943891,-0.019911589782934034,0.44,0.999999999999967,-13.159010185060136,0.32286464504941853,65,2026-10-08 00:31:28.405244,25.0,0.443002522179725,0.07269239289806279,0.1105089094182433
0229,cdot_cos,Q,P-Q,66,13,12450,-0.024250800921081523,-0.022645119360709672,-0.06665043356344598,0.15892334301178182,879.0,1.1809814247739256,0.5362783011851624,4.35674572590195,-0.006459699115430427,0.129,0.9999999999999634,68.52184436488186,0.32783179903174225,66,2026-10-08 00:31:28.534244,25.0,0.12462662530694968,0.20849720058505028,0.11895647756797047
0229,cdot_cos,R,Q-R,67,13,12497,0.01480577592394389,0.04135569116945107,0.03905657684502541,0.7263961800600575,879.0,1.2194283169186004,0.5371754622435568,4.396970877764034,-0.01655097957972419,0.047,0.9999999999999623,-11.248014355809396,0.3327989409368583,67,2026-10-08 00:31:28.581243,25.0,0.5435090316264135,0.6481815783804813,0.8180189818015912
0229,cdot_cos,S,R-S,68,13,12515,-0.013969301521098453,-0.0956779363911436,-0.028775077445042343,0.3275302005977802,879.0,1.2419104931416909,0.5375799115237577,4.432997735505867,-0.009922794846446665,0.018,0.9999999999999601,16.38817290016014,0.33776607858683116,68,2026-10-08 00:31:28.599244,25.0,0.5127455354585784,0.8866085301335962,1.2490097901716921
0229,cdot_cos,T,S-T,69,13,12740,-0.20589965652697223,0.031266665230116265,-0.19193035500587377,0.008176679279681355,879.0,1.25134622400341,0.5375900078310207,4.465558207959177,-0.004218572175419258,0.225,0.9999999999999579,564.9810888707096,0.3427332496996333,69,2026-10-08 00:31:28.824243,25.0,0.25867856861655253,0.13322880538175713,0.04193658160764002
0229,cdot_cos,P,T-P,70,14,13200,0.046179780502763855,0.002213660821857597,0.25207943702973606,0.9981706908738407,859.0,1.3018634555634816,0.5388222836415967,4.508110897747262,-0.023119818873376097,0.46,0.9999999999999571,-15.338487159885675,0.3477004607421948,70,2026-10-08 00:31:29.284243,25.0,0.4415189331834452,0.07154421790382126,0.10982006860885153
0229,cdot_cos,Q,P-Q,71,14,13330,-0.025038636906161548,-0.024709041927901722,-0.0712184174089254,0.1442462889799046,859.0,1.3171669044749255,0.5390003217402044,4.541697710014861,-0.00718396221005011,0.13,0.999999999999953,89.50812656361731,0.35266761688412296,71,2026-10-08 00:31:29.414243,25.0,0.10879884910484396,0.21195097614743902,0.1177188377803374
0229,cdot_cos,R,Q-R,72,14,13377,0.013753480429433794,0.043194053455343405,0.038792117335595344,0.7250802164917759,859.0,1.3569707093618157,0.5398951110149696,4.581162209743345,-0.019073005059269954,0.047,0.9999999999999513,-13.286975139861987,0.3576347588506088,72,2026-10-08 00:31:29.461244,25.0,0.536148567489688,0.6823923364306372,0.8468894656785166
0229,cdot_cos,S,R-S,73,14,13394,-0.010609240230554793,-0.09630003445951629,-0.02436272065998859,0.35227182525664774,859.0,1.3813117840994054,0.5403297415757146,4.6165796180251775,-0.011941745691062801,0.017,0.9999999999999486,16.40763446542624,0.3626018957060373,73,2026-10-08 00:31:29.478244,25.0,0.5503666458476236,0.9970443227508938,1.4318279257405657
0229,cdot_cos,T,S-T,74,14,13639,-0.2424203121242346,0.02078067946915518,-0.2318110718936798,0.0030326633004638757,859.0,1.3908702163353461,0.5403334829895224,4.648124655294174,-0.004747420476476846,0.245,0.9999999999999456,1922.889470134701,0.3675690750116019,74,2026-10-08 00:31:29.723244,25.0,0.21971638110795602,0.1263553243935526,0.03901400912628887
0229,cdot_cos,P,T-P,75,15,14059,0.05198946176153964,0.0018402223138735204,0.2944097738857742,0.9993643612683295,859.0,1.4432258930522461,0.5415661543557965,4.69010077788386,-0.026573641938528743,0.42,0.999999999999945,-17.706439898920966,0.3725362887623952,75,2026-10-08 00:31:30.143244,25.0,0.43983812414622536,0.08104646681694247,0.1246563731354762
0229,cdot_cos,Q,P-Q,76,15,14188,-0.02007845814746752,-0.01895301712474656,-0.07206791990900716,0.1416444944301802,859.0,1.4589492484615778,0.5417408257164318,4.722787366207021,-0.008171769796200067,0.129,0.9999999999999403,105.35139862309083,0.37750344692906895,76,2026-10-08 00:31:30.272243,25.0,0.10520091033838702,0.21813756625938974,0.12188647604133081
0229,cdot_cos,R,Q-R,77,15,14231,0.015927466493137137,0.04391262324301407,0.03600592464060466,0.710979939560575,859.0,1.4995053851471687,0.5426174270959977,4.76144894969764,-0.021480252477776372,0.043,0.9999999999999383,-15.181909351051448,0.38247058820925145,77,2026-10-08 00:31:30.315244,25.0,0.5381767391290418,0.7495980055553404,0.9431659694323462
0229,cdot_cos,S,R-S,78,15,14249,-0.013531212369779524,-0.08979874324916146,-0.02945867886291666,0.3237772024168811,859.0,1.523414676939337,0.5430165404810923,4.795792585018493,-0.012937532520594396,0.018,0.999999999999935,21.404243195596397,0.38743772464994747,78,2026-10-08 00:31:30.333244,25.0,0.5166936171843934,0.9362301160210209,1.3282939884537992
0229,cdot_cos,T,S-T,79,15,14499,-0.27710119329797456,-0.028282121571669767,-0.26356998092819506,0.0013731833104829092,859.0,1.5332096693239254,0.5430182330582022,4.826451980295185,-0.005359249778966721,0.25,0.9999999999999314,4477.363363384504,0.3924049102468303,79,2026-10-08 00:31:30.583244,25.0,0.24315488759852766,0.1277649887478125,0.039179969538353454
0229,cdot_cos,P,T-P,80,16,14918,0.04714713253197838,0.004604212447705998,0.32424832582995294,0.9996984304115054,919.0,1.5872971713132433,0.5442501889995388,4.867922055201368,-0.03019893913447384,0.419,0.9999999999999305,-20.162806576148313,0.3973721336265953,80,2026-10-08 00:31:31.002244,25.0,0.43931650214758206,0.08469619930314955,0.1290871169196131
0229,cdot_cos,Q,P-Q,81,16,15047,-0.020221302783418233,-0.020169946714646697,-0.06736843531539662,0.15653868336793078,919.0,1.6041850843399648,0.5444430472989046,4.899987847204599,-0.009642909556142994,0.129,0.9999999999999247,106.58618086922236,0.40233929407304553,81,2026-10-08 00:31:31.131244,25.0,0.11863249831253174,0.22750848224358772,0.1309140544707088
0229,cdot_cos,R,Q-R,82,16,15101,0.015602157324455407,0.042315711979085326,0.03582346010787364,0.7100416838443281,919.0,1.645994359732089,0.5453176624508952,4.9380618899098,-0.024304246760961098,0.054,0.9999999999999226,-16.763186838747465,0.40730643788603343,82,2026-10-08 00:31:31.185244,25.0,0.5470353873007348,0.613876553973072,0.7742458405948927
0229,cdot_cos,S,R-S,83,16,15119,-0.014539166399737501,-0.08607757828388742,-0.030141323724192908,0.3200519453692156,919.0,1.6704837521690565,0.5457118049591287,4.971671589962965,-0.014524275731700823,0.018,0.999999999999919,24.813286628462485,0.4122735736406551,83,2026-10-08 00:31:31.203244,25.0,0.5099954677210682,0.9640148836189072,1.3605218020537542
0229,cdot_cos,T,S-T,84,16,15357,-0.235230371269263,0.056251165154815506,-0.22069120486952548,0.004000688393501695,919.0,1.6806988955423696,0.5457167314271336,5.0015768967079035,-0.006121827943176574,0.238,0.9999999999999142,1705.572385776688,0.4172407620700519,84,2026-10-08 00:31:31.441243,25.0,0.2534625926737976,0.13854546339916005,0.0429207704761054
0229,cdot_cos,P,T-P,85,17,15837,0.049633987198845986,-0.006700032579000134,0.284864358468109,0.9991931849534555,839.0,1.7364313927470567,0.5469468602323969,5.0426013583376745,-0.03404151307807007,0.48,0.9999999999999134,-22.69655422703279,0.4222080108943842,85,2026-10-08 00:31:31.921243,25.0,0.4403586327479168,0.0749426253263579,0.11610936917643144
0229,cdot_cos,Q,P-Q,86,17,15926,-0.026101760966755115,-0.01816259247675323,-0.07573574816560111,0.1308580054790713,839.0,1.7526438158556732,0.547107920286899,5.073670651943988,-0.010110450977881276,0.089,0.9999999999999065,148.58471378372985,0.4271751634794327,86,2026-10-08 00:31:32.010243,25.0,0.09376507063426634,0.348458291221468,0.18216205740018518
0229,cdot_cos,R,Q-R,87,17,15986,0.022125328947968786,0.041751397686187915,0.0482270899147239,0.7695331943205095,839.0,1.798456968584478,0.5480548612369499,5.111915964714945,-0.02906748569521918,0.06,0.9999999999999047,-20.019236380388193,0.4321423091118226,87,2026-10-08 00:31:32.070244,25.0,0.5209125067100817,0.5565573317526126,0.7635525454800803
0229,cdot_cos,S,R-S,88,17,16004,-0.026448763380878784,-0.09038967544721146,-0.04857409232884757,0.22893186626211257,839.0,1.8194306956659867,0.5483365041053962,5.14385289827952,-0.013556181636854944,0.018,0.9999999999998994,55.07437182390244,0.4371094440958914,88,2026-10-08 00:31:32.088243,25.0,0.318471056850977,0.8743374314791516,1.165207060083816
0229,cdot_cos,T,S-T,89,17,16256,-0.24577290596780577,0.05175887381407057,-0.21932414258692698,0.004139205736513351,839.0,1.8299331161177275,0.5483415960687198,5.173044807979287,-0.0068471902082981725,0.252,0.999999999999894,1317.5647588691668,0.4420766417194419,89,2026-10-08 00:31:32.340243,25.0,0.37537989341009387,0.13461744338072854,0.04167627163389194
0229,cdot_cos,P,T-P,90,18,16676,0.049110270929614286,0.0003976351887263311,0.29488317689742005,0.9993718350613089,879.0,1.8872778871298739,0.5495707034632876,5.213686044731062,-0.03806324187586225,0.42,0.9999999999998925,-25.397334525466785,0.447043886552993,90,2026-10-08 00:31:32.760243,25.0,0.44038313595722106,0.08806415696730623,0.1365351690765391
0229,cdot_cos,Q,P-Q,91,18,16785,-0.026830170283674185,-0.02388738234484142,-0.07594044121328847,0.1302770891707091,879.0,1.9039070079702647,0.5497308844033882,5.244099036656033,-0.01125669994070505,0.109,0.9999999999998854,167.35163321128326,0.45201104613504806,91,2026-10-08 00:31:32.869244,25.0,0.09242243814376828,0.28713880423643967,0.15256074165496156
0229,cdot_cos,R,Q-R,92,18,16845,0.01623387742580065,0.039180597627743424,0.043064047709474834,0.7458502519278609,879.0,1.9498741464534177,0.5506477379465806,5.281628200758457,-0.031618396673207774,0.06,0.9999999999998823,-22.20823258380582,0.4569781922391034,92,2026-10-08 00:31:32.929244,25.0,0.5251966147928047,0.5871381442634512,0.7661189747192173
0229,cdot_cos,S,R-S,93,18,16862,-0.01946180357818083,-0.09906703505874587,-0.035695681003981475,0.2906164441877741,879.0,1.9743635852818788,0.5510048920834473,5.313699393608936,-0.017150458816864667,0.017,0.9999999999998771,40.508946594519664,0.461945326187415,93,2026-10-08 00:31:32.946244,25.0,0.43016390515935937,1.040739764650075,1.4405552252035945
0229,cdot_cos,T,S-T,94,18,17115,-0.22112746225226407,0.0459177834036913,-0.20166565867408323,0.006421626779237843,879.0,1.9852592984515203,0.5510127833725248,5.342267788339846,-0.007699272324529333,0.253,0.9999999999998707,1197.6733331512191,0.466912530504265,94,2026-10-08 00:31:33.199244,25.0,0.2930116750875205,0.13791294672429869,0.04306605995905708
0229,cdot_cos,P,T-P,95,19,17555,0.04821096882789741,0.004033199963799878,0.2693384310801615,0.9988110092906316,899.0,2.044147536324374,0.552239868564509,5.3825691119030115,-0.04232406657576979,0.44,0.99999999999987,-28.217107074082957,0.4718797930626783,95,2026-10-08 00:31:33.639244,25.0,0.4412747397780747,0.08703733894258527,0.13383690425648564
0229,cdot_cos,Q,P-Q,96,19,17684,-0.023316638831250833,-0.02367497696808011,-0.07152760765914824,0.1432947546530013,899.0,2.0618521567209953,0.5524158609346291,5.4125486937337675,-0.012965548600906802,0.129,0.999999999999861,166.81699300274084,0.4768469608953955,96,2026-10-08 00:31:33.768243,25.0,0.10389772229285715,0.24747845492634288,0.13724511935365388
0229,cdot_cos,R,Q-R,97,19,17737,0.015321217813376604,0.043581745678832114,0.03863785664462743,0.7243107956719134,899.0,2.1079969776953704,0.5533052462631742,5.4494254628727745,-0.034305478378675126,0.053,0.9999999999998576,-23.994020468807616,0.48181410517682377,97,2026-10-08 00:31:33.821243,25.0,0.5368395425163756,0.6890894670693236,0.8706569995165115
0229,cdot_cos,S,R-S,98,19,17754,-0.013619525424991471,-0.09608556494405765,-0.028940743238368073,0.3266186384994001,899.0,2.1348956402303436,0.5537061918957569,5.481412419751162,-0.020344054137023445,0.017,0.9999999999998521,34.82124035550903,0.48678123821761715,98,2026-10-08 00:31:33.838243,25.0,0.5034526633796008,1.1191014506641315,1.5822742667631289
0229,cdot_cos,T,S-T,99,19,17995,-0.2194562383330767,0.03893423523799908,-0.20583671290808522,0.005789414812599235,899.0,2.146046427017951,0.5537132981505245,5.509378530098801,-0.008509191653509053,0.241,0.9999999999998443,1665.4148873782622,0.4917484453387987,99,2026-10-08 00:31:34.079243,25.0,0.24886797187960275,0.14848012524825707,0.046268824844843494
0229,cdot_cos,P,T-P,100,20,18454,0.04523926881272902,0.0018678317377823202,0.2646955071458057,0.9986648661161288,879.0,2.2064630606000035,0.5549387848872676,5.549388665526877,-0.04684956983998412,0.459,0.9999999999998433,-31.28583691437687,0.4967157273001042,100,2026-10-08 00:31:34.538244,25.0,0.4411492422165885,0.08568910886054563,0.1316266526842105
0229,cdot_cos,Q,P-Q,101,20,18584,-0.025719265714800897,-0.024446252049041255,-0.07095853452752993,0.14505013814017687,879.0,2.224709028951932,0.5551167243605393,5.578854933858879,-0.01440324877187213,0.13,0.9999999999998331,182.34470672263998,0.5016828982130646,101,2026-10-08 00:31:34.668243,25.0,0.10511413605216344,0.2540057659424606,0.1403536027071405
0229,cdot_cos,R,Q-R,102,20,18631,0.014830524395253663,0.041570996325628176,0.04054979011005456,0.7337523635935409,879.0,2.2725045597450433,0.5560166336313376,5.615493656692918,-0.038276288249889504,0.047,0.9999999999998292,-26.5282737412403,0.5066500406020009,102,2026-10-08 00:31:34.715244,25.0,0.535956061641091,0.8002972515653921,1.0169261870874786
0229,cdot_cos,S,R-S,103,20,18648,-0.014635675204328838,-0.10023391213652107,-0.0294661995995825,0.32373603798985146,879.0,2.2999369705990786,0.5564135626532062,5.646981836975524,-0.022332257989649516,0.017,0.9999999999998226,40.16846685883752,0.5116171726921308,103,2026-10-08 00:31:34.732243,25.0,0.48970790444368706,1.1429245598330093,1.6136712267079623
0229,cdot_cos,T,S-T,104,20,18893,-0.22102377035824539,0.03792068990842252,-0.20638809515391654,0.005710610421153698,879.0,2.3113639947793656,0.5564205637219133,5.674399547713271,-0.009381574549415345,0.245,0.9999999999998141,1849.8152185103831,0.5165843879790095,104,2026-10-08 00:31:34.977243,25.0,0.25146834738746526,0.14969326812233608,0.04664091502157943
0229,cdot_cos,P,T-P,105,21,19333,0.04780433535058403,0.0008497841814382037,0.2688281057088294,0.9987957611931528,859.0,2.3732866719790233,0.5576447157721275,5.714158917508198,-0.05161789312230861,0.44,0.9999999999998126,-34.5025101787828,0.5215516771684672,105,2026-10-08 00:31:35.417243,25.0,0.4412032768058427,0.09162441351904703,0.14073335727194936
0229,cdot_cos,Q,P-Q,106,21,19462,-0.023065723379981255,-0.02177179157380591,-0.07087005873056529,0.14532465195916205,859.0,2.391993478676127,0.5578227717452134,5.743138000846724,-0.01586080565712109,0.129,0.9999999999998008,200.81936508766265,0.5265188506919756,106,2026-10-08 00:31:35.546243,25.0,0.10493326348937526,0.26006309586837423,0.14501400540390444
0229,cdot_cos,R,Q-R,107,21,19506,0.015250820293404082,0.04236027652791922,0.038316543673385335,0.7227038770463695,859.0,2.440382950713064,0.5587080278448495,5.779321860261144,-0.0415879110325296,0.044,0.9999999999997968,-29.06176572630759,0.5314859920167972,107,2026-10-08 00:31:35.590244,25.0,0.5386874189198106,0.8702689255246694,1.099760728112202
0229,cdot_cos,S,R-S,108,21,19523,-0.013841571587176032,-0.0948392914385507,-0.029092391880580114,0.3257853513369024,859.0,2.468577144122298,0.5591069679281577,5.8104111383432775,-0.024610579869869382,0.017,0.9999999999997896,42.556092689097106,0.5364531231742264,108,2026-10-08 00:31:35.607244,25.0,0.501656964747988,1.168942471185884,1.6584819652490594
0229,cdot_cos,T,S-T,109,21,19753,-0.2481954134209918,0.03402711670194858,-0.23435384183381577,0.0028464106053406697,859.0,2.480126994733384,0.559110453161503,5.837285588760276,-0.010163418621348013,0.23,0.9999999999997798,4145.249346985918,0.5414203396672558,109,2026-10-08 00:31:35.837244,25.0,0.24135500242622163,0.16297222371133194,0.05021674178733062
0229,cdot_cos,P,T-P,110,22,20192,0.05099892136166807,-0.00039243533601313453,0.2991943347826599,0.9994359809597487,819.0,2.5435443670295106,0.5603338310170078,5.876831933212334,-0.05661661264362873,0.439,0.9999999999997782,-37.97125623392176,0.5463876427705171,110,2026-10-08 00:31:36.276243,25.0,0.4402172214541555,0.09323430299188443,0.14445870682488987
0229,cdot_cos,Q,P-Q,111,22,20301,-0.024345202218014676,-0.02286527583691727,-0.07534412357968275,0.13197556315325004,819.0,2.5619867127602585,0.5604953236666116,5.905185893561783,-0.016731586051887078,0.109,0.9999999999997654,246.97734967880993,0.5513548110752189,111,2026-10-08 00:31:36.385243,25.0,0.09219805515474724,0.31364210413678817,0.16919583239218236
0229,cdot_cos,R,Q-R,112,22,20359,0.015605270233993673,0.045482571935710224,0.03995047245200835,0.7308150663196916,819.0,2.6119183457313304,0.5613893569402565,5.941187762679396,-0.04588619947822492,0.058,0.9999999999997607,-32.61021069996294,0.5563219584643844,112,2026-10-08 00:31:36.443244,25.0,0.5297406160376851,0.6831311588169803,0.8608902236391714
0229,cdot_cos,S,R-S,113,22,20376,-0.011859599023713738,-0.09627250344706789,-0.02746486925770741,0.334785006789517,819.0,2.641229927183028,0.5617987791917147,5.972004203031051,-0.027343733441298083,0.017,0.9999999999997525,45.289346074582646,0.5612890887184633,113,2026-10-08 00:31:36.460243,25.0,0.5075678497755999,1.2076865904287044,1.7242106736292802
0229,cdot_cos,T,S-T,114,22,20612,-0.2675420264249632,0.007431910346618891,-0.25568242740124947,0.001672001134953162,819.0,2.6529796898059064,0.5618008237394462,5.998392618806072,-0.011046601743730282,0.236,0.9999999999997417,7971.020410469352,0.5662563148671937,114,2026-10-08 00:31:36.696243,25.0,0.22870844439503088,0.162301514209534,0.04978712975795844
0229,cdot_cos,P,T-P,115,23,21011,0.046397195421089485,0.00035239094729392094,0.3139392218460527,0.9996098076809489,819.0,2.7178362418899282,0.5630227833047283,6.037748022225121,-0.06181920415109541,0.399,0.9999999999997402,-41.55014932563811,0.5712236150900284,115,2026-10-08 00:31:37.095244,25.0,0.4398559786261523,0.1044043249382658,0.16254774958401466
0229,cdot_cos,Q,P-Q,116,23,21140,-0.03158024961098115,-0.03093745878603561,-0.07797744503207063,0.12461485594574957,819.0,2.7362943411066425,0.5631750637586322,6.065582484515471,-0.01786519987643481,0.129,0.9999999999997267,288.63851628911783,0.5761907951512487,116,2026-10-08 00:31:37.224244,25.0,0.08540811471196368,0.27210901418671307,0.14308604043964546
0229,cdot_cos,R,Q-R,117,23,21181,0.011107387240836115,0.03803056786993038,0.04268763685181727,0.7440623397809615,819.0,2.7880403675501,0.5640840657048071,6.101503513576661,-0.05070468464357916,0.041,0.9999999999997212,-36.12696860038233,0.581157935333088,117,2026-10-08 00:31:37.265243,25.0,0.5232678787617298,1.0256639072910232,1.262098205937993
0229,cdot_cos,S,R-S,118,23,21199,-0.008583392206590277,-0.11341935870838243,-0.019690779447426393,0.37935908062831675,819.0,2.8203987815045064,0.5645473536780233,6.132555430650443,-0.03218215134421296,0.018,0.9999999999997132,39.980604656706305,0.586125065234624,118,2026-10-08 00:31:37.283243,25.0,0.5623937869594415,1.234719592230143,1.7976896641336777
0229,cdot_cos,T,S-T,119,23,21450,-0.2400140799977332,-0.010078120641382943,-0.23143068779114292,0.0030615515700584514,819.0,2.8324902728703854,0.5645510921058251,6.158526787644617,-0.012120912956005163,0.251,0.9999999999997012,5366.223303473458,0.5910923064087847,119,2026-10-08 00:31:37.534244,25.0,0.19107428180026592,0.1560410245185524,0.048173272374019714
0229,cdot_cos,P,T-P,120,24,21830,0.04146234253873617,-0.00010765658411194805,0.2814764225364694,0.9991219341919749,819.0,2.8987313758128197,0.5657707147784836,6.197709173543374,-0.06727889503034899,0.38,0.9999999999996992,-45.22544825614898,0.5960596118325769,120,2026-10-08 00:31:37.914243,25.0,0.4405017836847221,0.11326486624558876,0.1743186919537746
0229,cdot_cos,Q,P-Q,121,24,21940,-0.030319982025988856,-0.029507375225118093,-0.07178232456472503,0.14251479405268386,819.0,2.918571571217033,0.5659446172763408,6.225392411698016,-0.020451785821503247,0.11,0.9999999999996846,269.2722058960699,0.6010267861643163,121,2026-10-08 00:31:38.024243,25.0,0.10130350724133888,0.3320138594565006,0.18036541276557375
0229,cdot_cos,R,Q-R,122,24,22000,0.013700254443923202,0.04347843823391257,0.04402023646991206,0.7503548862162137,819.0,2.97177442489325,0.5668599628750893,6.261174583800959,-0.055504010237483165,0.06,0.9999999999996794,-38.293978213152016,0.605993936121031,122,2026-10-08 00:31:38.084243,25.0,0.5317796967693867,0.7090893103490425,0.8867142279369504
0229,cdot_cos,S,R-S,123,24,22018,-0.009625010003031164,-0.11058814613267615,-0.023325264446954368,0.35821232875401265,819.0,3.003662288458918,0.5672967797429986,6.291627304792232,-0.033739608670049666,0.018,0.9999999999996708,49.825002572822584,0.610961065204307,123,2026-10-08 00:31:38.102243,25.0,0.5246259382571296,1.2301245980433917,1.7715479758704493
0229,cdot_cos,T,S-T,124,24,22269,-0.23215887232477517,-0.0004169086694496731,-0.222533862321744,0.003821259733943141,819.0,3.016058910422812,0.567301438960488,6.317203127811352,-0.013213674788681684,0.251,0.9999999999996573,4405.4466073248295,0.6159283152156413,124,2026-10-08 00:31:38.353244,25.0,0.21153057425909258,0.15936784884881983,0.0493889321270678
0229,cdot_cos,P,T-P,125,25,22649,0.03739401284873822,-0.00039104884839320694,0.2695528851735134,0.9988173593123247,799.0,3.0836649485810255,0.5685188747788015,6.356235984319847,-0.0729704229488402,0.38,0.9999999999996558,-49.08410551197741,0.6208956349338693,125,2026-10-08 00:31:38.733243,25.0,0.4409087293114636,0.11645606488506327,0.17791062673214086
0229,cdot_cos,Q,P-Q,126,25,22758,-0.03072880438593026,-0.030939826126690093,-0.06812281723466848,0.15406467448419217,799.0,3.10456551973546,0.5687065874124524,6.3837174596917485,-0.02288391071374883,0.109,0.9999999999996388,266.82547285674895,0.6258628117389478,126,2026-10-08 00:31:38.842243,25.0,0.1120599019280194,0.34376985770687074,0.19174835921499592
0229,cdot_cos,R,Q-R,127,25,22818,0.012318163187876508,0.04247993599829981,0.043046967573806764,0.7457693016700008,799.0,3.1586067775611233,0.5696149539031544,6.4192363996049355,-0.05985533623247802,0.06,0.999999999999634,-40.70100107959281,0.6308299626130183,127,2026-10-08 00:31:38.902244,25.0,0.5391940847681486,0.7360894879823869,0.9006876304277212
0229,cdot_cos,S,R-S,128,25,22836,-0.005689156923638475,-0.11974307902130811,-0.01800732011151498,0.38931725637934644,799.0,3.1928962582933464,0.5700889667885943,6.449822278488831,-0.038503761810647075,0.018,0.9999999999996244,45.04429115258213,0.6357970908334938,128,2026-10-08 00:31:38.920243,25.0,0.5743408947631347,1.30380201504205,1.9049711517901753
0229,cdot_cos,T,S-T,129,25,23069,-0.23134723354355785,-0.018504155630071076,-0.22565807661991938,0.003535171906784872,799.0,3.205543650102637,0.5700932704467189,6.475016751665228,-0.01430670983820863,0.233,0.9999999999996098,5622.438230972446,0.64076434009282,129,2026-10-08 00:31:39.153243,25.0,0.18427834092933423,0.17514977255995554,0.05428065154201992
0229,cdot_cos,P,T-P,130,26,23448,0.040906681325148436,0.0012996965263367601,0.2722539148687063,0.9988944960528253,799.0,3.2745160523062857,0.5713088808555085,6.513925424877702,-0.07896130702769931,0.379,0.9999999999996081,-53.18693943552903,0.6457316744301641,130,2026-10-08 00:31:39.532243,25.0,0.4409544641068668,0.11813009694916177,0.1819852300887827
0229,cdot_cos,Q,P-Q,131,26,23578,-0.03146971325634323,-0.03550444911902183,-0.07237639458149167,0.14070946406839488,799.0,3.2950862635901017,0.5714800492760325,6.540890222353888,-0.023872311805917912,0.13,0.9999999999995907,321.8408807719061,0.6506988666659551,131,2026-10-08 00:31:39.662244,25.0,0.09949456106079992,0.2875084876949276,0.1582323944908921
0229,cdot_cos,R,Q-R,132,26,23626,0.00820639162271339,0.039798428890128294,0.039676104879056616,0.729463561971525,799.0,3.349268259106967,0.572367142610343,6.57599994746861,-0.0635620742565016,0.048,0.9999999999995844,-44.74136025543362,0.6556660113721362,132,2026-10-08 00:31:39.710243,25.0,0.5355691724168461,0.9739146789164386,1.128791573268025
0229,cdot_cos,S,R-S,133,26,23643,0.0026368508210723807,-0.11870952432962181,-0.005569540801641009,0.46524650008900065,799.0,3.38858207276608,0.5729326816551961,6.607384155463918,-0.046753161053545406,0.017,0.9999999999995753,29.72193229792807,0.6606331381212097,133,2026-10-08 00:31:39.727243,25.0,0.6980080552194418,1.5400476383980028,2.312577274065465
0229,cdot_cos,T,S-T,134,26,23888,-0.2032258095508287,-0.0333958068977885,-0.20586266037190107,0.0057856822358032245,799.0,3.401629878812499,0.5729397133519952,6.632258817303123,-0.015637361593793357,0.245,0.9999999999995589,4425.0769548892895,0.6656004038077162,134,2026-10-08 00:31:39.972243,25.0,0.13671771929949053,0.1699536742597528,0.05325635120987427
0229,cdot_cos,P,T-P,135,27,24247,0.034015520224360954,0.0008070113124129695,0.23724132977518964,0.9973512977096677,819.0,3.4718593731533587,0.5741514130981953,6.671038811652986,-0.08513790312807337,0.359,0.9999999999995571,-57.35789064265858,0.6705677417573991,135,2026-10-08 00:31:40.331244,25.0,0.44205143894278726,0.12801472239617556,0.19562533242579297
0229,cdot_cos,Q,P-Q,136,27,24377,-0.03450528536545019,-0.03591579679522122,-0.06852080558981113,0.15277239997023492,819.0,3.493544449492953,0.5743369407410207,6.697864508834501,-0.02663694961608258,0.13,0.999999999999539,315.32203299234965,0.6755349384164788,136,2026-10-08 00:31:40.461244,25.0,0.11122131702102403,0.29987516712607437,0.16680827953534136
0229,cdot_cos,R,Q-R,137,27,24423,0.008918941088521393,0.036887805198148035,0.04342422645397158,0.7475533361587581,819.0,3.549826916606138,0.575244470910332,6.7330663138716025,-0.06986983349856338,0.046,0.9999999999995327,-47.637957772012705,0.6805020824078282,137,2026-10-08 00:31:40.507244,25.0,0.5386101625155206,1.0235331240081291,1.2235318937648905
0229,cdot_cos,S,R-S,138,27,24441,-0.002747623310527975,-0.11713388306695866,-0.011666564399049367,0.42759651429262285,819.0,3.587709496901701,0.5757633457601232,6.76369027009509,-0.047641409127233955,0.018,0.9999999999995217,42.83966428566544,0.6854692089006852,138,2026-10-08 00:31:40.525243,25.0,0.6271448083281397,1.4198403182979185,2.1045877941979394
0229,cdot_cos,T,S-T,139,27,24687,-0.21984313311911774,-0.01624668301802354,-0.21709550980858977,0.00437533286838858,819.0,3.600941168064863,0.5757686542271121,6.788214735485128,-0.01675935857365308,0.246,0.9999999999995047,5817.508259598947,0.6904364852617118,139,2026-10-08 00:31:40.771244,25.0,0.158393161988138,0.17245187382109617,0.05378728115106565
0229,cdot_cos,P,T-P,140,28,25066,0.04046891532619522,-0.009560984504599796,0.26031204844531297,0.9985104658452773,759.0,3.6725558188216803,0.5769796590255458,6.826917904542348,-0.0917088802500593,0.379,0.9999999999995024,-61.89035895922431,0.6954038521235943,140,2026-10-08 00:31:41.150244,25.0,0.4416423929622611,0.1208917723564712,0.18895686215519042
0229,cdot_cos,Q,P-Q,141,28,25156,-0.040200642108778314,-0.027959309695615834,-0.08066955743497353,0.11745661311750653,759.0,3.6925771315110683,0.5771220512403636,6.85294733223207,-0.02595974181891869,0.09,0.9999999999994812,461.7467220048581,0.7003710260375287,141,2026-10-08 00:31:41.240243,25.0,0.07944147581883557,0.4501473345610056,0.22245902988208896
0229,cdot_cos,R,Q-R,142,28,25209,0.01775519659263112,0.040325232216070775,0.05795583870140943,0.8098284641618004,759.0,3.7535823390426613,0.5781034533470084,6.888900404613358,-0.07991996220925222,0.053,0.9999999999994754,-54.982784350049435,0.7053381753713054,142,2026-10-08 00:31:41.293243,25.0,0.5090656705075736,0.8504876674880317,1.1510416515394906
0229,cdot_cos,S,R-S,143,28,25227,-0.022319746753484745,-0.11658060748663206,-0.04007494334611586,0.2685732119742573,759.0,3.7827288242647996,0.578428791839077,6.917005027652113,-0.03863761986442714,0.018,0.999999999999461,126.89043365983979,0.7103053009748355,143,2026-10-08 00:31:41.311244,25.0,0.3435407938111928,1.179984145258871,1.619249179007687
0229,cdot_cos,T,S-T,144,28,25466,-0.2674424555237014,-0.004950460272054405,-0.24512270877021664,0.0021760452926352885,759.0,3.7960617682719806,0.5784314275327969,6.941179842945538,-0.017774222549567825,0.239,0.9999999999994422,7915.713862301841,0.7152725821684376,144,2026-10-08 00:31:41.550244,25.0,0.3091895259513275,0.1804855637689605,0.05578637659908365
0229,cdot_cos,P,T-P,145,29,25825,0.03449216020135332,0.0010467063310426205,0.3019346157250547,0.9994733067383802,819.0,3.8690009237463627,0.5796415459779224,6.9798113120073495,-0.09826530870592176,0.359,0.99999999999944,-66.51504774642478,0.7202399508669782,145,2026-10-08 00:31:41.909244,25.0,0.44081937583668696,0.13340390303461575,0.20317313502613404
0229,cdot_cos,Q,P-Q,146,29,25955,-0.03222076395845358,-0.034913196407165656,-0.0667129241598069,0.1587146314497473,819.0,3.8918457706508347,0.5798336230392246,7.006159299259396,-0.031157783964512832,0.13,0.9999999999994186,349.37813128985493,0.7252071564343343,146,2026-10-08 00:31:42.039244,25.0,0.11604276894987878,0.3113898707251257,0.1757295915728613
0229,cdot_cos,R,Q-R,147,29,26004,0.010469978221836788,0.04281266003828487,0.04269074218029037,0.7440771234708552,819.0,3.9499622901348954,0.580733784800058,7.041025973370308,-0.08004371801829618,0.049,0.9999999999994111,-54.30794350620132,0.7301743034654123,147,2026-10-08 00:31:42.088243,25.0,0.5429487094953149,0.9902924266733081,1.1860514180420554
0229,cdot_cos,S,R-S,148,29,26021,-0.0020609861026522325,-0.11650134318411125,-0.012530964324489021,0.42231576805639004,819.0,3.988894428464819,0.5812444509708673,7.071146974400826,-0.05426628759900698,0.017,0.9999999999993981,50.4780459187988,0.7351414273310154,148,2026-10-08 00:31:42.105243,25.0,0.6218742406139947,1.5475154729189418,2.2901257841131457
0229,cdot_cos,T,S-T,149,29,26265,-0.22486633086157362,-0.015357719059891152,-0.2228053447589214,0.0037955105278908454,819.0,4.002577816214139,0.5812490397321425,7.09505176836746,-0.01919919571174641,0.244,0.9999999999993775,7641.951669380058,0.7401087226463742,149,2026-10-08 00:31:42.349244,25.0,0.1609780035278349,0.17997313958677924,0.056079457989018616
0229,cdot_cos,P,T-P,150,30,26644,0.031197770121682126,-0.00017100650410675183,0.25606410098325577,0.9983438506615328,839.0,4.076721320583167,0.5824555441361945,7.133597557039784,-0.10508888478695998,0.379,0.9999999999993753,-71.18887323308182,0.7450761232178472,150,2026-10-08 00:31:42.728243,25.0,0.4416201426467283,0.12847158439600637,0.19562929912672222
0229,cdot_cos,Q,P-Q,151,30,26774,-0.035597524995291126,-0.03539058989870007,-0.06679529511697326,0.15843986155098733,839.0,4.099959277186312,0.5826469293096747,7.159688672112431,-0.03332948129031584,0.13,0.9999999999993517,374.9475583283987,0.7500433334564531,151,2026-10-08 00:31:42.858243,25.0,0.11613163904651304,0.32154028160749937,0.17875351233188533
0229,cdot_cos,R,Q-R,152,30,26820,0.011471938875174533,0.03909741956060179,0.04706946387046566,0.7643605279206678,839.0,4.160321793801117,0.5835698769981719,7.194736037608248,-0.0874060805227887,0.046,0.9999999999993436,-58.59118550968262,0.7550104786095382,152,2026-10-08 00:31:42.904243,25.0,0.5386537277072859,1.0595456289852285,1.3122286220609727
0229,cdot_cos,S,R-S,153,30,26838,-0.007818491390555338,-0.11340720642989018,-0.019290430265729873,0.3817184227691453,839.0,4.197437475052953,0.5840305743533183,7.224062647312331,-0.05436116794664124,0.018,0.9999999999993285,71.72802753696054,0.7599776021086416,153,2026-10-08 00:31:42.922244,25.0,0.5445055392841288,1.4257298259525708,2.0619822917686825
0229,cdot_cos,T,S-T,154,30,27064,-0.19881140015908666,0.002633401544738027,-0.1909929087685313,0.008368949708571383,839.0,4.2116480675354095,0.5840406732276837,7.247757557067799,-0.020941098308440476,0.226,0.9999999999993063,3309.286602535786,0.7649448936319317,154,2026-10-08 00:31:43.148243,25.0,0.2027243390487698,0.19809933787799722,0.06287872779847904
0229,cdot_cos,P,T-P,155,31,27483,0.03872536780663835,-0.0005225397826521183,0.237536767965725,0.9973707375887837,819.0,4.286978375773808,0.5852437004367207,7.286228830668016,-0.11209666603177877,0.419,0.999999999999304,-75.7718254737632,0.7699123449165889,155,2026-10-08 00:31:43.567244,25.0,0.4434424964336315,0.11787461907076938,0.17978593851646416
0229,cdot_cos,Q,P-Q,156,31,27593,-0.028988770053922235,-0.028092795012708994,-0.06771413786056059,0.15540095262784132,819.0,4.310426998316714,0.5854310537393393,7.31203526281729,-0.035294072139153684,0.11,0.9999999999992776,409.9345611694509,0.7748795431815249,156,2026-10-08 00:31:43.677243,25.0,0.11348594305835602,0.3798707855265219,0.21316929584460229
0229,cdot_cos,R,Q-R,157,31,27653,0.01376758759050954,0.04354224477960665,0.042756357644431774,0.7443893712291083,819.0,4.370549948589643,0.5863281551988847,7.346674522116524,-0.09131667083801964,0.06,0.9999999999992681,-62.44845340822172,0.7798467004041051,157,2026-10-08 00:31:43.737243,25.0,0.5414535257113904,0.8028432522820447,1.0020491712154764
0229,cdot_cos,S,R-S,158,31,27670,-0.009680364477665158,-0.10280468884874085,-0.023447952068174696,0.35750750020905536,819.0,4.40676818859056,0.5867588024880275,7.375447598968393,-0.05560282945785554,0.017,0.9999999999992506,82.93060767026905,0.7848138217759325,158,2026-10-08 00:31:43.754244,25.0,0.526079682463209,1.4817028484795085,2.130484705936281
0229,cdot_cos,T,S-T,159,31,27903,-0.23273721547958146,-0.0015824226523889703,-0.2230568510019163,0.003771810264439447,819.0,4.420927845437946,0.5867633452385992,7.398808077112378,-0.021862833832068964,0.233,0.9999999999992263,7427.217297794532,0.7897811290308813,159,2026-10-08 00:31:43.987243,25.0,0.21368376077256496,0.1948417025347597,0.060771059430843405
0229,cdot_cos,P,T-P,160,32,28302,0.03680092886856002,-0.0010421051661022255,0.2695381443481415,0.9988169239202248,820.0,4.497564421971758,0.5879657936288379,7.437248318551123,-0.11944207273218524,0.399,0.9999999999992234,-81.15045909017465,0.7947485828878015,160,2026-10-08 00:31:44.386244,25.0,0.4417731840373253,0.1242594689767267,0.1920716203854925
0229,cdot_cos,Q,P-Q,161,32,28431,-0.037605674244218436,-0.03520500031999326,-0.07440660311277845,0.13468381194874074,820.0,4.520086901681374,0.5881278558152878,7.462510075682977,-0.03548855509389786,0.129,0.9999999999991943,518.0327347012212,0.7997158015914302,161,2026-10-08 00:31:44.515244,25.0,0.09388820744882453,0.33107735815516703,0.17459286596601864
0229,cdot_cos,R,Q-R,162,32,28470,0.011441062842863486,0.036614729580765025,0.04904673708708192,0.7731472559148853,820.0,4.582982380375791,0.5890577968937432,7.497485967091746,-0.09997476434144792,0.039,0.9999999999991847,-69.34440336226825,0.8046829409078412,162,2026-10-08 00:31:44.554244,25.0,0.5246494945677863,1.2856609731510587,1.6127045819081205
0229,cdot_cos,S,R-S,163,32,28487,-0.010392918177231154,-0.11677126160625276,-0.02183398102009464,0.36682788580548265,820.0,4.620368457587157,0.5894987952221644,7.526221042200018,-0.0600617125408166,0.017,0.9999999999991659,90.50612945295491,0.8096500610009115,163,2026-10-08 00:31:44.571244,25.0,0.5145132202920744,1.5230387225076902,2.199181012433287
0229,cdot_cos,T,S-T,164,32,28722,-0.2324357588980651,0.0026315125618720965,-0.22204284072083394,0.003868274281733006,820.0,4.634765696941052,0.589503444873698,7.549331838860048,-0.023259605731318814,0.235,0.9999999999991391,7915.024716104037,0.814617380635012,164,2026-10-08 00:31:44.806243,25.0,0.20551574799506203,0.1962862061788975,0.061264848314449304
0229,cdot_cos,P,T-P,165,33,29122,0.048878559519455855,0.004211191385418394,0.28131431841752097,0.9991183716632209,858.0,4.7126229744912385,0.5907038437735161,7.587732643243291,-0.1269233218619899,0.4,0.9999999999991356,-86.35772337543357,0.8195848551650102,165,2026-10-08 00:31:45.206244,25.0,0.44186854353712957,0.1272275061741135,0.19464319387546558
0229,cdot_cos,Q,P-Q,166,33,29251,-0.020187381227351038,-0.022331623046239577,-0.06906594074680689,0.1510167731469318,858.0,4.736547701880343,0.5908851904562037,7.613027764896167,-0.03942153158485865,0.129,0.999999999999105,482.5111161691037,0.8245520787558974,166,2026-10-08 00:31:45.335244,25.0,0.10864771378831128,0.3213627466841205,0.1854630030163144
0229,cdot_cos,R,Q-R,167,33,29305,0.01313816237210478,0.04724658350922525,0.03332554359945582,0.6970181588946156,858.0,4.795534563135742,0.5917218752293516,7.6467365472382625,-0.0979853747043725,0.054,0.9999999999990918,-69.99511046337736,0.829519232183857,167,2026-10-08 00:31:45.389244,25.0,0.550086669520695,0.9041361276621872,1.0923492825073804
0229,cdot_cos,S,R-S,168,33,29323,-0.006817675120600989,-0.09676415261765883,-0.01995583749270577,0.3778001626849373,858.0,4.834194403667859,0.5921751562530522,7.675471997912932,-0.06485484878159264,0.018,0.9999999999990719,73.09047630607499,0.8344863517958113,168,2026-10-08 00:31:45.407244,25.0,0.599990680741351,1.4753172401270487,2.1477689184509825
0229,cdot_cos,T,S-T,169,33,29561,-0.2718426705063957,-0.026882586794447015,-0.2650249953857947,0.0013241957857678733,858.0,4.848645983780315,0.5921767447351859,7.698302406659551,-0.02437732152317934,0.238,0.9999999999990423,25481.890163696768,0.8394536848854397,169,2026-10-08 00:31:45.645243,25.0,0.19005184843027792,0.19646909123654843,0.060720924842252375
0229,cdot_cos,P,T-P,170,34,29980,0.050615140163448535,-6.79718418843369e-05,0.32245781066984425,0.9996846289536833,859.0,4.927713691096456,0.5933753971279414,7.736673507271354,-0.13453768322065662,0.419,0.9999999999990387,-91.90350961068505,0.8444211977772618,170,2026-10-08 00:31:46.064243,25.0,0.440957518018001,0.122450064301715,0.1887057453845847
0229,cdot_cos,Q,P-Q,171,34,30090,-0.022105113445784256,-0.02019540823578317,-0.07272025360923279,0.13967326832946006,859.0,4.9512591376651525,0.5935427814844364,7.761584166437109,-0.04047902871840175,0.11,0.999999999999004,561.9321690021167,0.849388407050745,171,2026-10-08 00:31:46.174243,25.0,0.09791660657797013,0.38925557005525296,0.2140495142608743
0229,cdot_cos,R,Q-R,172,34,30150,0.017928099415551835,0.045785126416438254,0.04003321286133609,0.7312217984283279,859.0,5.013349916508612,0.594418721822898,7.7957336702536555,-0.10759750239195139,0.06,0.9999999999989911,-76.62448083099798,0.8543555670864669,172,2026-10-08 00:31:46.234244,25.0,0.5359083529592622,0.8022126150613855,1.034846314057658
0229,cdot_cos,S,R-S,173,34,30167,-0.01589869269913296,-0.09203845702525738,-0.0338267921146848,0.30034200336390526,859.0,5.047524651472519,0.5947783318038484,7.8230927861926345,-0.05977686755270549,0.017,0.9999999999989669,132.97916457396568,0.8593226841932005,173,2026-10-08 00:31:46.251244,25.0,0.44933542259435,1.4385484580238967,2.0102785272886337
0229,cdot_cos,T,S-T,174,34,30400,-0.2542557899529561,0.037827598479746864,-0.23835709725382315,0.002576027532933487,859.0,5.062260564081424,0.594781415732395,7.845710963810636,-0.025900625548297574,0.233,0.9999999999989346,10984.768775690362,0.864290022786602,174,2026-10-08 00:31:46.484244,25.0,0.27037877789408443,0.20373992316040063,0.06324426012405888
0229,cdot_cos,P,T-P,175,35,30839,0.055163859089662724,-0.0021149538059922093,0.3094196490426188,0.999563153275059,819.0,5.142467455665265,0.5959774904246872,7.8840465322238735,-0.14216509063935412,0.439,0.9999999999989297,-97.20502058967718,0.8692575771502363,175,2026-10-08 00:31:46.923244,25.0,0.44139591451809157,0.1176211775497335,0.18270362547571978
0229,cdot_cos,Q,P-Q,176,35,30949,-0.02182275672805311,-0.020072526996751713,-0.07698661581771583,0.12734221676420468,819.0,5.1655319579700905,0.5961297862435859,7.908561024324774,-0.04129006896788948,0.11,0.9999999999988922,662.3623839504622,0.8742247899010636,176,2026-10-08 00:31:47.033243,25.0,0.08689264072859598,0.38889550934190725,0.20967729368022764
0229,cdot_cos,R,Q-R,177,35,31005,0.016734090803260885,0.04813203150244783,0.038556847531314,0.7239062050673044,819.0,5.228024467720485,0.596995194274799,7.942510257184525,-0.11272432193691485,0.056,0.9999999999988775,-82.54401437538756,0.8791919463908057,177,2026-10-08 00:31:47.089243,25.0,0.530620850527896,0.8841920957322772,1.1159376741141884
0229,cdot_cos,S,R-S,178,35,31023,-0.01181122556634296,-0.09663060776308328,-0.028545316369603845,0.3287965975632238,819.0,5.2645614726921055,0.5973880617009875,7.9701566406106155,-0.06651247658520348,0.018,0.9999999999988517,117.62707282720753,0.8841590629276298,178,2026-10-08 00:31:47.107244,25.0,0.4991819533518542,1.4290468838353585,2.029833609534472
0229,cdot_cos,T,S-T,179,35,31259,-0.2578408550097301,0.007530561107660547,-0.24602962944338713,0.00212736667099193,819.0,5.279470155538558,0.5973906032098385,7.99254735006289,-0.02727299368040827,0.236,0.9999999999988164,15439.443733885473,0.8891264153532967,179,2026-10-08 00:31:47.343244,25.0,0.2372200742070867,0.2038984027625718,0.06317238494259499
0229,cdot_cos,P,T-P,180,36,31658,0.041905064870804455,0.001506198168732366,0.29974591988053456,0.9994437008956569,859.0,5.360801518796039,0.5985840315552117,8.03085348031081,-0.1499943684482043,0.399,0.9999999999988112,-102.83095356631782,0.8940939483352058,180,2026-10-08 00:31:47.742244,25.0,0.44123696348356145,0.13300144653859478,0.20383800315158263
0229,cdot_cos,Q,P-Q,181,36,31788,-0.02791162202357338,-0.027666273654034356,-0.06981668689437784,0.1486261593471652,859.0,5.3856053098763566,0.5987614055452174,8.055517119759715,-0.0461936541487303,0.13,0.9999999999987724,585.2082049691943,0.8990611871419399,181,2026-10-08 00:31:47.872243,25.0,0.10570771940167793,0.34153982098670094,0.19079839292551662
0229,cdot_cos,R,Q-R,182,36,31835,0.012547615584393573,0.040173036185784244,0.04045923760796695,0.7333098715873022,859.0,5.449601872252582,0.5996361755505759,8.089540638704463,-0.12008283527399741,0.047,0.9999999999987563,-84.46698066080161,0.9040283342426616,182,2026-10-08 00:31:47.919244,25.0,0.5404687688910617,1.0966729615832675,1.3616289867281932
0229,cdot_cos,S,R-S,183,36,31853,-0.010596646875885372,-0.09981756581097885,-0.023144262460278946,0.35925328683049834,859.0,5.488692568265184,0.6000644997531467,8.117528471932292,-0.07402106695204379,0.018,0.9999999999987301,107.53949472267489,0.9089954493378491,183,2026-10-08 00:31:47.937243,25.0,0.5367197653473407,1.5110567879592394,2.1717053340334482
0229,cdot_cos,T,S-T,184,36,32098,-0.22298512656398733,0.018498842987893123,-0.21238847968810196,0.004919033729543028,859.0,5.503999916619114,0.6000703634723312,8.139756814650815,-0.029129588584866556,0.245,0.9999999999986922,7655.802905012099,0.9139628235889725,184,2026-10-08 00:31:48.182244,25.0,0.21414637198014394,0.19941132923885968,0.06247897287318592
0229,cdot_cos,P,T-P,185,37,32517,0.04039482221522459,0.0006824173357329899,0.26337994877921195,0.9986202864663801,879.0,5.586404119592225,0.6012601698015485,8.178029032566167,-0.15804952113340726,0.419,0.9999999999986867,-108.35371218217617,0.9189304009981873,185,2026-10-08 00:31:48.601243,25.0,0.44233256001083704,0.12863344117972758,0.19666874217926178
0229,cdot_cos,Q,P-Q,186,37,32647,-0.028299617741365125,-0.027453522206430728,-0.06869443995658972,0.15221139603550243,879.0,5.611794740327726,0.6014414174957713,8.2025742387278,-0.04916448100959987,0.13,0.999999999998644,600.7526914519982,0.923897644901015,186,2026-10-08 00:31:48.731244,25.0,0.1091852346812215,0.3496276702953673,0.19531246719616172
0229,cdot_cos,R,Q-R,187,37,32696,0.014100431783741998,0.041955522126934826,0.04240004952510712,0.7426907819104226,879.0,5.67730731386902,0.6023253865896158,8.236682779479786,-0.1277872404847354,0.049,0.9999999999986274,-88.94288275758271,0.9288647944701207,187,2026-10-08 00:31:48.780244,25.0,0.5404987316558906,1.0591167157741412,1.3369912967611117
0229,cdot_cos,S,R-S,188,37,32713,-0.01252279724688815,-0.10115427286044057,-0.02662322903063015,0.33948709539019684,879.0,5.715588178473592,0.6027292307497809,8.264213867042901,-0.07533020425667719,0.017,0.9999999999985983,129.89425477047075,0.9338319067103507,188,2026-10-08 00:31:48.797244,25.0,0.49839553826711497,1.5881658668841763,2.2518155649747857
0229,cdot_cos,T,S-T,189,37,32957,-0.2061016057685684,0.031151700270798242,-0.19357880852168025,0.007849147691285512,879.0,5.731304953343082,0.6027385662192188,8.286292328582183,-0.031074273491086834,0.244,0.9999999999985568,4740.621889432603,0.9387992919322271,189,2026-10-08 00:31:49.041243,25.0,0.24070133070191035,0.20328867198529074,0.06441301176020753
0229,cdot_cos,P,T-P,190,38,33396,0.046971147128600545,-0.0012297784489219469,0.25307275289716896,0.9982154784486452,840.0,5.814793050402414,0.60392519302702,8.32454151739573,-0.16632768740817416,0.439,0.9999999999985506,-113.98142451182098,0.9437669165420951,190,2026-10-08 00:31:49.480243,25.0,0.44344815710059887,0.12266040197610598,0.19017789762945614
0229,cdot_cos,Q,P-Q,191,38,33506,-0.02906688660128209,-0.027294822669006017,-0.07603803372988263,0.130000895522314,840.0,5.8390007862781035,0.6040796416661216,8.348554343013554,-0.048670746027947416,0.11,0.9999999999985038,761.7868442518497,0.9487341408730174,191,2026-10-08 00:31:49.590244,25.0,0.08915260171330881,0.41490655330534876,0.2200703261426346
0229,cdot_cos,R,Q-R,192,38,33565,0.015456235094029588,0.0436640590393491,0.04452312169531168,0.7527025082402176,840.0,5.90607249212959,0.6049734871725284,8.382766210025698,-0.13580071288128567,0.059,0.9999999999984863,-97.47765830763534,0.9537013030673928,192,2026-10-08 00:31:49.649244,25.0,0.5264485411740165,0.8902001003339118,1.1368085737540157
0229,cdot_cos,S,R-S,193,38,33583,-0.01329264597528839,-0.10159941420400889,-0.02874888106931798,0.32767446341109774,840.0,5.944044398117505,0.6053623867109112,8.409970757722471,-0.07754313531723438,0.018,0.9999999999984538,149.80109723530188,0.9586684147484605,193,2026-10-08 00:31:49.667244,25.0,0.471756403784876,1.4969670866971345,2.109550332661926
0229,cdot_cos,T,S-T,194,38,33816,-0.20711105167383692,0.017625506232127854,-0.19381840569854852,0.00780263813173571,840.0,5.959963307250687,0.6053716456267416,8.431859036728897,-0.032655880734154714,0.233,0.9999999999984092,4848.003308967948,0.9636357982541754,194,2026-10-08 00:31:49.900243,25.0,0.2529525183502321,0.21567859583572294,0.06832149842567455
0229,cdot_cos,P,T-P,195,39,34236,0.04828433272451985,0.004792041934383836,0.2553953843983568,0.9983159775837442,859.0,6.044550623776952,0.6065556605145315,8.470096745959815,-0.1748027063753206,0.42,0.9999999999984025,-120.05493098697855,0.9686034229801568,195,2026-10-08 00:31:50.320243,25.0,0.44344373428148937,0.13139023231483193,0.20139837268158267
0229,cdot_cos,Q,P-Q,196,39,34365,-0.02169420172816118,-0.02519199095952058,-0.06997853445268104,0.14811489663768995,859.0,6.070331102395146,0.6067312203526437,8.49424537478787,-0.05375766778291473,0.129,0.9999999999983534,689.4802358784357,0.9735706760033159,196,2026-10-08 00:31:50.449243,25.0,0.10522235497959752,0.34372758182963353,0.199848671458869
0229,cdot_cos,R,Q-R,197,39,34422,0.008528876655689282,0.03709698646554938,0.030223078383850462,0.6803926745133538,859.0,6.133232339888997,0.6075373315206668,8.527201188600973,-0.1320266309470819,0.057,0.9999999999983314,-97.09450292831683,0.9785378363793286,197,2026-10-08 00:31:50.506243,25.0,0.5527623658380761,0.9488634786456684,1.1035304823482692
0229,cdot_cos,S,R-S,198,39,34440,-0.0035216940248729597,-0.1002331870591786,-0.012050570680562242,0.4252484517342836,859.0,6.178501538960752,0.6080408574018968,8.555901683364914,-0.09581642886083808,0.018,0.9999999999983006,71.91328874255228,0.9835049463446485,198,2026-10-08 00:31:50.524243,25.0,0.6852906332211898,1.6960033981768696,2.5149555039863816
0229,cdot_cos,T,S-T,199,39,34675,-0.2368922614821767,0.0021920739142504463,-0.23337056745730375,0.002917041123234963,859.0,6.194288462223365,0.6080443106037727,8.577528973703528,-0.033580092029967805,0.235,0.9999999999982526,18022.791330380354,0.9884723445940548,199,2026-10-08 00:31:50.759244,25.0,0.15670816115299804,0.21601180334486192,0.0671783968621806
0229,cdot_cos,P,T-P,200,40,35095,0.05123336801941214,-0.001053881894890583,0.2881256295015888,0.9992563088314808,858.0,6.280027086532837,0.6092265948608964,8.615773762387631,-0.18367135643915125,0.42,0.9999999999982455,-126.95023511041146,0.9934399934798376,200,2026-10-08 00:31:51.179244,25.0,0.4416785379154596,0.13200273035862053,0.2041395816892206
0229,cdot_cos,Q,P-Q,201,40,35224,-0.02328586820759536,-0.02127914771092056,-0.0745192362270075,0.13435598131944407,858.0,6.305170755724606,0.6093854626019515,8.639539068470167,-0.054334245470860396,0.129,0.9999999999981924,814.1181470152727,0.9984072518984164,201,2026-10-08 00:31:51.308243,25.0,0.092513780838178,0.3582133721362796,0.1949121642772758
0229,cdot_cos,R,Q-R,202,40,35264,0.016713813704926403,0.04299723055145949,0.03999968191252176,0.7310570151322812,858.0,6.3724461365439975,0.610249485650065,8.673283953467068,-0.14632962230797128,0.04,0.9999999999981711,-106.47329031091502,1.0033743897854634,202,2026-10-08 00:31:51.348243,25.0,0.5332921161156271,1.310706451607313,1.6818845204847888
0229,cdot_cos,S,R-S,203,40,35282,-0.015586612777604637,-0.09292388348050147,-0.032300426482531036,0.30842121205106865,858.0,6.410027271853191,0.6106137959605495,8.69991659085,-0.0823903520494269,0.018,0.9999999999981327,175.50771531417857,1.008341498108945,203,2026-10-08 00:31:51.366244,25.0,0.46021896898255454,1.4873709896915759,2.0878408505107497
0229,cdot_cos,T,S-T,204,40,35514,-0.25124449859698583,0.04238522646532874,-0.23565788581938119,0.0027553623766319564,858.0,6.425991492172894,0.610617050067136,8.721365084400748,-0.03514539704157944,0.232,0.9999999999980816,14518.564083023619,1.0133089042078354,204,2026-10-08 00:31:51.598243,25.0,0.26072958457660583,0.22150430784357317,0.06881129448147946
0229,cdot_cos,P,T-P,205,41,35953,0.0517648709437216,0.002062195364006887,0.30300936954070745,0.9994872627910094,860.0,6.512805270692609,0.6117968009997252,8.759606507752137,-0.19243904169252174,0.439,0.9999999999980747,-133.32784090767487,1.0182766035940267,205,2026-10-08 00:31:52.037244,25.0,0.4415920991279855,0.12861253404249928,0.19775348182167363
0229,cdot_cos,Q,P-Q,206,41,36083,-0.019649138673617544,-0.019978861621165068,-0.07141400961733914,0.14364374422895893,860.0,6.538913297062209,0.6119662444959534,8.783377814017596,-0.0583691206815814,0.13,0.9999999999980177,791.2367485053009,1.0232438686907928,206,2026-10-08 00:31:52.167244,25.0,0.10056687589144754,0.3541969541506668,0.20083097207384334
0229,cdot_cos,R,Q-R,207,41,36132,0.014524453770268436,0.04647338310064927,0.03417359244388598,0.7014767237434846,860.0,6.604896478771782,0.6127933233885376,8.816570564676368,-0.14844162729518645,0.049,0.9999999999979939,-108.90437105965461,1.0282110190483718,207,2026-10-08 00:31:52.216243,25.0,0.5450992540394076,1.0937472115142333,1.3465955450933416
0229,cdot_cos,S,R-S,208,41,36149,-0.009755979029761408,-0.09359936283265671,-0.024280432800029846,0.3527413714521264,860.0,6.6461005237906035,0.6132089792076382,8.843835647410552,-0.09341522518391815,0.017,0.999999999997955,132.38453446975663,1.0331781240463274,208,2026-10-08 00:31:52.233243,25.0,0.5548531734547805,1.688534032825154,2.423767354048302
0229,cdot_cos,T,S-T,209,41,36393,-0.23615981887131704,0.01927517839182958,-0.22640383984155563,0.0034700990877437375,860.0,6.662306635887838,0.6132130674106369,8.86512845103355,-0.036900533994544286,0.244,0.9999999999979,13823.846616112225,1.0381455596526625,209,2026-10-08 00:31:52.477243,25.0,0.21620218156678372,0.21320477535901433,0.06641849220177912
0229,cdot_cos,P,T-P,210,42,36813,0.04519398302566962,0.002363635943809883,0.28135380189698667,0.9991192407116201,859.0,6.750144454165802,0.6143894869270694,8.903359744087446,-0.20133840961371177,0.42,0.9999999999978915,-139.7782621949522,1.04311325666981,210,2026-10-08 00:31:52.897243,25.0,0.4418769527903705,0.1367591978007663,0.20913766256658306
0229,cdot_cos,Q,P-Q,211,42,36942,-0.023487387845847838,-0.026724991735711322,-0.06868137087151746,0.15225356270364312,859.0,6.777184362040481,0.614568641975444,8.927135854630537,-0.06249987001476384,0.129,0.9999999999978321,774.9630326276274,1.0480805257910317,211,2026-10-08 00:31:53.026243,25.0,0.1084548573776378,0.3634444164205079,0.20961168895099846
0229,cdot_cos,R,Q-R,212,42,37000,0.010567312750478787,0.04382510759798751,0.03405470059632663,0.7008539312298107,859.0,6.8439131136022935,0.6153929278775037,8.960267076175754,-0.15518122352864563,0.058,0.9999999999978068,-112.43835819865467,1.0530476898543615,212,2026-10-08 00:31:53.084243,25.0,0.5503251873185433,0.9726125844884261,1.1504957165829697
0229,cdot_cos,S,R-S,213,42,37018,-0.0034222938357879725,-0.09305260216124002,-0.013989606586266759,0.41344543189434874,859.0,6.890007421841139,0.6158788777153613,8.98846713665054,-0.10803131645358935,0.018,0.9999999999977683,97.02628420027837,1.0580147944272662,213,2026-10-08 00:31:53.102243,25.0,0.6463289731503856,1.7343144369111023,2.5607949021580665
0229,cdot_cos,T,S-T,214,42,37253,-0.24195881164313057,0.005331864465033143,-0.2385365178073426,0.00256452816797664,859.0,6.906348433331093,0.6158818912547057,9.009586173130339,-0.03847247086768017,0.235,0.999999999997709,23082.10965129777,1.06298222990983,214,2026-10-08 00:31:53.337244,25.0,0.1639791374176496,0.22392506243970778,0.06953621910618929
0229,cdot_cos,P,T-P,215,43,37672,0.05155611331023098,0.006568729640764439,0.29351492495336157,0.9993499903472723,861.0,6.995252201187801,0.6170555334803084,9.047821269894538,-0.21066350308822765,0.419,0.9999999999977005,-146.715096359221,1.0679499511615977,215,2026-10-08 00:31:53.756243,25.0,0.4415894082608408,0.13861397927176417,0.21218083020694076
0229,cdot_cos,Q,P-Q,216,43,37821,-0.017598990672023147,-0.022863814936391755,-0.06915510398225413,0.1507312033760689,861.0,7.0225069479608315,0.6172324350434966,9.071438673769116,-0.06511019864867498,0.149,0.9999999999976378,822.792641378346,1.0729172571857628,216,2026-10-08 00:31:53.905244,25.0,0.10693954169359031,0.3077843399422287,0.18291776357738385
0229,cdot_cos,R,Q-R,217,43,37865,0.00877410341071916,0.04492443550048659,0.026373094082742306,0.6591092712411979,861.0,7.0869719344905855,0.6180056153501502,9.103802906290928,-0.15489184570053866,0.044,0.9999999999976076,-116.11993512928929,1.077884400032237,217,2026-10-08 00:31:53.949243,25.0,0.5600994686557634,1.2899567837486179,1.465113330221681
0229,cdot_cos,S,R-S,218,43,37883,0.0001695081953616016,-0.08911545902934269,-0.008604595215357558,0.4464277062838294,861.0,7.13602314493071,0.6185289666029512,9.132482483447836,-0.11874264243258247,0.018,0.9999999999975684,69.07254558861466,1.0828515027159447,218,2026-10-08 00:31:53.967244,25.0,0.7375412902745311,1.818197052483909,2.7250672466735777
0229,cdot_cos,T,S-T,219,43,38112,-0.2871959271051268,-0.05121862899907797,-0.2873654353004884,0.0007579492559976115,861.0,7.152427028380006,0.6185298549201708,9.153417693605894,-0.03989307955428701,0.229,0.9999999999975056,88762.84410798221,1.0878189417981257,219,2026-10-08 00:31:54.196243,25.0,0.13855023130688757,0.232248802890723,0.0716326788178879
0229,cdot_cos,P,T-P,220,44,38533,0.039860503525901765,0.0036840184777786433,0.32705643063102857,0.9997188695989792,878.0,7.242393096654661,0.6197008341927918,9.19166076184287,-0.2201591238793577,0.421,0.9999999999974968,-153.94469273703027,1.0927866923021865,220,2026-10-08 00:31:54.617243,25.0,0.4409609830625717,0.14162902167794877,0.21369612416782616
0229,cdot_cos,Q,P-Q,221,44,38680,-0.022464860788399914,-0.025185840334680264,-0.062325364314301676,0.17391455345387938,878.0,7.271678664632839,0.6199044000702116,9.215553924619089,-0.0722445114692378,0.147,0.9999999999974317,726.6179100588197,1.0977540023758858,221,2026-10-08 00:31:54.764243,25.0,0.1290679066339807,0.3318887213278038,0.19922155087195953
0229,cdot_cos,R,Q-R,222,44,38721,0.01155536851731117,0.04363692064353133,0.03402022930571108,0.7006732206751737,878.0,7.339968380725035,0.6207241058171883,9.248593528228582,-0.16945429790532848,0.041,0.9999999999974021,-118.59107587647505,1.1027211402985841,222,2026-10-08 00:31:54.805243,25.0,0.5634572909514424,1.3918618699653975,1.6656028315169817
0229,cdot_cos,S,R-S,223,44,38739,-0.005428708735347273,-0.09385599930376362,-0.016984077252658443,0.3954160744993489,878.0,7.385811337970002,0.6211863927347108,9.276303696352366,-0.11458894733492873,0.018,0.9999999999973569,118.68246426794387,1.1076882411497646,223,2026-10-08 00:31:54.823244,25.0,0.6195254985539209,1.739525886909584,2.546830958053686
0229,cdot_cos,T,S-T,224,44,38970,-0.23497881122935196,0.01976432051928799,-0.2295501024940047,0.003208453690799888,878.0,7.40259131265378,0.6211901428876173,9.297135413277617,-0.04212141314206123,0.231,0.9999999999972914,19323.887851715586,1.1126556966842929,224,2026-10-08 00:31:55.054244,25.0,0.17898665304595177,0.23317899059304825,0.07264058304666093
0229,cdot_cos,P,T-P,225,45,39411,0.04691820188038451,0.004435507272050247,0.28189701310973647,0.9991311104969703,898.0,7.49354003162399,0.6223572556737587,9.335371771427418,-0.22968635992332453,0.441,0.9999999999972817,-160.70850136205095,1.1176235076292782,225,2026-10-08 00:31:55.495244,25.0,0.4419257729761113,0.13510596393425373,0.20623292283494243
0229,cdot_cos,Q,P-Q,226,45,39559,-0.020900491972968924,-0.02282974161288503,-0.06781869385335343,0.15505818330839014,898.0,7.521754772843792,0.6225382567599355,9.358815625621096,-0.07181138408418217,0.148,0.9999999999972105,872.2322013301625,1.122590826523044,226,2026-10-08 00:31:55.643244,25.0,0.11097312250787729,0.32880975784649774,0.19064014337704166
0229,cdot_cos,R,Q-R,227,45,39599,0.013254875099877673,0.04351798411793563,0.034155367072846596,0.7013813019194727,898.0,7.590867719946553,0.6233565593061622,9.391827220813274,-0.17689290625702703,0.04,0.9999999999971793,-128.414023220857,1.1275579622963152,227,2026-10-08 00:31:55.683244,25.0,0.5520921324725339,1.4128292983735191,1.7278236775690292
0229,cdot_cos,S,R-S,228,45,39616,-0.009272045254957674,-0.09157347847843865,-0.022526920354835347,0.36281360504047716,898.0,7.634781116713674,0.623779578806335,9.418878776060334,-0.11318546112139012,0.017,0.9999999999971299,150.6016746499915,1.1325250593556178,228,2026-10-08 00:31:55.700243,25.0,0.5695783613710557,1.7945724969692116,2.5831409863011974
0229,cdot_cos,T,S-T,229,45,39849,-0.2208158503485743,0.037121518030745995,-0.21154380509361662,0.005023485452715141,898.0,7.6518831848435065,0.6237854345743115,9.43960019101147,-0.04425646587379248,0.233,0.9999999999970591,11771.128146701194,1.1374925313355075,229,2026-10-08 00:31:55.933243,25.0,0.21066421229557578,0.23397101355736882,0.07339943403361732
0229,cdot_cos,P,T-P,230,46,40309,0.04738845257444402,-0.0013425909927509399,0.26820430292301833,0.9987768569526073,879.0,7.7438116090314075,0.6249489665653579,9.477834312498914,-0.23929202405917302,0.46,0.9999999999970488,-167.62371785752845,1.1424604034506112,230,2026-10-08 00:31:56.393243,25.0,0.4426160972754489,0.12858033587513867,0.1998444004084805
0229,cdot_cos,Q,P-Q,231,46,40438,-0.029917385702946865,-0.0264499952883064,-0.07730583827739088,0.12645800184286504,879.0,7.770177093848634,0.6250961821107243,9.500654030552305,-0.069146519376867,0.129,0.9999999999969706,1155.7577310120612,1.147427695677638,231,2026-10-08 00:31:56.522244,25.0,0.08537928592727566,0.38879515335125236,0.2043836032343144
0229,cdot_cos,R,Q-R,232,46,40480,0.015162502908959116,0.038113242190822724,0.04507988861190598,0.7552843201877466,879.0,7.844120758596031,0.6259749606294667,9.534581275320516,-0.19499580254587667,0.042,0.9999999999969414,-143.20933032035052,1.1523948344646053,232,2026-10-08 00:31:56.564243,25.0,0.524455429585869,1.3561701307687295,1.7605634463665845
0229,cdot_cos,S,R-S,233,46,40498,-0.017875515772210946,-0.09908406251433188,-0.03303801868117006,0.30450200284382856,879.0,7.884095384833207,0.6263290162577971,9.560512263509606,-0.10614512897023867,0.018,0.9999999999968845,250.95116830824088,1.1573619311246375,233,2026-10-08 00:31:56.582243,25.0,0.4329782264541197,1.5979916851343283,2.220812568732041
0229,cdot_cos,T,S-T,234,46,40728,-0.20781708745776412,0.0434052618781353,-0.18994157168555317,0.008589916065870716,879.0,7.9016484592608665,0.6263390021074096,9.581159135902237,-0.046778899148339194,0.23,0.9999999999968093,5945.035437748418,1.1623294107662956,234,2026-10-08 00:31:56.812243,25.0,0.2810897182362399,0.2400939705820178,0.07631771490286554
0229,cdot_cos,P,T-P,235,47,41188,0.04965548842477137,0.0017700511439815514,0.25747257588253547,0.9984010603950182,879.0,7.994538611300936,0.6274989163636209,9.619391283321004,-0.24897017332381371,0.46,0.9999999999967987,-174.31570746953486,1.1672973121860608,235,2026-10-08 00:31:57.272243,25.0,0.4439202150033468,0.13137396761087822,0.20193511313058504
0229,cdot_cos,Q,P-Q,236,47,41317,-0.02167910952837887,-0.02119207859376581,-0.07133459795315024,0.14388812819830468,879.0,8.022512509462874,0.6276659609580808,9.642403156164722,-0.07553378059722181,0.129,0.9999999999967172,1038.2640233724792,1.1722646102011847,236,2026-10-08 00:31:57.401243,25.0,0.1006462472911942,0.3851937953762742,0.21685192373596004
0229,cdot_cos,R,Q-R,237,47,41364,0.01447796071109692,0.04067154068921177,0.03615707023947579,0.7117557832708047,879.0,8.093918610508014,0.6284918133508811,9.675524333005287,-0.1938279389337533,0.047,0.9999999999966831,-143.23886370955293,1.177231757799554,237,2026-10-08 00:31:57.448243,25.0,0.5431851777505423,1.2088418483048478,1.5192787456412742
0229,cdot_cos,S,R-S,238,47,41381,-0.01413420618407724,-0.09263875203366075,-0.02861216689517416,0.32842787309960164,879.0,8.13614364320353,0.6288726365829297,9.701790398014966,-0.11537722872673101,0.017,0.9999999999966238,206.00295256413153,1.1821988503893925,238,2026-10-08 00:31:57.465244,25.0,0.5066424839760942,1.7552610327596068,2.4838254526774004
0229,cdot_cos,T,S-T,239,47,41627,-0.22636770783960453,0.03298622838510577,-0.2122335016555273,0.0049380349578680175,879.0,8.153597485621841,0.6288783611809547,9.722239405842405,-0.047866612609277416,0.246,0.9999999999965439,11793.075395326463,1.187166373074551,239,2026-10-08 00:31:57.711244,25.0,0.24404796164095943,0.22636839425614652,0.07095057893622288
0229,cdot_cos,P,T-P,240,48,42067,0.052279818508907366,-0.004900649771293629,0.27864752634851186,0.9990576473173022,859.0,8.247516893177554,0.6300358090917426,9.760488991760829,-0.2589988012546556,0.44,0.9999999999965319,-182.41182750216532,1.1921342661540273,240,2026-10-08 00:31:58.151244,25.0,0.4425570180360243,0.13801976451679465,0.21345319899025741
0229,cdot_cos,Q,P-Q,241,48,42176,-0.022192359293167808,-0.016666442899562456,-0.07447217780207517,0.1344928677951613,859.0,8.27505487839662,0.6301915106545288,9.783219964008747,-0.07648980948304297,0.109,0.9999999999964454,1172.171868449425,1.197101531752557,241,2026-10-08 00:31:58.260243,25.0,0.0919917573846387,0.47066598316503466,0.2526420662299636
0229,cdot_cos,R,Q-R,242,48,42223,0.021651208289095124,0.04318567764859765,0.04384356758226293,0.7495266205719122,859.0,8.350122077507532,0.6310587362102316,9.816987040093458,-0.20959824115582887,0.047,0.9999999999964132,-153.48767203351733,1.2020686794341768,242,2026-10-08 00:31:58.307244,25.0,0.5299012341203289,1.18050146246484,1.5971744491683304
0229,cdot_cos,S,R-S,243,48,42240,-0.024223612563477697,-0.08925887814724245,-0.04587482085257282,0.24106115924914218,859.0,8.386022015868315,0.6313374719066718,9.841594220224879,-0.10087509061469664,0.017,0.9999999999963445,390.0582233623333,1.2070357699154264,243,2026-10-08 00:31:58.324243,25.0,0.34034353286785396,1.5676354693656167,2.1117610800460835
0229,cdot_cos,T,S-T,244,48,42486,-0.27091069619275226,0.062227317965003436,-0.24668708362927458,0.0020927588856819762,859.0,8.403421683465963,0.6313398913513717,9.861861373968935,-0.04904685609714908,0.246,0.9999999999962592,21421.541281467053,1.2120033066859421,244,2026-10-08 00:31:58.570244,25.0,0.3475980145507105,0.22830014062168563,0.07073035608799817
0229,cdot_cos,P,T-P,245,49,42926,0.04622558435840931,-0.0004100556562448126,0.31713628055116155,0.9996397698080843,879.0,8.498345685054185,0.6324948206914006,9.900127255944577,-0.26901264140515646,0.44,0.9999999999962476,-190.45821911710996,1.2169712276814006,245,2026-10-08 00:31:59.010243,25.0,0.44145541559035606,0.14129693172767768,0.2157363672459586
0229,cdot_cos,Q,P-Q,246,49,43055,-0.0215595885944735,-0.01936285578113452,-0.0677851729528828,0.15516800868837424,879.0,8.527762983386319,0.632673957482319,9.923121318132836,-0.08396420348525804,0.129,0.9999999999961581,1033.0007418977402,1.22193853735452,246,2026-10-08 00:31:59.139244,25.0,0.11037222271257859,0.40197305772891717,0.2280410723421285
0229,cdot_cos,R,Q-R,247,49,43097,0.018195679227410395,0.044924941888600294,0.03975526782188389,0.7298539477504786,879.0,8.602054733948245,0.6335160597974863,9.956504608793693,-0.21313266220694393,0.042,0.999999999996122,-153.38808170362736,1.2269056748751401,247,2026-10-08 00:31:59.181243,25.0,0.5455028625785869,1.3646755380478024,1.768851203855382
0229,cdot_cos,S,R-S,248,49,43115,-0.016973734846304222,-0.09066834046603706,-0.035169414073714614,0.2933362578462509,879.0,8.642395728582335,0.6338542805902699,9.981965413929496,-0.11646181736431493,0.018,0.9999999999960544,285.8217084969704,1.2318727651095551,248,2026-10-08 00:31:59.199244,25.0,0.436021069788614,1.6138960949838084,2.24116636856052
0229,cdot_cos,T,S-T,249,49,43365,-0.23293102812401603,0.04295352684048924,-0.21595729327771182,0.00450105463279443,879.0,8.660154993367662,0.6338594693422014,10.002151932034517,-0.051442306737828916,0.25,0.999999999995964,12530.857417249006,1.2368403245684831,249,2026-10-08 00:31:59.449243,25.0,0.2825412567934199,0.22719431333824147,0.07103705914131098
0229,cdot_cos,P,T-P,250,50,43805,0.04600452870034012,0.0021269033538857214,0.27893555682435617,0.9990644022763335,879.0,8.755992885251455,0.6350104062636204,10.040414688803912,-0.27905816652658566,0.44,0.9999999999959518,-197.7657120497356,1.2418082745473997,250,2026-10-08 00:31:59.889244,25.0,0.44234842994417795,0.1420647997592632,0.21781339064498406
0229,cdot_cos,Q,P-Q,251,50,43934,-0.023869763315460396,-0.025537514368817148,-0.06987429201580052,0.14844402289206365,879.0,8.785172017155814,0.635181284724547,10.063183374651803,-0.08555588686652484,0.129,0.9999999999958573,1132.3971354300659,1.2467755901771251,251,2026-10-08 00:32:00.018244,25.0,0.10417259389656679,0.39962778658471054,0.22619482096402024
0229,cdot_cos,R,Q-R,252,50,43988,0.013078547530412283,0.042270724162051056,0.036948310845872676,0.7157969868770945,879.0,8.85909685419031,0.6360047817986019,10.0962823689983,-0.21781820134161717,0.054,0.9999999999958186,-160.61054573496517,1.2517427520742406,252,2026-10-08 00:32:00.072243,25.0,0.5448666222521718,1.1095691213870975,1.3689784636017908
0229,cdot_cos,S,R-S,253,50,44006,-0.010143199343914378,-0.09987403427069166,-0.02322174687432666,0.35880750437448383,879.0,8.90500548226562,0.6364172768463086,10.122855984376042,-0.13612156551435944,0.018,0.9999999999957514,198.05482824935694,1.256709839977749,253,2026-10-08 00:32:00.090244,25.0,0.5487161053586078,1.777729811914893,2.5504793375172126
0229,cdot_cos,T,S-T,254,50,44245,-0.21180776301439186,0.025293286546459376,-0.20166456367047747,0.006421801445335286,879.0,8.923095127419247,0.6364246577020544,10.142959485479802,-0.05382958964351351,0.239,0.999999999995657,11149.38141387941,1.2616773917627948,254,2026-10-08 00:32:00.329243,25.0,0.2168065435828672,0.2402663559033402,0.07568889185617708
0229,cdot_cos,P,T-P,255,51,44684,0.051141536758573705,0.0033241183475396546,0.26294929977296555,0.9986053727378232,879.0,9.019852800387417,0.6375716148088376,10.181222086464105,-0.28938392700496407,0.439,0.999999999995644,-205.37327504956525,1.266645369706465,255,2026-10-08 00:32:00.768243,25.0,0.44308858702627646,0.14391834283612992,0.22040472202316694
0229,cdot_cos,Q,P-Q,256,51,44813,-0.01820399982070392,-0.020338487907176368,-0.06934553657927763,0.15012277807297322,879.0,9.049455432429369,0.6377439046756253,10.203923072918046,-0.08914113215395607,0.129,0.9999999999955451,1162.2435990262227,1.271612691601117,256,2026-10-08 00:32:00.897243,25.0,0.10578390765743402,0.3941915428041967,0.22947776776706816
0229,cdot_cos,R,Q-R,257,51,44870,0.012624603792775765,0.04367579418131211,0.030828603613479687,0.6836755618320317,879.0,9.1215542184309,0.6385280834644751,10.236404661860165,-0.21812508253552076,0.057,0.9999999999955009,-164.48283505697185,1.276579860429615,257,2026-10-08 00:32:00.954243,25.0,0.5535904044686097,1.0507310237971441,1.2648909824829995
0229,cdot_cos,S,R-S,258,51,44888,-0.00773052321344945,-0.09505098266391751,-0.020355127006225215,0.3754565442608248,879.0,9.169238769142243,0.638958420246252,10.263212755545242,-0.145139012777404,0.018,0.9999999999954321,169.60221121871518,1.2815469460489415,258,2026-10-08 00:32:00.972243,25.0,0.6047923522814005,1.8276066828960917,2.6491417061857487
0229,cdot_cos,T,S-T,259,51,45123,-0.22402089781643694,0.0254205088274535,-0.2162903746029875,0.004463896433988121,879.0,9.187348059015159,0.6389635352873212,10.283165738250423,-0.05531781601237126,0.235,0.9999999999953325,17560.210279991537,1.286514503837301,259,2026-10-08 00:32:01.207244,25.0,0.1971619141392861,0.24644610331376693,0.07706080796985457
0229,cdot_cos,P,T-P,260,52,45563,0.046254923598559004,0.002881307821153301,0.27027582141499595,0.9988385170595286,879.0,9.285068437699714,0.6401072790711844,10.321440926786488,-0.2999705756604214,0.44,0.9999999999953193,-213.90521469913273,1.2914825141557484,260,2026-10-08 00:32:01.647244,25.0,0.4423786042997058,0.14535251735483332,0.22209176973762415
0229,cdot_cos,Q,P-Q,261,52,45692,-0.021926452375187252,-0.024087744217006813,-0.06818137597374625,0.1538739739138855,879.0,9.315258274287412,0.6402833351430801,10.344115809157856,-0.09329499382326012,0.129,0.9999999999952153,1173.9190793689054,1.2964498423342228,261,2026-10-08 00:32:01.776243,25.0,0.10912172984448185,0.40090870905971404,0.23402974098991233
0229,cdot_cos,R,Q-R,262,52,45748,0.00993771909875355,0.0366473859511804,0.0318641714739408,0.6892476369700121,879.0,9.38850288463712,0.6410714792332562,10.376670543217156,-0.22738564171996478,0.056,0.9999999999951702,-170.13468675091886,1.3014170096737891,262,2026-10-08 00:32:01.832243,25.0,0.5544903524609778,1.0953426748323083,1.3079394705304916
0229,cdot_cos,S,R-S,263,52,45766,-0.0077088823143157,-0.0955801278041727,-0.01764660141306925,0.3914633996965189,879.0,9.437936653868631,0.6415187730272965,10.403708386068926,-0.15438737503211403,0.018,0.9999999999950996,163.19982002986364,1.3063840930259198,263,2026-10-08 00:32:01.850244,25.0,0.6232389020622069,1.87989865853597,2.746320512861722
0229,cdot_cos,T,S-T,264,52,46003,-0.22914145017572246,0.023876615190015334,-0.22143256786140675,0.003927510791149421,879.0,9.456179236344415,0.6415232594326462,10.42354137967044,-0.05717824391648647,0.237,0.9999999999949944,21667.48733990579,1.311351670125875,264,2026-10-08 00:32:02.087244,25.0,0.18266398311913912,0.24667717268663142,0.07697292183875072
0229,cdot_cos,P,T-P,265,53,46442,0.05236401488181211,0.0034414799780832298,0.2815054650575346,0.99912257093252,899.0,9.554861633722094,0.6426637531148591,10.461830512635153,-0.3107780912154628,0.439,0.9999999999949807,-222.3597125123154,1.3163197091978471,265,2026-10-08 00:32:02.526243,25.0,0.4421899018883146,0.1462458212886456,0.22478906008583
0229,cdot_cos,Q,P-Q,266,53,46571,-0.018768881618561096,-0.018895583858178983,-0.0711328965003732,0.14451040579001992,899.0,9.584583067435846,0.6428285777195134,10.484240199979624,-0.09421394844390116,0.129,0.9999999999948711,1313.9066417044155,1.3212870438191706,266,2026-10-08 00:32:02.655244,25.0,0.10039508357335848,0.405537581795438,0.2303987109593137
0229,cdot_cos,R,Q-R,267,53,46625,0.015340751735685007,0.045120339084692394,0.034109633354246105,0.7011417786754156,899.0,9.659490329825317,0.6436278004840338,10.51698848194319,-0.23850829554459269,0.054,0.999999999994825,-180.54333973743073,1.3262542072420425,267,2026-10-08 00:32:02.709243,25.0,0.5460816884325923,1.1143619159204607,1.3871715257309545
0229,cdot_cos,S,R-S,268,53,46643,-0.011796624729821228,-0.08621194225966565,-0.027137376465506236,0.33661081522228103,899.0,9.704934154355255,0.6440112152463059,10.542941588388203,-0.14553025276375342,0.018,0.9999999999947453,242.49990331580867,1.3312212882887913,268,2026-10-08 00:32:02.727243,25.0,0.5278772470706008,1.768919391455083,2.5246569183299017
0229,cdot_cos,T,S-T,269,53,46881,-0.2641164104247466,0.05023955115047766,-0.25231978569492536,0.001818370210488472,899.0,9.7231714279177,0.644013285950314,10.562626851384808,-0.05859539971817425,0.238,0.9999999999946348,41983.235027027455,1.336188882425901,269,2026-10-08 00:32:02.965244,25.0,0.2268091449486418,0.247651365663388,0.07662719984220485
0229,cdot_cos,P,T-P,270,54,47341,0.05032809090941507,0.006040957019659487,0.3144445013341617,0.9996147036979258,919.0,9.822816204411028,0.645150799190386,10.600933382899626,-0.3216333778416264,0.46,0.9999999999946206,-231.2394870294578,1.3411570013187781,270,2026-10-08 00:32:03.425244,25.0,0.44139315976163246,0.14139751412280194,0.21661907933332156
0229,cdot_cos,Q,P-Q,271,54,47490,-0.019062655420690515,-0.021634912232990154,-0.06939074633010558,0.14997863188829688,919.0,9.853257140910678,0.6453213265291411,10.623354667593604,-0.09888985548463124,0.149,0.9999999999945058,1306.2041780694778,1.346124389434817,271,2026-10-08 00:32:03.574244,25.0,0.10514230412440805,0.3522629289319842,0.20430158724597217
0229,cdot_cos,R,Q-R,272,54,47534,0.012588529213101857,0.042819647263587744,0.03165118463379237,0.6881060228577683,919.0,9.92779055723276,0.6461032367777396,10.65583268774799,-0.24317713006520808,0.044,0.9999999999944548,-184.53176031289144,1.3510915291130685,272,2026-10-08 00:32:03.618243,25.0,0.5524776563875394,1.4013361120250665,1.6939412800473055
0229,cdot_cos,S,R-S,273,54,47552,-0.008313486409522059,-0.08995783707297819,-0.020902015622623914,0.3722560607214361,919.0,9.976574718768884,0.6465259145266538,10.68238641235147,-0.16007175507224614,0.018,0.9999999999943748,196.61639441976953,1.356058607543071,273,2026-10-08 00:32:03.636243,25.0,0.5950107779685265,1.8765439084671187,2.710231196451357
0229,cdot_cos,T,S-T,274,54,47800,-0.21088491449476954,0.03464005564255295,-0.20257142808524747,0.006278750727000987,919.0,9.995346137937576,0.6465330417654218,10.702051261137349,-0.061801783954990155,0.248,0.9999999999942585,13787.944295859792,1.361026240716459,274,2026-10-08 00:32:03.884243,25.0,0.20390866984741468,0.24041838809321736,0.07569120632537037
0229,cdot_cos,P,T-P,275,55,48260,0.05045887080885014,0.00536109942332259,0.2613437853036197,0.9985483397064522,899.0,10.09582223926312,0.64766569966544,10.740346164344793,-0.33229026893696256,0.46,0.9999999999942427,-238.80863319598745,1.3659943923153133,275,2026-10-08 00:32:04.344243,25.0,0.4430765796672507,0.14203567021566196,0.2184263072294434
0229,cdot_cos,Q,P-Q,276,55,48409,-0.020955276707266445,-0.02418550318602703,-0.07141414751611659,0.14364332015550965,899.0,10.126018954535985,0.64782849877254,10.762561837329901,-0.10049370260891807,0.149,0.9999999999941208,1423.8196416249525,1.370961788191959,276,2026-10-08 00:32:04.493243,25.0,0.0996015026774376,0.35532905027482725,0.20266251860983256
0229,cdot_cos,R,Q-R,277,55,48452,0.011777276126284734,0.043777401149290726,0.03273255283355118,0.6938782938919004,899.0,10.201710296245018,0.6486144262018757,10.79512223708243,-0.2529586037613898,0.043,0.9999999999940677,-193.9936124653928,1.3759289247626745,277,2026-10-08 00:32:04.536243,25.0,0.5473172369340508,1.4694395245869993,1.760263760675197
0229,cdot_cos,S,R-S,278,55,48469,-0.006149537945850023,-0.09220107790585556,-0.017926814072134756,0.3897958692599558,899.0,10.252390753650467,0.6490555791802259,10.821945932961913,-0.17032763424454836,0.017,0.9999999999939854,187.30683815363508,1.3808959980077269,278,2026-10-08 00:32:04.553244,25.0,0.615617434877531,2.04846855719525,2.981203376791086
0229,cdot_cos,T,S-T,279,55,48719,-0.20692237262503593,0.021793949182235078,-0.2007728346791859,0.006565621304512259,899.0,10.271358227189657,0.6490630076691998,10.84151641321096,-0.06396268791135978,0.25,0.9999999999938624,14318.517091133615,1.3858636521912073,279,2026-10-08 00:32:04.803244,25.0,0.18958424811923935,0.24070411509966405,0.07586989415676015
0229,cdot_cos,P,T-P,280,56,49159,0.05314643149303783,0.0042484565260518985,0.26006880411807376,0.9985013938453956,879.0,10.372742811200299,0.6501918918040224,10.879818530629684,-0.34338640687474176,0.44,0.9999999999938456,-247.52205327723365,1.3908317869573052,280,2026-10-08 00:32:05.243244,25.0,0.443201967948638,0.14921581887952834,0.23041950911509543
0229,cdot_cos,Q,P-Q,281,56,49288,-0.02043821076367057,-0.021601289214872595,-0.0735846422567084,0.1370967072336334,879.0,10.402668147803642,0.6503467593964242,10.901826376136919,-0.10198008763619384,0.129,0.9999999999937178,1558.7917103549312,1.3957991403678485,281,2026-10-08 00:32:05.372243,25.0,0.09374370704912023,0.4134100150734248,0.23197935351428647
0229,cdot_cos,R,Q-R,282,56,49340,0.013114575228065063,0.042347751781285935,0.03355278599173563,0.6982165623861517,879.0,10.479402595089242,0.651134988365117,10.93444418773851,-0.26256460602936943,0.052,0.9999999999936637,-203.72826268931763,1.4007662995079686,282,2026-10-08 00:32:05.424243,25.0,0.5424821917577939,1.2045520929040432,1.4756624478000124
0229,cdot_cos,S,R-S,283,56,49358,-0.010122158454602237,-0.09156711894379467,-0.0232367336826673,0.35872131055387874,879.0,10.527941565465662,0.6515396342308364,10.960621540511424,-0.1669936190107093,0.018,0.9999999999935737,236.1842665777494,1.4057333727649513,283,2026-10-08 00:32:05.442244,25.0,0.5642244042040251,1.8734116826113973,2.6966094653566586
0229,cdot_cos,T,S-T,284,56,49598,-0.23265072862520128,0.028495869684474213,-0.22252857017059904,0.003821763402205068,879.0,10.546845415663253,0.6515439440922999,10.980042090916877,-0.06524537274093477,0.24,0.9999999999934444,23608.240573779363,1.4107010175408308,284,2026-10-08 00:32:05.682244,25.0,0.21024732833968843,0.2525809226384309,0.07876604248996019
0229,cdot_cos,P,T-P,285,57,50038,0.04860332457239756,0.004734631555619737,0.28125405319759883,0.9991170435476627,899.0,10.649180408332109,0.6526698114844186,11.018363394547329,-0.35469771023584323,0.44,0.9999999999934274,-257.09274424423876,1.415669184176551,285,2026-10-08 00:32:06.122243,25.0,0.4421732154594772,0.1517382451256271,0.2325795287928554
0229,cdot_cos,Q,P-Q,286,57,50167,-0.0210652989103401,-0.022134550068313708,-0.06966862348273767,0.14909515417144562,899.0,10.680375071373804,0.6528376752651941,11.040516655121436,-0.10877874143462593,0.129,0.9999999999932959,1464.9912426917292,1.4206365442086593,286,2026-10-08 00:32:06.251244,25.0,0.10427471565144043,0.4241704907662891,0.24181909334647667
0229,cdot_cos,R,Q-R,287,57,50224,0.01437954115460144,0.045451039368503775,0.035444840064941543,0.7080890353256661,899.0,10.758616394949811,0.653634381761981,11.07329863952565,-0.2739390542627957,0.057,0.999999999993241,-207.30383584703273,1.425603716856428,287,2026-10-08 00:32:06.308243,25.0,0.5472174797501098,1.110825921089324,1.3726547995790719
0229,cdot_cos,S,R-S,288,57,50242,-0.010043596152352697,-0.08816821976734084,-0.024423137306954137,0.3519272609005963,899.0,10.807009226377987,0.6540300328616473,11.099287758528392,-0.17034252771025418,0.018,0.9999999999931459,261.838085727323,1.4305707876478704,288,2026-10-08 00:32:06.326244,25.0,0.5443483117870582,1.870659365891826,2.688490634898659
0229,cdot_cos,T,S-T,289,57,50477,-0.2507259047432454,0.03764256346089398,-0.2406823085908927,0.002430905203120774,899.0,10.825960132121917,0.6540327650450065,11.118587042298378,-0.06691525155774306,0.235,0.999999999993011,37855.173886266195,1.4355384349779297,289,2026-10-08 00:32:06.561243,25.0,0.21317416326468638,0.25999800283020846,0.08064215210182928
0229,cdot_cos,P,T-P,290,58,50937,0.042729972830182074,0.0047938507343630995,0.2934558775734275,0.9993490307296143,919.0,10.929208287708185,0.6551551074676354,11.1569199458494,-0.366063433760055,0.46,0.9999999999929943,-266.5391382975741,1.4405066875310923,290,2026-10-08 00:32:07.021244,25.0,0.44166521081363463,0.14804263076132135,0.22445251214406106
0229,cdot_cos,Q,P-Q,291,58,51086,-0.021656698949615926,-0.02260868235687042,-0.064386671779798,0.1666348799168264,919.0,10.962159352422333,0.6553420829156701,11.179329992979437,-0.1175283753190224,0.149,0.9999999999928585,1329.239004657499,1.445474108034521,291,2026-10-08 00:32:07.170244,25.0,0.12067174055002408,0.3759970705810962,0.22114808532984934
0229,cdot_cos,R,Q-R,292,58,51125,0.014186185504856324,0.04253961848710576,0.03584288445447225,0.7101416519674263,919.0,11.041255414741352,0.6561383696497401,11.212129156191022,-0.28324861332139273,0.039,0.9999999999927999,-208.11628639764496,1.4504412323117055,292,2026-10-08 00:32:07.209243,25.0,0.557066921215216,1.6307742972153223,2.028104162026131
0229,cdot_cos,S,R-S,293,58,51142,-0.011705223892645401,-0.08781977834017271,-0.025891409397501723,0.34360156392735597,919.0,11.089359747605128,0.656523337974441,11.23790116245488,-0.17316852076622646,0.017,0.9999999999927002,285.94584409176827,1.455408297729206,293,2026-10-08 00:32:07.226244,25.0,0.5295742538253985,1.9905524337028626,2.829666639045648
0229,cdot_cos,T,S-T,294,58,51377,-0.2053720585662552,0.04779877656448228,-0.19366683467360982,0.00783202856279182,919.0,11.10893419748725,0.6565321105184446,11.25721248358603,-0.07067987651588463,0.235,0.9999999999925598,11682.887450609105,1.460375960601748,294,2026-10-08 00:32:07.461244,25.0,0.23456091838856002,0.2630096017544237,0.08329553141328219
0229,cdot_cos,P,T-P,295,59,51856,0.04772039039529914,0.003786916636867825,0.25309244896155436,0.998216355366723,879.0,11.212974260429707,0.6576493222873423,11.295530308835177,-0.3771734421848505,0.479,0.999999999992542,-274.337931448194,1.4653443000840274,295,2026-10-08 00:32:07.940243,25.0,0.4437000830101082,0.14172849637197552,0.21720263662308523
0229,cdot_cos,Q,P-Q,296,59,51984,-0.0219452982908005,-0.022276633107860794,-0.06966568868609964,0.1491044625433822,879.0,11.244710097011602,0.6578160516233285,11.317528652043595,-0.11572390844517601,0.128,0.9999999999923969,1568.107569032586,1.4703116703674435,296,2026-10-08 00:32:08.068243,25.0,0.10442851204476883,0.43665880357417197,0.24793622329605247
0229,cdot_cos,R,Q-R,297,59,52037,0.014534941336331661,0.04527476544583246,0.03648023962713216,0.7134104750373702,879.0,11.324758914144695,0.6586132508261591,11.350368828638386,-0.29301983267262477,0.053,0.9999999999923367,-222.39852172195467,1.475278832880337,297,2026-10-08 00:32:08.121243,25.0,0.5460391581182481,1.2172586794754234,1.5103550402470436
0229,cdot_cos,S,R-S,298,59,52054,-0.010390494124034186,-0.09009887401605095,-0.024925435460365845,0.3490685793937966,879.0,11.373739517035997,0.6590029907424081,11.376189090672032,-0.1802200147810416,0.017,0.9999999999922322,289.42331331418114,1.4802458954322988,298,2026-10-08 00:32:08.138243,25.0,0.5347795816388096,2.0134493552051533,2.881211934782445
0229,cdot_cos,T,S-T,299,59,52295,-0.22403340918173395,0.028349333674212426,-0.21364291505769978,0.004767886445243565,879.0,11.39321619222167,0.65900831266751,11.395352624583643,-0.07187849695645761,0.241,0.9999999999920842,20357.580339687254,1.4852135907333157,299,2026-10-08 00:32:08.379244,25.0,0.22151013961519445,0.2581904596569469,0.08081607960860433
0229,cdot_cos,P,T-P,300,60,52735,0.045893533218089255,-0.0003150992016926138,0.2699269423998232,0.9988283542477174,899.0,11.498187318590645,0.6601223217085622,11.433688137991199,-0.38889546777209727,0.44,0.9999999999920659,-284.5730682007887,1.4901818554424748,300,2026-10-08 00:32:08.819244,25.0,0.44256288749385847,0.15481364915606236,0.23857074174766993
0229,cdot_cos,Q,P-Q,301,60,52864,-0.026533369475649226,-0.022418364926845732,-0.07242690269373848,0.1405568595331351,899.0,11.529452203479005,0.6602789452629723,11.455446740687801,-0.11649310580051314,0.129,0.9999999999919147,1739.2170864570924,1.4951492353583313,301,2026-10-08 00:32:08.948243,25.0,0.09648612360561848,0.44566257541439397,0.24236344874697752
0229,cdot_cos,R,Q-R,302,60,52904,0.017014907481363764,0.0384176642266254,0.043548276957012994,0.7481381487549384,899.0,11.613168263047559,0.6611120107713901,11.48893724988686,-0.3131093930021254,0.04,0.999999999991858,-236.01539760662493,1.50011636088989,302,2026-10-08 00:32:08.988243,25.0,0.5336860228799863,1.5910753633308294,2.0929014892138387
0229,cdot_cos,S,R-S,303,60,52922,-0.02042154349401397,-0.08916285197182262,-0.03743645097537773,0.28172698549180425,899.0,11.656738232545472,0.6614254607415506,11.513399109652802,-0.1637800233579549,0.018,0.9999999999917408,476.4057548568921,1.5050834238633866,303,2026-10-08 00:32:09.006243,25.0,0.4018132259919469,1.7512509226333468,2.420553860995156
0229,cdot_cos,T,S-T,304,60,53155,-0.25331094237942153,0.026910639810119052,-0.23288939888540755,0.0029522385168878084,899.0,11.67621329626236,0.6614287446584096,11.532439655163458,-0.0734051011057327,0.233,0.9999999999915867,27520.465996143434,1.5100511120978757,304,2026-10-08 00:32:09.239244,25.0,0.29194775704248094,0.26901344640615865,0.0835839644501617
0229,cdot_cos,P,T-P,305,61,53634,0.04273808946271897,0.0008678110055249762,0.2960490318421405,0.9993898685387199,939.0,11.782098498570742,0.6625395190324403,11.570791186156416,-0.40059932510441876,0.479,0.9999999999915689,-294.56407318020604,1.5150195238561024,305,2026-10-08 00:32:09.718244,25.0,0.4418601739971175,0.1455231208855703,0.22105470210518222
0229,cdot_cos,Q,P-Q,306,61,53763,-0.022506876324405387,-0.01905217768210933,-0.06524496578712435,0.16367642286319903,939.0,11.815624446070736,0.6627212671656593,11.59292459294813,-0.12756014293747814,0.129,0.9999999999914138,1502.2942867757665,1.5199869103668626,306,2026-10-08 00:32:09.847244,25.0,0.11759907606565485,0.4542395130422393,0.2598910658914267
0229,cdot_cos,R,Q-R,307,61,53808,0.01926699403694295,0.0409127965019453,0.04177387036134834,0.7396878449889254,939.0,11.89929229293564,0.6635420245978588,11.626232837065036,-0.31953832690843414,0.045,0.9999999999913536,-233.90368023408695,1.524954049841468,307,2026-10-08 00:32:09.892244,25.0,0.5483735223268765,1.3993610923240931,1.859285485886749
0229,cdot_cos,S,R-S,308,61,53825,-0.021988325593640418,-0.08463835640489609,-0.04125531963058337,0.2628160704246729,939.0,11.941566944379904,0.6638334080884134,11.650266417055391,-0.16224054693292722,0.017,0.9999999999912277,539.8307902624479,1.5299211070369219,308,2026-10-08 00:32:09.909244,25.0,0.3792596067957756,1.8417778708044434,2.4867442026038042
0229,cdot_cos,T,S-T,309,61,54074,-0.20128341522815169,0.07629565101354956,-0.17929508963451127,0.011180095122619933,939.0,11.96191274054299,0.6638458006686108,11.669381626400334,-0.07828635041757623,0.249,0.9999999999910684,6774.553416504821,1.534888858394615,309,2026-10-08 00:32:10.158243,25.0,0.342186658522462,0.25488829014315845,0.08171002475135103
0229,cdot_cos,P,T-P,310,62,54573,0.039955875820425014,0.0009864563373922599,0.2412392910485767,0.9976026289206152,959.0,12.068501312871197,0.6649506842674637,11.707702841806627,-0.4116361241094908,0.499,0.9999999999910482,-301.7057851505631,1.5398573663677655,310,2026-10-08 00:32:10.657243,25.0,0.4449396528610655,0.14209603649342856,0.2136043533631393
0229,cdot_cos,Q,P-Q,311,62,54703,-0.02069571723633766,-0.017279544082908254,-0.060651593056762675,0.18000851120832326,959.0,12.103724584963432,0.6651498587374908,11.730084724456022,-0.13679185318495762,0.13,0.9999999999908882,1379.9171695409466,1.5448247621706441,311,2026-10-08 00:32:10.787244,25.0,0.134093869990194,0.45804354107678963,0.2709482468633476
0229,cdot_cos,R,Q-R,312,62,54749,0.019961214350509012,0.04093139234928666,0.040656931586846676,0.7342753143779324,959.0,12.187592633551162,0.6659617043644894,11.76326848139637,-0.32691628092195424,0.046,0.9999999999908228,-234.1879064371829,1.5497919038328356,312,2026-10-08 00:32:10.833244,25.0,0.5590204839376558,1.3709516084052122,1.8232184475593503
0229,cdot_cos,S,R-S,313,62,54766,-0.022125070763734617,-0.07904614731867855,-0.04208628511424363,0.2588110882521104,959.0,12.229852132936712,0.6662476228410298,11.787163189814207,-0.16551157242393144,0.017,0.9999999999906904,564.5130403989114,1.5547589577772596,313,2026-10-08 00:32:10.850244,25.0,0.37712188278722714,1.858714904551133,2.4858529050323175
0229,cdot_cos,T,S-T,314,62,55013,-0.18665777630738262,0.07855322647721669,-0.164532705543648,0.016090298100322656,959.0,12.2507889403059,0.6662653943741121,11.806292341228499,-0.08221029142107092,0.247,0.9999999999905236,4687.343552007056,1.5597267195315347,314,2026-10-08 00:32:11.097243,25.0,0.36302966806526094,0.2597436938136117,0.08476440230440942
0229,cdot_cos,P,T-P,315,63,55532,0.04386233906720298,9.269090096479823e-05,0.2305201153745856,0.9968681757696926,899.0,12.358165517680636,0.667365500240678,11.844602665763484,-0.42313319303655017,0.519,0.9999999999905022,-309.90008505247465,1.5646953274644677,315,2026-10-08 00:32:11.616243,25.0,0.44677033580201164,0.13487745253950476,0.20689128588580935
0229,cdot_cos,Q,P-Q,316,63,55661,-0.026326829400672262,-0.022176763531474828,-0.07018916846787523,0.14745169851920836,899.0,12.390791736041907,0.6675280678820013,11.866279903101084,-0.12926831734350458,0.129,0.9999999999903282,1807.6467942884112,1.569662726278052,316,2026-10-08 00:32:11.745243,25.0,0.1029724411996726,0.45705317405413337,0.25291642140520065
0229,cdot_cos,R,Q-R,317,63,55701,0.016121940462536642,0.03763994323005659,0.042448769863208904,0.7429234759552902,899.0,12.476085236586602,0.6683465444285777,11.899613574285897,-0.3391304384894108,0.04,0.9999999999902606,-256.4057846541054,1.5746298481208478,317,2026-10-08 00:32:11.785243,25.0,0.5385773264888712,1.6313338506274588,2.1323375136173883
0229,cdot_cos,S,R-S,318,63,55719,-0.019994071104755592,-0.08940615345806793,-0.03611601156729223,0.2884548518987574,899.0,12.521298444092103,0.6686640605642711,11.924029988036448,-0.1806259190739068,0.018,0.9999999999901273,499.2014628464422,1.5795969018417846,318,2026-10-08 00:32:11.803244,25.0,0.4158090217870641,1.8325583629266915,2.511844861416732
0229,cdot_cos,T,S-T,319,63,55972,-0.19557690538557088,0.04884409198834093,-0.17558283428081528,0.012254027939950651,899.0,12.542057337651963,0.6686775457666695,11.943004520001042,-0.08314870564875422,0.253,0.9999999999899508,7228.457574847952,1.584564699006814,319,2026-10-08 00:32:12.056243,25.0,0.3096465223925105,0.2550471622841092,0.08205096268719254
0229,cdot_cos,P,T-P,320,64,56431,0.047068899085465896,0.0013267831612940736,0.24264580447103679,0.9976852706835493,919.0,12.650352308207863,0.6697745389754953,11.981333454082638,-0.4352717075974858,0.459,0.9999999999899273,-320.9892268390846,1.5895331559082546,320,2026-10-08 00:32:12.515244,25.0,0.4453152286201153,0.15359940186354717,0.23593675502374625
0229,cdot_cos,Q,P-Q,321,64,56561,-0.023728233229193818,-0.020185271116666223,-0.07079713231465971,0.14555124478000486,919.0,12.6830615885627,0.6699344241980651,12.002905444498655,-0.13217250914988615,0.13,0.9999999999897481,1895.7299090929785,1.594500564723382,321,2026-10-08 00:32:12.645243,25.0,0.10094201029134281,0.4562527648675135,0.2516098488833598
0229,cdot_cos,R,Q-R,322,64,56603,0.01861902300382637,0.041926632184188906,0.042347256233020186,0.7424384796156909,919.0,12.768978027073416,0.6707493666877068,12.03621082939593,-0.3483605980281784,0.042,0.9999999999896784,-265.280178204178,1.59946769211085,322,2026-10-08 00:32:12.687244,25.0,0.5376287099085513,1.5559198132641843,2.0456294883503983
0229,cdot_cos,S,R-S,323,64,56621,-0.019219653706287726,-0.07969076246567376,-0.037838676710114094,0.2796966302469682,919.0,12.81375885287689,0.6710561117479528,12.060398959805939,-0.18241619304206197,0.018,0.9999999999895374,540.984767132189,1.6044347430133394,323,2026-10-08 00:32:12.705244,25.0,0.40264412935793986,1.8058232348481007,2.4878236557485978
0229,cdot_cos,T,S-T,324,64,56871,-0.23452931657037587,0.07258199209030923,-0.21530966286408815,0.004574187222001117,919.0,12.833987663527948,0.6710611270771071,12.079144073888212,-0.08261166098316818,0.25,0.9999999999893532,19899.896694334613,1.6094025478806693,324,2026-10-08 00:32:12.955244,25.0,0.2987593861278006,0.258963583595083,0.08091524260422744
0229,cdot_cos,P,T-P,325,65,57350,0.04314219294291596,-8.041744060843956e-05,0.27767150951329184,0.9990343931664087,939.0,12.943240644674432,0.6721555744046043,12.117501328933729,-0.4476620682520003,0.479,0.9999999999893299,-333.54771682218563,1.6143711054460785,325,2026-10-08 00:32:13.434243,25.0,0.44243586180136496,0.14993570030558204,0.22808555562940425
0229,cdot_cos,Q,P-Q,326,65,57479,-0.022748045707405462,-0.01901373094360804,-0.06589023865032143,0.16148015853847514,939.0,12.977626064420695,0.6723323015739696,12.139321486196827,-0.14163979003801583,0.129,0.9999999999891458,1731.6085540947802,1.6193385176670048,326,2026-10-08 00:32:13.563244,25.0,0.11525973234991842,0.46914902963540167,0.266553641443899
0229,cdot_cos,R,Q-R,327,65,57521,0.019780729577046584,0.04003908777776338,0.04252877528445205,0.743305292565488,939.0,13.064281094320366,0.6731451594803965,12.172625034384764,-0.3581569753975744,0.042,0.9999999999890736,-266.3653556761226,1.6243056441407746,327,2026-10-08 00:32:13.605243,25.0,0.5463303044676898,1.539938796565829,2.0632149976112064
0229,cdot_cos,S,R-S,328,65,57539,-0.0235742877226707,-0.08404179596012791,-0.04335501729971729,0.2527733278750923,939.0,13.106980923332225,0.6734213488565255,12.196225371466321,-0.17728381480401778,0.018,0.9999999999889221,654.8881898669158,1.6292726920343024,328,2026-10-08 00:32:13.623244,25.0,0.3605061274457832,1.76769324434995,2.372212722881055
0229,cdot_cos,T,S-T,329,65,57789,-0.20428773932365699,0.08032368835490482,-0.18071345160098629,0.010794810311827397,939.0,13.127918051116964,0.673433140984471,12.215016833186501,-0.08713799373574783,0.25,0.9999999999887317,7644.576236323952,1.6342405139646694,329,2026-10-08 00:32:13.873244,25.0,0.355397649204024,0.26184955070773697,0.08374851113895687
0229,cdot_cos,P,T-P,330,66,58289,0.0434591548103566,0.0001416118407208583,0.24774689413401357,0.9979618496702581,959.0,13.237905698686093,0.6745223543759667,12.253353692201859,-0.4592465075767138,0.5,0.9999999999887071,-341.6304984370311,1.639209179020754,330,2026-10-08 00:32:14.373244,25.0,0.4447429618191337,0.1450590772621716,0.21997529513825853
0229,cdot_cos,Q,P-Q,331,66,58419,-0.021041801809856535,-0.016917970642278655,-0.06450095662021313,0.1662384959142191,959.0,13.272977128379136,0.6747036106477666,12.275204379696925,-0.14720199553436808,0.13,0.9999999999885154,1721.5653226436614,1.644176601014822,331,2026-10-08 00:32:14.503244,25.0,0.1200509706298073,0.46845491493318836,0.26978022840801796
0229,cdot_cos,R,Q-R,332,66,58461,0.0201489608447356,0.03914835709048445,0.041190762654592136,0.7368711220818983,959.0,13.359703976568722,0.6755064196753684,12.30836107253788,-0.3652137887333029,0.042,0.999999999988439,-271.5612128206893,1.6491437263124762,332,2026-10-08 00:32:14.545243,25.0,0.5504919526618832,1.5376109639404183,2.06492495689492
0229,cdot_cos,S,R-S,333,66,58478,-0.02458274175113512,-0.08109211909422895,-0.044731702595870726,0.24632813256131142,959.0,13.402136449350131,0.6757745604343707,12.331776897628698,-0.1794761790661315,0.017,0.9999999999882802,692.6869691809653,1.6541107675310298,333,2026-10-08 00:32:14.562243,25.0,0.35526643441717937,1.8778484431221227,2.496027810671088
0229,cdot_cos,T,S-T,334,66,58709,-0.19364385722378277,0.09471255593598277,-0.16906111547264766,0.014392827372521805,959.0,13.423550823634875,0.6757902241979655,12.350565371810502,-0.09079014048901132,0.231,0.9999999999880811,5661.860129596259,1.6590785414167937,334,2026-10-08 00:32:14.793243,25.0,0.3765047728421225,0.2861094573425806,0.0927029189815744
0229,cdot_cos,P,T-P,335,67,59248,0.045753242952829364,-0.008099576312392328,0.23939710017661214,0.9974899202156036,879.0,13.534319018642403,0.6768748353739169,12.3888925652858,-0.471110524063753,0.539,0.9999999999880569,-350.65135968301246,1.6640473797469428,335,2026-10-08 00:32:15.332243,25.0,0.44606756874440356,0.13264079767697629,0.20550685530153717
0229,cdot_cos,Q,P-Q,336,67,59355,-0.02955333553086995,-0.01826655270352507,-0.07530657848369932,0.13208312759285168,879.0,13.566537603530655,0.6770183124835313,12.410001190460296,-0.1377246298503782,0.107,0.999999999987849,2323.6173011110773,1.6690147282673555,336,2026-10-08 00:32:15.439244,25.0,0.08886205059118947,0.5772854552944694,0.30110826998366275
0229,cdot_cos,R,Q-R,337,67,59394,0.021130463599807928,0.03474991978204733,0.05068379913067787,0.7802450505427677,879.0,13.65785810607542,0.6778651839169483,12.44400134747535,-0.39160709753662004,0.039,0.9999999999877782,-299.78867826709563,1.6739818419497652,337,2026-10-08 00:32:15.478244,25.0,0.5229292203369451,1.6679978058697578,2.341551347301655
0229,cdot_cos,S,R-S,338,67,59411,-0.03358454519318257,-0.09107685973665439,-0.054715008792990495,0.20296335355592957,879.0,13.696641432388496,0.6780852875716313,12.466497093757008,-0.16704850090257264,0.017,0.9999999999876042,1020.2401998158792,1.678948879864644,338,2026-10-08 00:32:15.495244,25.0,0.26072949004879503,1.7713366454369708,2.2813721360633274
0229,cdot_cos,T,S-T,339,67,59648,-0.20652516628121614,0.0761688273642069,-0.17294062108803357,0.013079859412613751,879.0,13.718083552020277,0.6780994693186179,12.485186054783087,-0.09255739854505594,0.237,0.9999999999873972,5252.604099358725,1.6839166899148352,339,2026-10-08 00:32:15.732243,25.0,0.44717296620026403,0.2807638131118553,0.09047307861510735
