record_id,input,event,transition,event_index,k,peak,value_cos,value_sin,value_return,x_input,rr,knowledge,decision,decision_norm,entropy,delta_t,cosine_similarity,delta_h_over_delta_d,frobenius_norm,matrix_size,timestamp,scale,P,zdot,zdot_back
0936,cdot_cos,Q,P-Q,1,0,1353,-0.005661974889349484,-0.010532540864636893,-0.01336749865762395,0.32142229568863107,777.0,0.0015965500336190437,0.5003991374236223,0.5003991374236223,,,1.0,,0.004967141530112327,1,2026-10-07 22:46:17.437243,55.9,,,
0936,cdot_cos,R,Q-R,2,0,1379,0.07063728827703825,0.26885710440568905,0.07629926316638773,0.9861446117826389,777.0,0.009185133083581083,0.5016237117645812,0.709403056385403,-1.4754592750666416e-05,,1.0,,0.009934283060224654,2,2026-10-07 22:46:17.463244,55.9,,,
0936,cdot_cos,S,R-S,3,0,1407,0.001018329010244353,-0.022099596033853208,-0.06961895926679389,0.020002361448453326,777.0,0.011421531783483417,0.5016485501386742,0.868880776383447,-8.310684012990381e-06,0.028,1.0,0.2594335971252225,0.014901424594736534,3,2026-10-07 22:46:17.491244,55.9,0.46053037778783906,0.0715013205824476,0.07987138213936909
0936,cdot_cos,T,S-T,4,0,1618,-0.16858033214773807,-0.00026959393618870603,-0.16959866115798242,7.631496718353849e-05,777.0,0.013189207036198148,0.5016486449044546,1.0032972898094614,-7.845253180746095e-06,0.211,0.9999999999999999,4.911380775405005,0.0198685661616204,4,2026-10-07 22:46:17.702244,55.9,0.9423990953805093,0.03419717885376307,0.008377607832771236
0936,cdot_cos,P,T-P,5,1,1995,0.038105025536665026,-0.0024471741305359404,0.2066853576844031,0.9999903997468961,706.0,0.025852741259771432,0.5028903921431492,1.1244971020697687,-8.915720577979078e-05,0.377,1.0,-0.06548188718705947,0.024835707827413834,5,2026-10-07 22:46:18.079243,55.9,0.40171736259098917,0.020661961805802462,0.03359027645510155
0936,cdot_cos,Q,P-Q,6,1,2111,-0.020285222356153605,-0.02102738929287393,-0.05839024789281863,0.036826535817664145,706.0,0.028768326237773204,0.5029361212445088,1.231936870281533,-2.8718084125623014e-05,0.116,1.0,1.321677440781455,0.02980284941040301,6,2026-10-07 22:46:18.195244,55.9,0.12189848943829694,0.07900852346914733,0.025134353258635965
0936,cdot_cos,R,Q-R,7,1,2138,0.08707606705310639,0.2954702930563279,0.10736128940925999,0.9975310641882724,706.0,0.04418271870461361,0.5041747774692942,1.33392107852024,-0.00020277396973288783,0.027,1.0000000000000002,-0.14051992968220522,0.03476999093750338,7,2026-10-07 22:46:18.222244,55.9,0.4238507409520427,0.3438556809214572,0.570903424697793
0936,cdot_cos,S,R-S,8,1,2165,-0.0006893093242972638,-0.015652394539381637,-0.08776537637740366,0.007347033188550168,706.0,0.04733653300753189,0.5041839002702806,1.4260474194108101,-5.2047841156323914e-05,0.027,1.0000000000000002,16.521913478216977,0.03973713248264342,8,2026-10-07 22:46:18.249243,55.9,0.05524844468797361,0.11159947847237223,0.11680793714512143
0936,cdot_cos,T,S-T,9,1,2396,-0.17063577204825117,-0.03297505248763726,-0.16994646272395392,7.484568370046756e-05,706.0,0.05020909054212171,0.5041839932060487,1.5125519796466398,-5.052783212444018e-05,0.231,1.0,16.35547930862576,0.04470427436364919,9,2026-10-07 22:46:18.480243,55.9,0.9703653690467919,0.04609501700612423,0.012435314002553339
0936,cdot_cos,P,T-P,10,2,2701,0.04774653617581212,0.0027867847195887875,0.2183823082240633,0.9999950075112359,714.0,0.06863243086436129,0.50542565707801,1.5982962643175715,-0.0003947934947647328,0.305,0.9999999999999999,-0.27726156040643135,0.049671416505195416,10,2026-10-07 22:46:18.785243,55.9,0.4181084095462056,0.03623498639388527,0.06040439449914614
0936,cdot_cos,Q,P-Q,11,2,2831,-0.021838689813661518,-0.029742483977727493,-0.06958522598947364,0.020039358727515205,714.0,0.07231243224239173,0.50545053871711,1.6763897871207087,-9.35255290600639e-05,0.13,1.0,12.108043384690474,0.05463855830214069,11,2026-10-07 22:46:18.915244,55.9,0.03990563409345765,0.09141766927806896,0.02830770290792648
0936,cdot_cos,R,Q-R,12,2,2859,0.048353527837416616,0.2932859911086352,0.07019221765107814,0.9806162281849549,714.0,0.09240102487665922,0.5066680741785176,1.7551496942409106,-0.0005966036405685376,0.028,1.0,-0.41319380622135987,0.05960569981156577,12,2026-10-07 22:46:18.943244,55.9,0.4303154458273142,0.45474883860830095,0.7174497369381245
0936,cdot_cos,S,R-S,13,2,2885,0.006872994208849836,-0.027723538918145066,-0.04148053362856678,0.08958098852844337,714.0,0.09777836720445658,0.5067792944243794,1.8272187315331054,-0.00018438935528486983,0.026,1.0000000000000002,3.706288203999091,0.06457284134874014,13,2026-10-07 22:46:18.969243,55.9,0.1069317565488549,0.17441847587796436,0.20682085876143716
0936,cdot_cos,T,S-T,14,2,3100,-0.163234131861762,-0.04896570056398476,-0.17010712607061185,7.417654768800092e-05,714.0,0.10147078562231336,0.5067793865187984,1.896194835181119,-0.0001326514788047951,0.215,0.9999999999999999,561.7916596168986,0.0695399837779413,14,2026-10-07 22:46:19.184243,55.9,0.6770374807645511,0.06160797314551729,0.017174039152822233
0936,cdot_cos,P,T-P,15,3,3415,0.05393774184933763,0.002575259142359777,0.21717187371109964,0.9999946580140984,701.0,0.12426979565702902,0.5080208926196896,1.967556456880917,-0.000927894083315604,0.315,1.0000000000000002,-0.6405466746719377,0.07450712691580798,15,2026-10-07 22:46:19.499244,55.9,0.4244163790760702,0.04380820949073561,0.07237780963401795
0936,cdot_cos,Q,P-Q,16,3,3545,-0.004631693059946205,-0.010502678423391391,-0.05856943490928384,0.03647288888019891,701.0,0.1290699576014768,0.5080661723987756,2.0322646899738896,-0.00021924552802544885,0.13,1.0000000000000002,15.650441976420908,0.07947426906884134,16,2026-10-07 22:46:19.629244,55.9,0.039469999133171674,0.10902923524609297,0.036924322649598315
0936,cdot_cos,R,Q-R,17,3,3571,0.05036238508531002,0.29867142367827787,0.054994078145256226,0.9558145757119877,701.0,0.1526173968210132,0.5092527324005502,2.099702806268886,-0.0011957677517924175,0.026,0.9999999999999998,-0.8229859613559075,0.08444141053214627,17,2026-10-07 22:46:19.655244,55.9,0.4419101329921288,0.5624609883692515,0.9056707392129382
0936,cdot_cos,S,R-S,18,3,3595,0.001312215768961198,-0.015386992872062891,-0.04905016931634882,0.060545487167271386,701.0,0.15831792899667788,0.5093278909446866,2.1608952336585787,-0.0003195352990070723,0.024,1.0,11.658454309548194,0.08940855202866976,18,2026-10-07 22:46:19.679244,55.9,0.06442789261174008,0.2091646035000157,0.23752217398602854
0936,cdot_cos,T,S-T,19,3,3817,-0.17576056768920456,-0.060260870373756076,-0.17707278345816577,5.025407847421464e-05,701.0,0.16265729778901394,0.5093279533277472,2.2201090781370514,-0.0002510911745713027,0.222,1.0,1097.1588083487452,0.09437569535747727,19,2026-10-07 22:46:19.901243,55.9,0.7614073826938316,0.06932123608340476,0.01954670627178409
0936,cdot_cos,P,T-P,20,4,4116,0.06021919460290933,0.00737559867421372,0.2359797622921139,0.9999981331734092,702.0,0.1890965578177096,0.5105692441332744,2.2833350748573027,-0.00167640370857142,0.299,1.0,-1.1482502953002125,0.09934283970373207,20,2026-10-07 22:46:20.200243,55.9,0.42732076497265614,0.05304899068786994,0.08842561882506907
0936,cdot_cos,Q,P-Q,21,4,4249,-0.003914083365103575,-0.009911603407008664,-0.06413327796801291,0.026986788246733843,702.0,0.19438059422036016,0.5106027409106652,2.339875711192436,-0.00036525360579947645,0.133,0.9999999999999999,39.142574447619275,0.10430998238725482,21,2026-10-07 22:46:20.333244,55.9,0.027606669057788816,0.11406543671362158,0.03972959701241031
0936,cdot_cos,R,Q-R,22,4,4278,0.03159004760578479,0.3052667387994686,0.035504130970888365,0.8791792671800467,702.0,0.21943796398353294,0.5116939496828758,2.4000573668466143,-0.0018689271606435029,0.029,1.0,-1.377988880897387,0.10927712383633388,22,2026-10-07 22:46:20.362243,55.9,0.44728241050904644,0.5830255764400092,0.8640472332128541
0936,cdot_cos,S,R-S,23,4,4306,0.0020087371236849364,-0.01536449194280773,-0.029581310482099856,0.16062363230054336,702.0,0.2281960776538807,0.5118932987876387,2.454954019958193,-0.000706598061227114,0.028,0.9999999999999996,5.830621114648432,0.1142442653422676,23,2026-10-07 22:46:20.390244,55.9,0.19301931298943098,0.24404056064939936,0.31278977394099144
0936,cdot_cos,T,S-T,24,4,4533,-0.2121659749978405,-0.06992492430360506,-0.21417471212152545,6.3163267833300306e-06,702.0,0.2331042353798993,0.511893306626723,2.5077548090465402,-0.00040807596581945174,0.227,1.0000000000000004,38081.24531833189,0.11921140990386624,24,2026-10-07 22:46:20.617243,55.9,0.4811695398307673,0.07610266053027585,0.02162184020272512
0936,cdot_cos,P,T-P,25,5,4818,0.027621358211740436,0.003066395269282984,0.23978733320958096,0.9999984910755344,696.0,0.26274668553462593,0.5131343116659676,2.5656715597790374,-0.002648805015664857,0.285,1.0000000000000002,-1.8055761088685776,0.12417855572056308,25,2026-10-07 22:46:20.902244,55.9,0.42915393657927914,0.0635816021827204,0.10400859703412856
0936,cdot_cos,Q,P-Q,26,5,4924,-0.02321676257128514,-0.03855090334467112,-0.050838120783025575,0.05510408372212918,696.0,0.2693457486240499,0.5132026916476854,2.616830541059031,-0.0006327774603568665,0.106,1.0000000000000002,29.48271562322527,0.129145698569708,26,2026-10-07 22:46:21.008243,55.9,0.04133698187522635,0.1689144210577362,0.06225531216437721
0936,cdot_cos,R,Q-R,27,5,4982,0.0238889122902133,0.3016834830924125,0.04710567486149844,0.9329684027339891,696.0,0.298556542798866,0.5143603574805201,2.672694819772061,-0.002989118614776188,0.058,0.9999999999999999,-2.0354242887599643,0.13411284059985176,27,2026-10-07 22:46:21.066243,55.9,0.4546141054436936,0.3708960301222891,0.5036343823244154
0936,cdot_cos,S,R-S,28,5,5007,0.010165770491213916,-0.03227704128862716,-0.013723141798999383,0.31710165179671773,696.0,0.31236968811823546,0.5147537958814377,2.7238210628568242,-0.0015205041198492596,0.025,1.0,3.732768564283367,0.13907998201834423,28,2026-10-07 22:46:21.091244,55.9,0.3806505915353161,0.3868539537610116,0.5525258127747779
0936,cdot_cos,T,S-T,29,5,5232,-0.1862450717548874,-0.08702438356841223,-0.1964108422461013,1.7049611655220368e-05,696.0,0.3178992404869166,0.5147538170349618,2.7720341420780885,-0.0006279457419246968,0.225,1.0000000000000002,42194.311047344694,0.14404712823098287,29,2026-10-07 22:46:21.316243,55.9,0.24137727615295346,0.08482275921576453,0.024575788305249487
0936,cdot_cos,P,T-P,30,6,5514,0.05546766074066812,-0.00013120054201985344,0.2417127324955555,0.9999986450460663,699.0,0.3505399297653295,0.5159944260455069,2.826217869901185,-0.0039306206309484976,0.282,0.9999999999999997,-2.662140014260097,0.14901427625120678,30,2026-10-07 22:46:21.598243,55.9,0.4316058042065085,0.06858036583702697,0.115747125100755
0936,cdot_cos,Q,P-Q,31,6,5645,-0.0289825656395441,-0.03520902488988818,-0.08445022638021221,0.00882967963103944,699.0,0.3565785668189998,0.5160053793850246,2.8729963662908897,-0.000769255185088083,0.131,1.0000000000000002,288.62114981243235,0.1539814204775633,31,2026-10-07 22:46:21.729243,55.9,0.016413606278858524,0.15055438883476607,0.04609646605855194
0936,cdot_cos,R,Q-R,32,6,5669,0.046943565423250184,0.28475056004326826,0.07592613106279428,0.985856710189396,699.0,0.3899851796400382,0.5172282491021226,2.9258848232619465,-0.004492291915374587,0.024,0.9999999999999998,-3.0445080765606614,0.15894856170242175,32,2026-10-07 22:46:21.753243,55.9,0.4365898482967681,0.8973450227250795,1.3919422008766003
0936,cdot_cos,S,R-S,33,6,5696,0.012432336525734883,-0.04115166443891613,-0.0345112288975153,0.12684162474226637,699.0,0.3996511279098036,0.5173855704608968,2.9721538263277063,-0.0013747721758140589,0.027,0.9999999999999998,19.816252312151903,0.16391570313027756,33,2026-10-07 22:46:21.780244,55.9,0.10355392234670809,0.2903672919745672,0.35799808406538564
0936,cdot_cos,T,S-T,34,6,5911,-0.14767620944398,-0.05396281651848463,-0.16010854596971488,0.00012971154731256145,699.0,0.40566501340666483,0.5173857313400549,3.0168513149879925,-0.0008723297971944828,0.215,0.9999999999999998,3123.1042263848963,0.16888285085740545,34,2026-10-07 22:46:21.995244,55.9,0.5621550659264668,0.09609697605713838,0.027971560450517283
0936,cdot_cos,P,T-P,35,7,6213,0.04476888635252037,0.003371583930167841,0.19244509579650038,0.9999787191326653,701.0,0.4409728276143731,0.5186258792985685,3.0682320849694222,-0.005383317244579477,0.302,0.9999999999999997,-3.637459076086226,0.17385000207498702,35,2026-10-07 22:46:22.297244,55.9,0.4325934835938964,0.06962399231800195,0.11691329207850427
0936,cdot_cos,Q,P-Q,36,7,6348,-0.02842857110372665,-0.04051769806723655,-0.07319745745624702,0.016435527747044258,701.0,0.447717904766738,0.5186462603436872,3.111877568956186,-0.0010794877470102068,0.135,0.9999999999999996,211.16824345873988,0.17881714743744398,36,2026-10-07 22:46:22.432243,55.9,0.018556811860808535,0.15562615171642732,0.04996353446196212
0936,cdot_cos,R,Q-R,37,7,6375,0.02991171355494815,0.2845118941426477,0.0583402846586748,0.9630742692193798,701.0,0.4829918885778085,0.5198404198784695,3.1620658353136233,-0.005911109185025578,0.027,0.9999999999999996,-4.046043512013817,0.18378428865855928,37,2026-10-07 22:46:22.459244,55.9,0.44158717219269694,1.0040812522760871,1.3064438448544629
0936,cdot_cos,S,R-S,38,7,6400,0.02318067389939992,-0.051582377879921384,-0.006731039655548228,0.40702802038369124,701.0,0.5019382923896467,0.5203450450582481,3.2076222897271776,-0.003359673987186945,0.025,0.9999999999999999,5.05609965590351,0.18875142993769414,38,2026-10-07 22:46:22.484244,55.9,0.4679333539608078,0.51023182660346,0.7578561524735283
0936,cdot_cos,T,S-T,39,7,6631,-0.1387985435206392,-0.0604981332906809,-0.16197921742003912,0.00011683415647326658,701.0,0.5085034799079815,0.5203451899009827,3.249554677098529,-0.0011943271876272343,0.231,0.9999999999999998,14949.640420544281,0.1937185807454775,39,2026-10-07 22:46:22.715244,55.9,0.1631595919528965,0.09622777086674028,0.0284207251875965
0936,cdot_cos,P,T-P,40,8,6914,0.04758900944394162,0.0042118695698643545,0.18638755296458082,0.9999701430844452,718.0,0.5463955225300807,0.5215847544243383,3.298791643057619,-0.00719504213462168,0.283,0.9999999999999996,-4.84098635765244,0.19868573455956726,40,2026-10-07 22:46:22.998244,55.9,0.43430556649120505,0.07980667825254179,0.13389414354098667
0936,cdot_cos,Q,P-Q,41,8,7050,-0.026756389673746404,-0.03663647913735511,-0.07434539911768803,0.015429749648049518,718.0,0.5536740597989201,0.5216038791227442,3.3398944524058574,-0.0014412432015454668,0.136,0.9999999999999998,300.8569761964681,0.2036528813516639,41,2026-10-07 22:46:23.134243,55.9,0.018458190835653768,0.16654018535775542,0.053518656388525175
0936,cdot_cos,R,Q-R,42,8,7077,0.03710192016512236,0.2875104689452039,0.06385830983886875,0.9726066518093431,718.0,0.5916944529473902,0.5228092648994882,3.3881912932586795,-0.00783685235132382,0.027,0.9999999999999996,-5.305860806698919,0.2086200224916701,42,2026-10-07 22:46:23.161243,55.9,0.4421552901671303,0.9704189408190849,1.4081627092025946
0936,cdot_cos,S,R-S,43,8,7103,0.015137749480591765,-0.044147369283471585,-0.02196417068453059,0.22656721007323297,718.0,0.6060766826031507,0.5230900200136686,3.430130661730675,-0.0030999697113073053,0.026,0.9999999999999991,16.871937146525518,0.2135871637285579,43,2026-10-07 22:46:23.187244,55.9,0.21696014891262816,0.4114460261566721,0.5531626790677125
0936,cdot_cos,T,S-T,44,8,7316,-0.1387105535988171,-0.0443142937152073,-0.15384830307940886,0.0001840497955694246,718.0,0.6130896463075372,0.5230902480766039,3.4697881816783545,-0.0015385865120661336,0.213,0.9999999999999996,6846.282132987149,0.21855431614938198,44,2026-10-07 22:46:23.400243,55.9,0.36246888492330925,0.11093992791528846,0.032924712227166295
0936,cdot_cos,P,T-P,45,9,7632,0.04854770364960816,3.0297846763508067e-05,0.18725825724842526,0.9999715614522832,717.0,0.6533370918950636,0.5243292052985997,3.517307252074891,-0.00917008734605502,0.316,0.9999999999999994,-6.159616085610454,0.2235214755281307,45,2026-10-07 22:46:23.716243,55.9,0.43508371875536006,0.07594265546501602,0.12736533413774198
0936,cdot_cos,Q,P-Q,46,9,7760,-0.025483127606479233,-0.030137899341268412,-0.07403083125608739,0.015699174016832858,717.0,0.6610854045614273,0.5243486541093324,3.556305616927611,-0.0018322956549107863,0.128,0.9999999999999997,377.2874234831349,0.2284886232092099,46,2026-10-07 22:46:23.844243,55.9,0.01822978440816572,0.1903025593398711,0.06053369270596614
0936,cdot_cos,R,Q-R,47,9,7786,0.06372413457534228,0.29167298464159097,0.08920726218182151,0.9932180526952865,717.0,0.7020545470860706,0.5255789426546724,3.6031877159758006,-0.010044857450435242,0.026,0.999999999999999,-6.6753135487047235,0.2334557641500968,47,2026-10-07 22:46:23.870244,55.9,0.4414949553517089,0.9494849305684369,1.575736250947821
0936,cdot_cos,S,R-S,48,9,7810,0.0004805088982016996,-0.013357211555325661,-0.06324362567714058,0.028323841431592285,717.0,0.710458620950986,0.525614022610625,3.6415607893317814,-0.0021351367483329717,0.024,0.999999999999999,225.47692798716838,0.23842290510137962,48,2026-10-07 22:46:23.894243,55.9,0.02461129155807098,0.32852647579008587,0.3501697443714739
0936,cdot_cos,T,S-T,49,9,8031,-0.16857536553998592,-0.03706998247110655,-0.16905587443818762,7.86658006786444e-05,717.0,0.7178238179239947,0.5256141200403066,3.6792988603974504,-0.001892089968262734,0.221,0.9999999999999988,2494.586618160282,0.24339006058314175,49,2026-10-07 22:46:24.115244,55.9,0.8794538977138937,0.11261482743419564,0.033326683135786184
0936,cdot_cos,P,T-P,50,10,8349,0.04871586459891243,-0.003130196818834842,0.21729123013889834,0.9999946935371321,719.0,0.7602343746769005,0.5268524798923107,3.7254096350371366,-0.011271861571510333,0.318,0.9999999999999989,-7.574350531526244,0.24835722411458389,50,2026-10-07 22:46:24.433243,55.9,0.43511695658884814,0.07936392405317798,0.13336653066951487
0936,cdot_cos,Q,P-Q,51,10,8466,-0.027265383884936736,-0.028188748031200337,-0.07598124848384917,0.014100393992253598,719.0,0.7682992736218159,0.5268699390208474,3.7626039876187725,-0.0022166771239840104,0.117,0.9999999999999987,518.6504256753304,0.2533243722139551,51,2026-10-07 22:46:24.550244,55.9,0.016822696133705815,0.21914403202253627,0.0689307602129527
0936,cdot_cos,R,Q-R,52,10,8496,0.07797264964133212,0.27791004982937156,0.10523803352626886,0.9972207916323129,719.0,0.811514078170174,0.5281045301022224,3.808215952548785,-0.01227293904235238,0.03,0.9999999999999987,-8.145419216190287,0.258291513321683,52,2026-10-07 22:46:24.580243,55.9,0.4407026118584532,0.8664871125477074,1.4404934849452675
0936,cdot_cos,S,R-S,53,10,8521,0.014445291716882098,-0.04644802344344508,-0.06352735792445002,0.02789058175573693,719.0,0.8202885003746784,0.5281390546594273,3.8449103832849256,-0.0025739079026448224,0.025,0.9999999999999986,280.9313695790783,0.26325865417009847,53,2026-10-07 22:46:24.605243,55.9,0.02309331281362647,0.3296912039667621,0.3509768881801767
0936,cdot_cos,T,S-T,54,10,8748,-0.13689198328700272,-0.02639250618766661,-0.15133727500388483,0.00021177938233056466,719.0,0.8279986383685121,0.5281393168110295,3.881015546538327,-0.00228455625021726,0.227,0.9999999999999983,1103.7569482505835,0.26822581304927673,54,2026-10-07 22:46:24.832243,55.9,0.8810371228542719,0.11492869521592687,0.03396536561160215
0936,cdot_cos,P,T-P,55,11,9068,0.04629372396826384,-0.001787508459887062,0.18318570725526656,0.9999642913194077,724.0,0.8724661280027092,0.529376949379159,3.9259645630962834,-0.013589172599942675,0.32,0.999999999999998,-9.134065021261438,0.27319298121643387,55,2026-10-07 22:46:25.152243,55.9,0.43522850792009665,0.08296825005922516,0.13896090510686596
0936,cdot_cos,Q,P-Q,56,11,9193,-0.023500653928658837,-0.025033082240863275,-0.06979437789692268,0.019811045571109343,724.0,0.8810983184064162,0.5294014654516807,3.961677844406165,-0.0027203387981761854,0.125,0.9999999999999984,443.335032239656,0.27816013136596346,56,2026-10-07 22:46:25.277244,55.9,0.0184001378826074,0.2151499572344986,0.06905752322965597
0936,cdot_cos,R,Q-R,57,11,9218,0.07213279708259349,0.2766048846721198,0.09563345101125233,0.9952550111349443,724.0,0.9262536173113338,0.5306329036287475,4.006190606953683,-0.014662323948049137,0.025,0.9999999999999982,-9.697592109997426,0.28312727182157377,57,2026-10-07 22:46:25.302243,55.9,0.44287513122135613,1.0779215241163698,1.806211956196706
0936,cdot_cos,S,R-S,58,11,9243,-0.00022566332726426053,-0.015651951881958594,-0.07235846040985774,0.0172111318829215,724.0,0.9349943946122347,0.5306541958831826,4.041341992270274,-0.0029228288652915807,0.025,0.9999999999999981,551.3504978307958,0.28809441246620754,58,2026-10-07 22:46:25.327244,55.9,0.018016200447974494,0.3353603609750522,0.3496310920360335
0936,cdot_cos,T,S-T,59,11,9449,-0.1830347012905459,-0.03315369007298267,-0.18280903796328163,3.646849972185544e-05,724.0,0.9430216353600864,0.5306542409990147,4.07603260571776,-0.0027084115917035347,0.206,0.9999999999999973,4752.594904029896,0.293061572336696,59,2026-10-07 22:46:25.533243,55.9,0.9238854680994874,0.13218592363948084,0.03896718809636782
0936,cdot_cos,P,T-P,60,12,9792,0.04787130558467283,0.0026254730936850473,0.23090600687521873,0.9999975209825438,733.0,0.9894549951517008,0.5318911648971698,4.120011289653572,-0.01611604669926237,0.343,0.9999999999999976,-10.83949879823371,0.2980287479509947,60,2026-10-07 22:46:25.876243,55.9,0.4352027876625845,0.0824479819072187,0.13537422679770944
0936,cdot_cos,Q,P-Q,61,12,9923,-0.00504801638845813,-0.010179137793856836,-0.052919321973130956,0.049350849019004904,733.0,0.9995809509484385,0.5319521982713784,4.154679532598138,-0.0036173124236783954,0.131,0.9999999999999972,204.7852414789727,0.3029959003256469,61,2026-10-07 22:46:26.007244,55.9,0.03157927299451823,0.21481359443262174,0.07729737249418088
0936,cdot_cos,R,Q-R,62,12,9949,0.05805799871109808,0.2759869653945314,0.06310601509955621,0.9714636806468062,733.0,1.0457361568930477,0.5331534336740991,4.198054385482308,-0.01694931949516032,0.026,0.9999999999999976,-11.098579879752538,0.30796304065597896,62,2026-10-07 22:46:26.033243,55.9,0.4553992969191142,1.0794544111913535,1.7752002286388155
0936,cdot_cos,S,R-S,63,12,9978,0.0012029608439012998,-0.020102374304887063,-0.056855037867196784,0.039994517361269855,733.0,1.0557125803303888,0.5332028795998718,4.23216670410473,-0.0037640802318769572,0.029,0.9999999999999972,266.6597714013981,0.31293018156803815,63,2026-10-07 22:46:26.062243,55.9,0.030109596947946248,0.3159419693525653,0.34401460128762673
0936,cdot_cos,T,S-T,64,12,10188,-0.17165430183639582,-0.035381213661280886,-0.17285726268029714,6.360715505973715e-05,733.0,1.0640607911154965,0.533202958237998,4.265623716954968,-0.0031772254086525043,0.21,0.9999999999999969,7462.726432287122,0.3178973450750413,64,2026-10-07 22:46:26.272243,55.9,0.8313480817478129,0.13494086748746367,0.03975338469098863
0936,cdot_cos,P,T-P,65,13,10525,0.04755138089000973,0.0015683022066207955,0.21920568272640556,0.9999952320896571,744.0,1.1123877446751236,0.5344390553658132,4.308785470427793,-0.018878048269724654,0.337,0.9999999999999969,-12.70193296931618,0.3228645256992823,65,2026-10-07 22:46:26.609244,55.9,0.4353097825648173,0.08663455598701149,0.14340342302559977
0936,cdot_cos,Q,P-Q,66,13,10656,-0.010169794532042711,-0.017650200262277167,-0.05772117542205244,0.03817639398278835,744.0,1.1224524818507422,0.5344862370380729,4.3421867788948365,-0.004037034991108989,0.131,0.9999999999999967,314.5503872123704,0.32783167985471984,66,2026-10-07 22:46:26.740243,55.9,0.025318595292093363,0.2239152221131488,0.07683005477571467
0936,cdot_cos,R,Q-R,67,13,10681,0.06729622187730543,0.27144557674509495,0.07746601640934814,0.9870080763739258,744.0,1.1710535328687686,0.5357058499185502,4.384941428617164,-0.019999064805949388,0.025,0.9999999999999963,-13.087783894667538,0.3327988198057463,67,2026-10-07 22:46:26.765243,55.9,0.4501660287549116,1.1648397857718562,1.9440420407210546
0936,cdot_cos,S,R-S,68,13,10705,7.442070833839504e-05,-0.018791253796168722,-0.06722180116896703,0.022805172200799882,744.0,1.180694471139335,0.5357340245169422,4.417776005848489,-0.004067904190237969,0.024,0.9999999999999961,565.4441065693436,0.3377659598360744,68,2026-10-07 22:46:26.789243,55.9,0.019914508463454404,0.38117190032891285,0.4017057612736019
0936,cdot_cos,T,S-T,69,13,10925,-0.15980035068246112,-0.023807130288906353,-0.15987477139079953,0.0001314175174464722,744.0,1.1893497840845564,0.5357341868757559,4.450142446232704,-0.0036804408278930632,0.22,0.9999999999999958,2386.4633736303585,0.3427331282512728,69,2026-10-07 22:46:27.009243,55.9,0.9000757558031102,0.13363802598381466,0.03934233156918805
0936,cdot_cos,P,T-P,70,14,11269,0.06291266291861106,-0.005264241396276538,0.22271301360107218,0.9999960809503876,718.0,1.2394952025722135,0.536969402928373,4.492608419574778,-0.021844133933607186,0.344,0.9999999999999956,-14.704871319660851,0.3477003160010674,70,2026-10-07 22:46:27.353244,55.9,0.4353898080754584,0.08702326216173874,0.14577156537109617
0936,cdot_cos,Q,P-Q,71,14,11382,-0.0052950010667906925,-0.007873760208073684,-0.06820766398540175,0.021608811292769224,718.0,1.2492217884518326,0.5369960896310944,4.52480955787202,-0.004341464596735612,0.113,0.9999999999999956,655.8573203907413,0.3526674692524664,71,2026-10-07 22:46:27.466244,55.9,0.01774746436477392,0.26788968673946373,0.08607598123556782
0936,cdot_cos,R,Q-R,72,14,11408,0.10319815721116207,0.2947197031144236,0.10849315827795276,0.9976820871945583,718.0,1.3000382717753323,0.5382279854669141,4.56701598172426,-0.02322507770597128,0.026,0.9999999999999952,-15.328904084386416,0.35763460910245237,72,2026-10-07 22:46:27.492243,55.9,0.44349446186781927,1.1526624952106896,1.9544801278269093
0936,cdot_cos,S,R-S,73,14,11436,-0.000989973875304969,-0.009411902615937539,-0.10418813108646705,0.0029467052915080317,718.0,1.3091602382027885,0.5382316232506688,4.598653086613976,-0.00426710700026186,0.028,0.999999999999995,5211.4067201922735,0.36260174952503904,73,2026-10-07 22:46:27.520243,55.9,0.011762769395792466,0.322470210486675,0.3257845152662935
0936,cdot_cos,T,S-T,74,14,11666,-0.26632131014608224,-0.15982307274616323,-0.26533133627077726,3.6185507181296046e-07,718.0,1.318096603562586,0.538231623697388,4.630043578024219,-0.004209217718657746,0.23,0.999999999999995,129587.62322885051,0.3675689234623629,74,2026-10-07 22:46:27.750243,55.9,0.9863411614539327,0.13223753537744118,0.03885376243390253
0936,cdot_cos,P,T-P,75,15,11987,0.04990196100588308,0.002027448800346421,0.3162232711519653,0.9999999789608507,740.0,1.3699895044764114,0.5394659118651122,4.6719119296228575,-0.024998932096033787,0.321,0.9999999999999944,-16.843485112320664,0.3725361138486406,75,2026-10-07 22:46:28.071244,55.9,0.4353416739349122,0.0981932099767196,0.1616601274573999
0936,cdot_cos,Q,P-Q,76,15,12118,-0.0038530502693737653,-0.0077559412424242835,-0.053755011275256843,0.04720476706020593,740.0,1.38113664436764,0.5395241643105486,4.703462716634112,-0.005495867383943077,0.131,0.9999999999999937,334.8025059886735,0.37750327195539096,76,2026-10-07 22:46:28.202244,55.9,0.028762633318995874,0.23997240450955867,0.0850926709254093
0936,cdot_cos,R,Q-R,77,15,12145,0.06483141348115816,0.288128054771116,0.06868446375053193,0.9789475582548329,740.0,1.4328622744579158,0.5407319764586117,4.744903936936873,-0.02607489205520184,0.027,0.9999999999999941,-17.038266012028703,0.3824704117145441,77,2026-10-07 22:46:28.229243,55.9,0.45419547703538277,1.1508108043629466,1.9157640774176206
0936,cdot_cos,S,R-S,78,15,12173,6.644224644168586e-05,-0.008628319823497021,-0.06476497123471647,0.026074883327999853,740.0,1.4432804278032392,0.5407641408159308,4.77589967737621,-0.005367714348287532,0.028,0.9999999999999939,643.7926771384621,0.38743755192454715,78,2026-10-07 22:46:28.257244,55.9,0.021115937077674247,0.3507232814714743,0.3720769051901202
0936,cdot_cos,T,S-T,79,15,12390,-0.26234077581028387,-0.12496312267823155,-0.26240721805672557,4.261118717194214e-07,740.0,1.4525027782203184,0.5407641413415532,4.806416923059533,-0.004784051933241837,0.217,0.9999999999999932,1110421.664021812,0.39240472783429614,79,2026-10-07 22:46:28.474244,55.9,0.8851468736869191,0.14473268127395655,0.042499310677784306
0936,cdot_cos,P,T-P,80,16,12727,0.04166243747626544,0.0003183278319944255,0.30400321328654933,0.9999999583423023,735.0,1.5060944114761363,0.5419974204464507,4.847772410534471,-0.028391773298286068,0.337,0.9999999999999933,-19.142237366459746,0.3973719279538079,80,2026-10-07 22:46:28.811244,55.9,0.4353962874748534,0.09448708860077591,0.1590256179697862
0936,cdot_cos,Q,P-Q,81,16,12857,-0.03218936339419833,-0.03675388328302627,-0.07385180087046378,0.01585457351614721,735.0,1.5161870759372413,0.5420169694581166,4.878152843432692,-0.0054619479767965525,0.13,0.9999999999999928,1172.9403876457372,0.402339088019498,81,2026-10-07 22:46:28.941243,55.9,0.015024036305715261,0.24672777861897913,0.07763588047003858
0936,cdot_cos,R,Q-R,82,16,12884,0.060363770272821145,0.2677423856188322,0.09255313366701948,0.994368433620813,735.0,1.570243633917071,0.5432427850241099,4.919272764041446,-0.0298626844467495,0.027,0.9999999999999929,-19.905715955058923,0.40730622750457746,82,2026-10-07 22:46:28.968243,55.9,0.44171169184368586,1.2687130526126813,2.0020947399936873
0936,cdot_cos,S,R-S,83,16,12911,0.022679939322206213,-0.061560534237045286,-0.037683830950614935,0.10846413025820643,735.0,1.5846975807783261,0.5433764636361579,4.9503953027846,-0.008161714220739533,0.027,0.9999999999999926,162.33689064805532,0.4122733672855691,83,2026-10-07 22:46:28.995244,55.9,0.07002702360575755,0.44417529968447617,0.5353313652316751
0936,cdot_cos,T,S-T,84,16,13124,-0.12232825665323023,-0.028362590801903023,-0.14500819597543643,0.00030164496477408733,735.0,1.5942291001000326,0.543376835395339,4.980131080837248,-0.0054230829458830005,0.213,0.999999999999992,7366.680943049935,0.4172405469008247,84,2026-10-07 22:46:29.208243,55.9,0.6035084257453814,0.15207321881864014,0.044748917003316825
0936,cdot_cos,P,T-P,85,17,13462,0.04266370429822082,0.0007447191481864693,0.16499196095145105,0.9999012727291547,722.0,1.6494807719950668,0.544608885215576,5.021045959260115,-0.032062785045874904,0.338,0.9999999999999921,-21.622260449554044,0.42220775492931484,85,2026-10-07 22:46:29.546243,55.9,0.4356742207074699,0.09722163020982882,0.1634664848965509
0936,cdot_cos,Q,P-Q,86,17,13592,-0.029629594858382912,-0.03301820154720357,-0.07229329915660374,0.017272853148707468,722.0,1.659950922121877,0.5446301635792969,5.0506925008255426,-0.006198931308889742,0.13,0.9999999999999916,1215.500123798569,0.4271749174068602,86,2026-10-07 22:46:29.676243,55.9,0.015416629857952323,0.25419617611849127,0.08053961636007749
0936,cdot_cos,R,Q-R,87,17,13617,0.05855544195318942,0.2784773699746442,0.08818503681157233,0.9928220923392924,722.0,1.7155717777858746,0.5458529411465096,5.091377436377821,-0.03357340585192909,0.025,0.9999999999999912,-22.387125244241737,0.4321420561741996,87,2026-10-07 22:46:29.701244,55.9,0.44247918417481236,1.3442870987412636,2.2248342265599064
0936,cdot_cos,S,R-S,88,17,13642,0.0006578146261408234,-0.017891910016226635,-0.0578976273270486,0.03781585589351155,722.0,1.72716527705894,0.5458995049971846,5.120991430288698,-0.00713719580921715,0.025,0.999999999999991,567.7410622074798,0.43710919523468766,88,2026-10-07 22:46:29.726244,55.9,0.02462470304126107,0.42766305495279155,0.46373997092262087
0936,cdot_cos,T,S-T,89,17,13862,-0.16721372464634454,-0.037853670648635214,-0.16787153927248535,8.404963014847151e-05,722.0,1.7369549305335141,0.5458996084892391,5.150006753985814,-0.006064143583332969,0.22,0.9999999999999902,10368.450324589723,0.44207638107596464,89,2026-10-07 22:46:29.946244,55.9,0.8378213956403817,0.15146114580467107,0.044498424884427526
0936,cdot_cos,P,T-P,90,18,14184,0.060527560996551454,0.001068731913555564,0.227741285642896,0.9999970412415677,719.0,1.7938081812129953,0.5471306423902149,5.190537179043328,-0.035878344644705185,0.322,0.9999999999999902,-24.21883023508923,0.4470435930262173,90,2026-10-07 22:46:30.268243,55.9,0.4356219945858613,0.10524008087108369,0.17656289030894787
0936,cdot_cos,Q,P-Q,91,18,14312,-0.008420690527930501,-0.01520778988466815,-0.06894825152448196,0.020750680014103913,719.0,1.804729542614492,0.5471561812046446,5.219537474868386,-0.007024366053397428,0.128,0.9999999999999895,1129.8088511803742,0.4520107574726718,91,2026-10-07 22:46:30.396243,55.9,0.016445578891728888,0.26376026087584786,0.08532313594919287
0936,cdot_cos,R,Q-R,92,18,14339,0.06162596709609019,0.28932542419966656,0.0700466576240207,0.9804609570914901,719.0,1.8613308079972124,0.5483625942044895,5.259709405176975,-0.037070463631147965,0.027,0.9999999999999898,-24.905316489140017,0.4569778964548825,92,2026-10-07 22:46:30.423244,55.9,0.4446298539256946,1.2632284639916938,2.0963431623229765
0936,cdot_cos,S,R-S,93,18,14363,0.0005321624703833716,-0.013354823378780177,-0.061093804625706814,0.031825524829111045,719.0,1.8729438796700435,0.5484017446324886,5.288595076450059,-0.00774727537873284,0.024,0.9999999999999896,748.9876803674499,0.4619450349527251,93,2026-10-07 22:46:30.447244,55.9,0.022709592823254233,0.4511782250730909,0.4838779863679624
0936,cdot_cos,T,S-T,94,18,14584,-0.19591312413589707,-0.045992122700989096,-0.19644528660628044,1.7016815797473782e-05,719.0,1.8829873628007208,0.5484017655657026,5.316952560124331,-0.0067390334291782,0.221,0.9999999999999887,48164.698793772,0.466912226036148,94,2026-10-07 22:46:30.668243,55.9,0.8610417812440366,0.15485649989945074,0.04544562502568899
0936,cdot_cos,P,T-P,95,19,14903,0.05225261147939017,0.0010492416003550352,0.24816573561528724,0.99999905536343,719.0,1.9413904526256007,0.5496316149034206,5.357146500239198,-0.03988235149838502,0.319,0.9999999999999886,-26.94908803277111,0.47187944498618045,95,2026-10-07 22:46:30.987243,55.9,0.43560161548311116,0.1086046221182903,0.18308178628489016
0936,cdot_cos,Q,P-Q,96,19,15033,-0.02348507831910838,-0.02764743143457491,-0.07573768979849856,0.014290920423521675,719.0,1.95227711171219,0.549649186240381,5.385440374179302,-0.007568931535367592,0.13,0.9999999999999878,1838.9847076489925,0.4768466125174651,96,2026-10-07 22:46:31.117243,55.9,0.013992718944347707,0.2671583931747729,0.08374353143530197
0936,cdot_cos,R,Q-R,97,19,15059,0.0587645289482933,0.28726339157025654,0.08224960726740169,0.9900260350343549,719.0,2.0108516348510417,0.5508661644277959,5.425402725551373,-0.04142984940315389,0.026,0.9999999999999878,-27.823767276973197,0.4818137509415214,97,2026-10-07 22:46:31.143244,55.9,0.4416192081548851,1.3603673383365673,2.252866274571219
0936,cdot_cos,S,R-S,98,19,15082,0.000528569811821066,-0.013318227290340937,-0.05823595913647223,0.03713368342264282,719.0,2.0230162133056915,0.5509117988295047,5.4537487675838925,-0.008757436391940987,0.023,0.9999999999999872,715.9601482167953,0.4867808888101082,98,2026-10-07 22:46:31.166244,55.9,0.023973185731013456,0.4883708637491073,0.5288947154195565
0936,cdot_cos,T,S-T,99,19,15307,-0.16342693356215185,-0.04288639127828137,-0.1639555033739729,0.0001046156646662649,719.0,2.0333166945835006,0.5509119273927896,5.481504671812409,-0.007456745949783898,0.225,0.9999999999999863,10117.122031375724,0.49174808636554157,99,2026-10-07 22:46:31.391244,55.9,0.8399344935320591,0.15603353300328632,0.04577991679026283
0936,cdot_cos,P,T-P,100,20,15622,0.05035691562032198,0.0011979989984229051,0.21378384918247384,0.9999935441484745,724.0,2.0932313031571703,0.5521405166719149,5.52140538228678,-0.0441017232281636,0.315,0.9999999999999867,-29.826873716877824,0.4967153122747511,100,2026-10-07 22:46:31.706244,55.9,0.43564856808472485,0.11267470972955969,0.19020510658307843
0936,cdot_cos,Q,P-Q,101,20,15753,-0.027626854148530316,-0.033153714887668675,-0.0779837697688523,0.012625974863319076,724.0,2.104301761713123,0.5521560248731138,5.549099604763465,-0.008288822329813142,0.131,0.9999999999999859,2309.2878689836516,0.5016824828452967,101,2026-10-07 22:46:31.837244,55.9,0.013291561012819942,0.2718654805372309,0.0845073172210145
0936,cdot_cos,R,Q-R,102,20,15781,0.05870521456805667,0.27754134403712094,0.08633206871658698,0.9920449592303953,724.0,2.164460059057925,0.5533742118727367,5.58880582288365,-0.045783048936015536,0.028,0.9999999999999862,-30.778711821590203,0.5066496215946343,102,2026-10-07 22:46:31.865243,55.9,0.44089243731584804,1.327756996189208,2.1485106194572
0936,cdot_cos,S,R-S,103,20,15805,0.012879878442844545,-0.04199164755773876,-0.04582533612521213,0.07164862799283546,724.0,2.178656153499719,0.5534621685614255,5.617027771820328,-0.010991603956227954,0.024,0.9999999999999852,395.55200972712964,0.5116167594056658,103,2026-10-07 22:46:31.889244,55.9,0.04220255077298019,0.5156246809101169,0.5915039350747516
0936,cdot_cos,T,S-T,104,20,16024,-0.15881075198854336,-0.04022524334179834,-0.1716906304313879,6.789323659675789e-05,724.0,2.1892100437416104,0.5534622519063657,5.6442298829867745,-0.008218122795847044,0.219,0.9999999999999849,33277.13901612748,0.5165839607857723,104,2026-10-07 22:46:32.108243,55.9,0.7135637209901614,0.16427175018596354,0.048191279643340516
0936,cdot_cos,P,T-P,105,21,16346,0.0383951176969667,0.0011536624073196116,0.19720586968551007,0.9999836915050616,736.0,2.250607180081171,0.5546894917063712,5.683876161541479,-0.048570282398175346,0.322,0.9999999999999845,-32.88041962308226,0.5215511976481498,105,2026-10-07 22:46:32.430244,55.9,0.4357008646034578,0.11343980086110572,0.19067433645826226
0936,cdot_cos,Q,P-Q,106,21,16477,-0.032263646877343566,-0.037980624224447146,-0.07065876457431026,0.018894206794216887,736.0,2.2622652754961625,0.5547126734368205,5.711116787766255,-0.009374187390295826,0.131,0.9999999999999839,1690.818340482301,0.5265183711683519,106,2026-10-07 22:46:32.561243,55.9,0.015278949810242642,0.2800755579598247,0.08899309477092848
0936,cdot_cos,R,Q-R,107,21,16503,0.05935095635140175,0.26805150610621453,0.09161460322874532,0.9940668920631109,736.0,2.323986976266645,0.5559319784936249,5.750605374868106,-0.050409398775160735,0.026,0.9999999999999842,-33.6545896827603,0.5314855089618221,107,2026-10-07 22:46:32.587244,55.9,0.4430649537835609,1.5032320399142212,2.3739115680954788
0936,cdot_cos,S,R-S,108,21,16530,0.02171348343738151,-0.06008959885766033,-0.03763747291402024,0.1087149735148163,736.0,2.340433341571702,0.5560652857921432,5.778800238396771,-0.013660199526204665,0.027,0.9999999999999832,275.672822549157,0.5364526474869409,108,2026-10-07 22:46:32.614244,55.9,0.06786472901460307,0.5048851302247057,0.609124640928039
0936,cdot_cos,T,S-T,109,21,16745,-0.13752565610697504,-0.03007895339638259,-0.15923913954435653,0.000136170323091371,736.0,2.351250773298779,0.5560654527603859,5.80549404084233,-0.009037375502087105,0.215,0.9999999999999827,27686.84601345355,0.5414198534379068,109,2026-10-07 22:46:32.829243,55.9,0.599581813329196,0.17133138572249362,0.05031363593989328
0936,cdot_cos,P,T-P,110,22,17082,0.04693189538294333,0.00019297601789716265,0.18445755148991838,0.9999667418393203,703.0,2.4141058374323743,0.5572912401007183,5.844920124096,-0.053306546915407656,0.337,0.999999999999983,-36.11488710702112,0.5463871052523518,110,2026-10-07 22:46:33.166244,55.9,0.435846979928886,0.11265985892987986,0.18651354342313117
0936,cdot_cos,Q,P-Q,111,22,17208,-0.009603294160513845,-0.0177831592362398,-0.056535189543457175,0.04068667512955878,703.0,2.427183518217518,0.5573411003032236,5.871953163993582,-0.011267474555528447,0.126,0.9999999999999817,843.1388210950016,0.5513542800546269,111,2026-10-07 22:46:33.292243,55.9,0.023968589527096268,0.2991799222414071,0.10379111734241127
0936,cdot_cos,R,Q-R,112,22,17234,0.05821445883618265,0.2920608832596654,0.0678177529966965,0.9779255431188704,703.0,2.489499177837209,0.5585391664390539,5.9110232436661265,-0.05449538531654069,0.026,0.9999999999999816,-36.08140608285722,0.556321417503608,112,2026-10-07 22:46:33.318244,55.9,0.4523767898320323,1.4557473399460659,2.396756139218876
0936,cdot_cos,S,R-S,113,22,17257,0.0029051092844468943,-0.020939514614135134,-0.055309349551735755,0.04344707286628449,703.0,2.5028823798947135,0.5585923781692406,5.937918746357989,-0.011883576898561662,0.023,0.9999999999999808,800.7972728659848,0.5612885541553398,113,2026-10-07 22:46:33.341243,55.9,0.027715237262568203,0.5311902167245082,0.5818783503262892
0936,cdot_cos,T,S-T,114,22,17481,-0.18777934324176263,-0.055349680362523655,-0.19068445252620952,2.3481812366726698e-05,703.0,2.5139339278065362,0.5585924069281875,5.964135156587659,-0.009861220756113946,0.224,0.9999999999999803,70320.93873749909,0.5662557695438009,114,2026-10-07 22:46:33.565243,55.9,0.8145807437998961,0.1681251798805342,0.0493372674634943
0936,cdot_cos,P,T-P,115,23,17785,0.04299362570077441,0.003359913066381037,0.23077296894253704,0.9999975024778596,714.0,2.578202460481193,0.5598167778531797,6.003366458134524,-0.058173118419690105,0.304,0.9999999999999802,-39.45854697903807,0.5712230182114442,115,2026-10-07 22:46:33.869244,55.9,0.43583788806191387,0.12679024433658476,0.21140964695610723
0936,cdot_cos,Q,P-Q,116,23,17923,-0.0188533472476121,-0.025976046454418714,-0.06184697294838651,0.030553507609997522,714.0,2.5910223963631798,0.5598541753954797,6.029814357596583,-0.011779512771349195,0.138,0.9999999999999791,1240.552260794902,0.5761902009804726,116,2026-10-07 22:46:34.007244,55.9,0.01947741788925895,0.274055682738098,0.09289808610135457
0936,cdot_cos,R,Q-R,117,23,17947,0.03885381013731927,0.297466204679729,0.057707157384931373,0.9617948223236897,714.0,2.653841828916908,0.5610310643440218,6.068479170325195,-0.058532017412056436,0.024,0.999999999999979,-39.72550230726528,0.581157337253648,117,2026-10-07 22:46:34.031244,55.9,0.449890548131401,1.671910478505197,2.6174763564053385
0936,cdot_cos,S,R-S,118,23,17972,0.0020537859786348266,-0.016259814394076266,-0.03680002415868444,0.11333478376740912,714.0,2.6712740993314292,0.5611697001843448,6.095863633172699,-0.016489913672738925,0.025,0.9999999999999778,303.25566348059823,0.5861244743423787,118,2026-10-07 22:46:34.056243,55.9,0.0781156531909586,0.5745526669721279,0.6972908165808533
0936,cdot_cos,T,S-T,119,23,18185,-0.21516075990081693,-0.06654865158977265,-0.21721454587945174,5.329258519873637e-06,714.0,2.6825694622655143,0.561169706703092,6.1216391401521975,-0.010742397761290729,0.213,0.999999999999977,881690.2584874203,0.5910916917281237,119,2026-10-07 22:46:34.269243,55.9,0.5856511295084548,0.1806465311723333,0.05302987292997682
0936,cdot_cos,P,T-P,120,24,18499,0.043465888654557444,-0.0016318222387010576,0.25862664855537437,0.9999994736135409,686.0,2.748229521610843,0.5623925316688818,6.160701893367438,-0.0633043867448489,0.314,0.9999999999999778,-42.98406595714807,0.5960589543729615,120,2026-10-07 22:46:34.583244,55.9,0.4359160351126804,0.1250741206364007,0.2091084692526399
0936,cdot_cos,Q,P-Q,121,24,18621,-0.020859408276740304,-0.027723106041947287,-0.06432529693129775,0.026706359667117718,686.0,2.761116010025174,0.562425178565432,6.186677366542184,-0.012603646683740028,0.122,0.9999999999999765,1553.0033607710914,0.6010261337327393,121,2026-10-07 22:46:34.705244,55.9,0.017904485508491573,0.3217840910403809,0.10562695421582549
0936,cdot_cos,R,Q-R,122,24,18647,0.05909817070210009,0.2977733957656455,0.0799575789788404,0.9886780862291648,686.0,2.826744839824696,0.5636333944211108,6.225534733511554,-0.06506283807021528,0.026,0.9999999999999764,-43.418724510116135,0.605993270566077,122,2026-10-07 22:46:34.731244,55.9,0.4465137807220659,1.5698717248465295,2.524185761520086
0936,cdot_cos,S,R-S,123,24,18673,0.015565350136023495,-0.041852888738709904,-0.043532820566076595,0.08065470276272763,686.0,2.8427493397171935,0.563731925531338,6.252089911263124,-0.016097447833376237,0.026,0.999999999999976,496.9536030188266,0.6109604078139368,123,2026-10-07 22:46:34.757244,55.9,0.047748349744985624,0.5296062896135156,0.6155576881729733
0936,cdot_cos,T,S-T,124,24,18882,-0.16317561171357603,-0.060062051898273836,-0.17874096184959953,4.577989448202057e-05,686.0,2.854284366884599,0.5637319814565166,6.277454085088104,-0.01165837458435592,0.209,0.9999999999999746,79375.21810763716,0.6159276299088091,124,2026-10-07 22:46:34.966244,55.9,0.6833400817930856,0.18793105624252981,0.055191517547394785
0936,cdot_cos,P,T-P,125,25,19185,0.051565505821365605,0.003832621473430166,0.21474111753494163,0.9999938805270822,715.0,2.921304521226571,0.5649531948966885,6.316369168457607,-0.06862694787004553,0.303,0.9999999999999742,-46.649153548187876,0.6208948977186958,125,2026-10-07 22:46:35.269243,55.9,0.4359971457560719,0.13156845327447766,0.22118862819132656
0936,cdot_cos,Q,P-Q,126,25,19315,-0.01918306578107691,-0.025400881259206674,-0.07074857160244252,0.01880137044341438,715.0,2.9340148495689324,0.5649761480236525,6.341841987586355,-0.013194565191137859,0.13,0.9999999999999735,2415.0253151075985,0.6258620842314206,126,2026-10-07 22:46:35.399244,55.9,0.014978301944339226,0.30329419371413713,0.097771756479704
0936,cdot_cos,R,Q-R,127,25,19344,0.04569510680757591,0.2841169951782516,0.06487817258865282,0.9740853339813499,715.0,3.0001610115922466,0.5661649495725911,6.380355413079578,-0.06954680997712048,0.029,0.9999999999999729,-47.40256675834087,0.6308292222401773,127,2026-10-07 22:46:35.428244,55.9,0.44473444681668584,1.4323940915700288,2.28090213873497
0936,cdot_cos,S,R-S,128,25,19371,0.004639899728312607,-0.027446164879062106,-0.0410552070792633,0.09153906422428494,715.0,3.017093706879994,0.5662766275516551,6.406689159607368,-0.01805138348834254,0.027,0.9999999999999725,461.10636063067966,0.635796359695449,128,2026-10-07 22:46:35.455244,55.9,0.05768756950136254,0.5314862035196937,0.6271368625091683
0936,cdot_cos,T,S-T,129,25,19599,-0.16238883784264282,-0.0543902504171956,-0.16702873757095543,8.810383129620435e-05,715.0,3.02886126658231,0.5662767350353975,6.431667819800918,-0.012604838914782927,0.228,0.9999999999999714,50673.19437158604,0.6407635979160374,129,2026-10-07 22:46:35.683244,55.9,0.649144784549301,0.17569854525670134,0.05161210395752592
0936,cdot_cos,P,T-P,130,26,19900,0.05290508510992657,-0.00506240358707687,0.21529392295256938,0.9999940667368992,676.0,3.09721224351705,0.567496290495882,6.470453729598268,-0.07413517698175603,0.301,0.9999999999999715,-50.45308726060744,0.6457308748853912,130,2026-10-07 22:46:35.984244,55.9,0.43606021973758735,0.13528056309969763,0.22707965759049803
0936,cdot_cos,Q,P-Q,131,26,20013,-0.015757745922973472,-0.020600473858846204,-0.06866283103290005,0.021077378293792352,676.0,3.110300165568328,0.5675219869334698,6.495586550249598,-0.014383996316897275,0.113,0.9999999999999702,2325.2709820489827,0.6506980561801723,131,2026-10-07 22:46:36.097243,55.9,0.015701419309541848,0.3614613475805145,0.115822319037859
0936,cdot_cos,R,Q-R,132,26,20041,0.0771788119468811,0.3019844170562671,0.09293655786985458,0.9944871946193631,676.0,3.178902508070246,0.5687339984331021,6.534256690724656,-0.07633671780666423,0.028,0.9999999999999704,-51.11562184728421,0.6556651934604093,132,2026-10-07 22:46:36.125243,55.9,0.444159422382906,1.4531242315891566,2.450083660782793
0936,cdot_cos,S,R-S,133,26,20068,-4.975761906476774e-05,-0.015972058911429252,-0.07722856956594587,0.013163233514695345,676.0,3.1916751225373208,0.5687500353759526,6.559145908895262,-0.01439639213228185,0.027,0.9999999999999691,3862.352460313233,0.660632330641095,133,2026-10-07 22:46:36.152243,55.9,0.013534822389922907,0.45832568267196233,0.4730597950768356
0936,cdot_cos,T,S-T,134,26,20282,-0.2033269006951502,-0.06250661777034304,-0.20327714307608544,1.161510777159578e-05,676.0,3.203652094934532,0.5687500495267296,6.583758337864687,-0.013552046019037806,0.214,0.999999999999968,59667.826972660725,0.6655995686882781,134,2026-10-07 22:46:36.366244,55.9,0.9395972447789526,0.19070491235027479,0.05596716073463273
0936,cdot_cos,P,T-P,135,27,20576,0.060888161767845526,-0.0017432653678312025,0.2642150624629957,0.9999996148459207,667.0,3.2732968250232384,0.5699679384990417,6.6224295474935495,-0.07975437720175835,0.294,0.9999999999999682,-54.358264741520486,0.670566852101327,135,2026-10-07 22:46:36.660243,55.9,0.4360154001016949,0.14142364579939462,0.23688683703641564
0936,cdot_cos,Q,P-Q,136,27,20694,-0.005122373985000384,-0.01050632118246706,-0.0660105357528459,0.024363857008920912,667.0,3.286809198664576,0.5699976004806646,6.647257752871971,-0.015672235633471292,0.118,0.9999999999999667,2160.4133662734052,0.6755340392783997,136,2026-10-07 22:46:36.778244,55.9,0.016757723903373264,0.3462530539367927,0.11451164102828677
0936,cdot_cos,R,Q-R,137,27,20723,0.05455692889610694,0.3222799271372185,0.05967930288110733,0.9656458070555417,667.0,3.3550125457523214,0.5711728272649829,6.685407126403074,-0.08003634946354869,0.029,0.9999999999999665,-54.767398674814096,0.6805011768992981,137,2026-10-07 22:46:36.807244,55.9,0.44745199254868206,1.4359570970279518,2.3518395547498354
0936,cdot_cos,S,R-S,138,27,20748,0.0015078209545119187,-0.01415986304756321,-0.05304910794159502,0.049011587231894874,667.0,3.3700947102921974,0.5712324549034982,6.710462525049603,-0.017920173466078514,0.025,0.9999999999999655,1041.734630854596,0.6854683126700869,138,2026-10-07 22:46:36.832243,55.9,0.031233285479415167,0.5454140100311999,0.6032865815950395
0936,cdot_cos,T,S-T,139,27,20978,-0.2371311114890034,-0.09485338939898129,-0.2386389324435153,1.608967429974666e-06,667.0,3.3822832462538814,0.5712324568609386,6.734731929842867,-0.014540776799651732,0.23,0.9999999999999643,1726436.5296845238,0.6904355671363235,139,2026-10-07 22:46:37.062243,55.9,0.792622459485962,0.18066372939125439,0.052993634616017436
0936,cdot_cos,P,T-P,140,28,21243,0.05568440448648582,0.0035969297891850554,0.2928155159754892,0.9999999221426416,680.0,3.4532000258121744,0.5724486057598561,6.773303858477993,-0.0855830168254989,0.265,0.9999999999999643,-58.41574176408892,0.6954028438449632,140,2026-10-07 22:46:37.327244,55.9,0.43600681578912076,0.16100123223847962,0.2676104888992189
0936,cdot_cos,Q,P-Q,141,28,21373,-0.003307097381169685,-0.008784336907083214,-0.058991501867655505,0.03565275723571368,680.0,3.4676138993402756,0.5724919487543283,6.797965881493849,-0.017611490090970076,0.13,0.9999999999999634,1568.2240593267668,0.700370041664369,141,2026-10-07 22:46:37.457243,55.9,0.021078559222178623,0.29282399269323806,0.11087595021616303
0936,cdot_cos,R,Q-R,142,28,21402,0.025747287920407383,0.32764324445520576,0.029054385301577067,0.8353653143396612,680.0,3.5293342639124163,0.5735071810328851,6.834127452063749,-0.07619601424870077,0.029,0.9999999999999625,-57.705537338716326,0.7053371790717636,142,2026-10-07 22:46:37.486243,55.9,0.4635384261966964,1.4874322266588327,2.128288433522093
0936,cdot_cos,S,R-S,143,28,21430,0.0014435721757929368,-0.008907948640093248,-0.024303715744614447,0.20447155889516402,680.0,3.553884968486488,0.573755584450624,6.861119535372704,-0.03067784212272013,0.028,0.9999999999999617,183.24293820234013,0.7103043163441579,143,2026-10-07 22:46:37.514244,55.9,0.226786208374723,0.6599230354762635,0.8768108776454143
0936,cdot_cos,T,S-T,144,28,21640,-0.2088861434086921,-0.2023193179103167,-0.21032971558448504,7.830854424141253e-06,680.0,3.566289953899087,0.5737555939632696,6.8850677825344935,-0.015581780766427784,0.21,0.9999999999999605,1586946.6870007087,0.7152715666333279,144,2026-10-07 22:46:37.724244,55.9,0.3795276847176134,0.20137825395796652,0.05907135910761503
0936,cdot_cos,P,T-P,145,29,21923,0.04473670785423526,0.002743860604712884,0.2536228512629274,0.999999303722871,673.0,3.638463835148834,0.5749699104415196,6.923555235540251,-0.09166605259533309,0.283,0.9999999999999607,-62.65604823098022,0.7202388645112494,145,2026-10-07 22:46:38.007244,55.9,0.43604239750530777,0.1560332111441876,0.25503138250793916
0936,cdot_cos,Q,P-Q,146,29,22058,-0.004407548534524753,-0.012597534178611553,-0.049144256388760015,0.06024702061130114,673.0,3.6546047514066973,0.5750430407081552,6.948272210510859,-0.020750488236676808,0.135,0.999999999999959,969.7156542863536,0.725206069660053,146,2026-10-07 22:46:38.142244,55.9,0.032793100163600035,0.28565419617343407,0.11956234265084001
0936,cdot_cos,R,Q-R,147,29,22082,0.020977987095127958,0.30970635462793916,0.025385535629652713,0.8051896693215708,673.0,3.715590468115661,0.5760200959541212,6.983873234441397,-0.07918347577711529,0.024,0.9999999999999589,-59.805203218232435,0.7301732036184965,147,2026-10-07 22:46:38.166244,55.9,0.47809577005475135,1.9236718861040576,2.5410715295401585
0936,cdot_cos,S,R-S,148,29,22108,0.006666318656368518,-0.022618525500754508,-0.01431166843875944,0.31002075603770307,673.0,3.746941001939692,0.5763961318375735,7.01216231511899,-0.04120563623314523,0.026,0.9999999999999578,100.9952539510265,0.735140339385043,148,2026-10-07 22:46:38.192243,55.9,0.39785560685255883,0.8459353590149189,1.2057897624627296
0936,cdot_cos,T,S-T,149,29,22337,-0.19354478518424625,-0.11022781523170908,-0.20021110384061477,1.3786585671080809e-05,673.0,3.759579106784437,0.5763961485578799,7.035812373789708,-0.016708833056618556,0.229,0.9999999999999565,1465092.9622117074,0.7401076103728449,149,2026-10-07 22:46:38.421243,55.9,0.2308241798389515,0.187921196900945,0.055188230763077786
0936,cdot_cos,P,T-P,150,30,22596,0.05255639213250134,0.005616523356971025,0.24610117731674758,0.9999989398041176,661.0,3.833008910120325,0.5776084800351529,7.074230995991622,-0.09811953480590213,0.259,0.9999999999999564,-67.152180138398,0.745074903391121,150,2026-10-07 22:46:38.680243,55.9,0.4361760144467025,0.17155735708079115,0.28351275419261773
0936,cdot_cos,Q,P-Q,151,30,22732,-0.0025466376646055148,-0.008220452951746539,-0.05510302979710685,0.04392892096491008,661.0,3.8484458177522867,0.5776617151831142,7.09842679232878,-0.02086807352767892,0.136,0.9999999999999547,1451.136405864597,0.7500421139473981,151,2026-10-07 22:46:38.816243,55.9,0.024676667452826675,0.25507119075360946,0.11350667376442511
0936,cdot_cos,R,Q-R,152,30,22756,0.010373876311679672,0.3316677398634196,0.012920513976285186,0.673103770969789,661.0,3.9023882740053066,0.5784771879071035,7.131946567727119,-0.07354125014196,0.024,0.9999999999999546,-64.59219918062206,0.7550092475164887,152,2026-10-07 22:46:38.840243,55.9,0.48858594523653215,1.879077195030119,2.247602343875832
0936,cdot_cos,S,R-S,153,30,22785,0.0017277445167383219,-0.007434720836775561,-0.00864613179494135,0.38146875349530085,661.0,3.9386415231137324,0.5789391518938819,7.161082635589796,-0.04998530567009661,0.029,0.9999999999999533,50.990867569858,0.7599763850976405,153,2026-10-07 22:46:38.869244,55.9,0.6242168932517502,0.8466208776284766,1.2501120382215778
0936,cdot_cos,T,S-T,154,30,22996,-0.2143564443956704,-0.22648550573940587,-0.21608418891240871,5.676862599490785e-06,661.0,3.9514922849077583,0.5789391587676155,7.184446836645882,-0.017829352224474543,0.211,0.999999999999952,4678091.325551282,0.764943652134454,154,2026-10-07 22:46:39.080243,55.9,0.1647147320110535,0.20734604825528818,0.06090408433187625
0936,cdot_cos,P,T-P,155,31,23257,0.05020890866581871,0.004996522037172947,0.2645653530614891,0.9999996223143549,658.0,4.026141555477464,0.5801495144216611,7.222804053047633,-0.10463543581403495,0.261,0.9999999999999521,-71.7194845163177,0.7699109569115655,155,2026-10-07 22:46:39.341243,55.9,0.4362215478837542,0.17350219997117428,0.2860125309184127
0936,cdot_cos,Q,P-Q,156,31,23403,-0.0033960920386176562,-0.013996544209674822,-0.05360500070443636,0.04758335666652427,658.0,4.042060433292711,0.5802070833272828,7.246785034808672,-0.022565859715438744,0.146,0.9999999999999505,1425.5886092033995,0.774878179550396,156,2026-10-07 22:46:39.487243,55.9,0.02633408485176875,0.15045862724426434,0.10903340969347437
0936,cdot_cos,R,Q-R,157,31,23427,-0.023791566629998203,0.33062102765407725,-0.020395474591380545,0.2423007107641888,658.0,4.070075474632789,0.5805001978803228,7.273647539792492,-0.03992134366166682,0.024,0.9999999999999486,-59.210584279168145,0.7798453126078569,157,2026-10-07 22:46:39.511244,55.9,0.6474316965280115,1.9390707483456318,1.1672933891699138
0936,cdot_cos,S,R-S,158,31,23451,0.005183858976871778,-0.014562607438031554,0.02897542560686998,0.8347573785926056,658.0,4.135135829213302,0.5815095794620291,7.309462980727882,-0.09371154900318293,0.024,0.9999999999999484,-53.290258427926275,0.7848124461743614,158,2026-10-07 22:46:39.535244,55.9,0.5632692002260733,1.6276933478658329,2.71084810752135
0936,cdot_cos,T,S-T,159,31,23677,-0.1689984759173583,-0.13782253260606117,-0.1741823348942301,5.9066207125200434e-05,658.0,4.148204755330349,0.5815096508603507,7.3325586068685,-0.019003445009025906,0.226,0.9999999999999469,1046356.5855921608,0.7897797329752094,159,2026-10-07 22:46:39.761244,55.9,0.01961829624903044,0.1967324382017751,0.057827106712599885
0936,cdot_cos,P,T-P,160,32,23915,0.06214135703232498,0.014159108887757616,0.2311398329496833,0.9999975531745511,701.0,4.224058891280504,0.5827179407917467,7.37086465287053,-0.11139220194324288,0.238,0.9999999999999472,-76.46240735241108,0.7947470308451288,160,2026-10-07 22:46:39.999244,55.9,0.4363107412004501,0.18961452534780582,0.31871485693342344
0936,cdot_cos,Q,P-Q,161,32,24069,-0.00803710409511509,-0.023808327130341363,-0.07017846112744007,0.019398394205957945,701.0,4.238461269395905,0.5827413699645639,7.3941600463934485,-0.021377634359128966,0.154,0.9999999999999452,3841.9865816912397,0.7997142651265885,161,2026-10-07 22:46:40.153243,55.9,0.01483614428041838,0.1649449146785726,0.09352193581429087
0936,cdot_cos,R,Q-R,162,32,24095,-0.01772070873224508,0.30668568732327867,-0.00968360463712999,0.3678820818067191,701.0,4.274861925001504,0.583185623169357,7.422742171659466,-0.054337837951328856,0.026,0.9999999999999438,-74.19238226442536,0.8046813993864292,162,2026-10-07 22:46:40.179244,55.9,0.5452127332428771,2.0791317268500196,1.4000252155999837
0936,cdot_cos,S,R-S,163,32,24122,0.026741672179880632,-0.03816549151150851,0.04446238091212571,0.9231152889687412,701.0,4.346576119192106,0.5842997781283523,7.459841200048026,-0.1083291501021533,0.027,0.9999999999999439,-48.45942812076038,0.8096485350460695,163,2026-10-07 22:46:40.206244,55.9,0.6075015280930252,1.574615275199338,2.6560812663185716
0936,cdot_cos,T,S-T,164,32,24340,-0.15571857881171275,-0.09905657414388637,-0.18246025099159338,3.718648319808657e-05,701.0,4.3598911498622686,0.5842998229933463,7.482689732946944,-0.020311624084904337,0.218,0.9999999999999414,1961830.7790406463,0.8146158256875647,164,2026-10-07 22:46:40.424243,55.9,0.01312341323043002,0.20731942378217388,0.06107812234019642
0936,cdot_cos,P,T-P,165,33,24616,0.07540697996680323,-0.002181000064776451,0.23112555877851598,0.9999975512213906,701.0,4.4369673879611335,0.5855057991724097,7.520959222556097,-0.11869769894907621,0.276,0.9999999999999418,-81.58210466526366,0.819583165787939,165,2026-10-07 22:46:40.700243,55.9,0.43653820668074766,0.1644443482313949,0.2792617322422644
0936,cdot_cos,Q,P-Q,166,33,24737,-0.02221913564213657,-0.023362303464905587,-0.0976261156089398,0.004246942998149692,701.0,4.4506644300859985,0.5855109187230466,7.543781591239484,-0.021311081116982898,0.121,0.9999999999999395,19022.493327985696,0.8245503790119688,166,2026-10-07 22:46:40.821243,55.9,0.010360401303874639,0.3760571015354558,0.11319869524681818
0936,cdot_cos,R,Q-R,167,33,24761,0.07582084186610556,0.28687915705225553,0.09803997750824213,0.9958497786141237,701.0,4.527973206532714,0.5867108708326583,7.581976523462713,-0.12141207521856007,0.024,0.9999999999999392,-83.42082429770721,0.829517511551386,167,2026-10-07 22:46:40.845243,55.9,0.43846594463171396,1.9278382732039745,3.2211990186131376
0936,cdot_cos,S,R-S,168,33,24787,0.01118840573657069,-0.04184849888389781,-0.06463243612953487,0.026263689526734028,701.0,4.543200667199789,0.5867425034752439,7.60505317462426,-0.0241603826378875,0.026,0.9999999999999377,3074.409364229814,0.8344846463112874,168,2026-10-07 22:46:40.871244,55.9,0.017858875795428306,0.5524925386555246,0.5856715641182876
0936,cdot_cos,T,S-T,169,33,25016,-0.19122084327614197,-0.04732321819789628,-0.20240924901271265,1.2192504108545571e-05,701.0,4.556702818542801,0.5867425181600338,7.627653869337056,-0.02149080019786728,0.229,0.9999999999999354,181792.3491710366,0.8394519551075181,169,2026-10-07 22:46:41.100243,55.9,0.8831857143338394,0.20027810407222452,0.05896135957647076
0936,cdot_cos,P,T-P,170,34,25317,0.06464871319839373,0.0005078860288697564,0.2558695564745357,0.99999938590047,657.0,4.634928038864868,0.5879464075309223,7.665884445707487,-0.1256537155486281,0.301,0.9999999999999352,-86.52199933776406,0.8444193284165147,170,2026-10-07 22:46:41.401243,55.9,0.4364995003460511,0.15366324240092372,0.25988445289723267
0936,cdot_cos,Q,P-Q,171,34,25442,-0.017056396703661377,-0.024209288947717275,-0.08170510990205511,0.010279045400398043,657.0,4.649208090468157,0.5879587769360698,7.6885599129491204,-0.0231687905710329,0.125,0.999999999999933,8285.355985647202,0.8493865491576501,171,2026-10-07 22:46:41.526243,55.9,0.011993335283144616,0.359370181117292,0.11424041282631237
0936,cdot_cos,R,Q-R,172,34,25468,0.03621421328127195,0.3301374915674562,0.053270609984933326,0.951562317244547,657.0,4.724770584144191,0.5891033670502632,7.726019488244635,-0.12367982115139048,0.026,0.9999999999999326,-87.81399501356468,0.8543536827913787,172,2026-10-07 22:46:41.552243,55.9,0.44367134019444915,1.8891407277816796,2.906249756770537
0936,cdot_cos,S,R-S,173,34,25498,0.0033076168098105253,-0.01980006980980046,-0.03290659647146143,0.13711295241425575,657.0,4.7474434083128045,0.5892682146900828,7.750614527727626,-0.037494967430775905,0.03,0.9999999999999303,522.8152117611472,0.8593208206041653,173,2026-10-07 22:46:41.582243,55.9,0.10040219209108096,0.6062349836811531,0.7557608056204461
0936,cdot_cos,T,S-T,174,34,25718,-0.2340826428697183,-0.14964861085260725,-0.23739025967952884,1.725286832879152e-06,657.0,4.76114468316506,0.5892682167642281,7.772982896994664,-0.022745363621591894,0.22,0.9999999999999287,7111171.917168773,0.8642881309073737,174,2026-10-07 22:46:41.802243,55.9,0.5228470062517866,0.2115281889967841,0.06227852205570821
0936,cdot_cos,P,T-P,175,35,25974,0.06599610585474043,0.015506977933035921,0.3000787487244587,0.9999999481236121,644.0,4.8405158114713895,0.5904698845552195,7.811183666636836,-0.13293428762206894,0.256,0.9999999999999278,-91.69666094617456,0.8692554762725919,175,2026-10-07 22:46:42.058244,55.9,0.43653021260093466,0.18501205837552145,0.3100434699465984
0936,cdot_cos,Q,P-Q,176,35,26120,-0.0007243713436630071,-0.004837643505447636,-0.06672047719840343,0.023438112798729982,644.0,4.855870857053327,0.5904980364866605,7.833843070948696,-0.025970482719546384,0.146,0.9999999999999258,3799.5192310925368,0.8742227213303267,176,2026-10-07 22:46:42.204243,55.9,0.016266161052479227,0.124425761465077,0.10517154508176567
0936,cdot_cos,R,Q-R,177,35,26145,-0.03831341626480155,0.3656725938832564,-0.03758904492113854,0.10897756114309347,644.0,4.876848133819192,0.5906289235670884,7.8578081492335246,-0.035608992801389544,0.025,0.9999999999999236,-73.6398890580794,0.8791898533477677,177,2026-10-07 22:46:42.229243,55.9,0.7628634025294159,1.9168245544732443,0.8390910706345878
0936,cdot_cos,S,R-S,178,35,26169,0.0058925257160435465,-0.014441672916972088,0.0442059419808451,0.9220916981662133,644.0,4.9517120847769895,0.5917358825208929,7.89474275496345,-0.1282260541275249,0.024,0.9999999999999233,-83.66801768739317,0.8841569849831955,178,2026-10-07 22:46:42.253243,55.9,0.48563635119040344,1.8490436708829363,3.11933128990823
0936,cdot_cos,T,S-T,179,35,26397,-0.2125188724681713,-0.25406816608441757,-0.21841139818421484,4.9843769720788156e-06,644.0,4.965602230021573,0.5917358885020683,7.916888017340292,-0.024005708204303488,0.228,0.9999999999999206,17424726.76763519,0.8891243123554311,179,2026-10-07 22:46:42.481244,55.9,0.013017224624362275,0.20697942123648422,0.060921689669225565
0936,cdot_cos,P,T-P,180,36,26618,0.12674812311933092,-0.00031789235290575986,0.33926699558750223,0.9999999941977789,577.0,5.046094700860826,0.5929353240239699,7.9550635919239765,-0.14030663464613535,0.221,0.9999999999999205,-96.96304996657639,0.8940916350253503,180,2026-10-07 22:46:42.702244,55.9,0.4365268492830247,0.21383579125695218,0.3642193250644949
0936,cdot_cos,Q,P-Q,181,36,26740,-0.014232807385766214,-0.03209366979802274,-0.14098093050509714,0.0003777749682994962,577.0,5.060117649757146,0.5929357769323723,7.9771365235580465,-0.02467418994333194,0.122,0.999999999999918,255310.88422664822,0.8990588623335296,181,2026-10-07 22:46:42.824243,55.9,0.009220071565712995,0.27034146980961926,0.11494220406819261
0936,cdot_cos,R,Q-R,182,36,26763,-0.00942430014371685,0.3764670160604545,0.004808507242049365,0.5667971915715442,577.0,5.112058019494373,0.5936151227560899,8.00830735633439,-0.09194029619069848,0.023,0.9999999999999167,-99.01600024457491,0.904025992306084,182,2026-10-07 22:46:42.847244,55.9,0.48112502178423605,2.859650044057638,2.2582769450968523
0936,cdot_cos,S,R-S,183,36,26787,0.05682896030191068,-0.07627431996294742,0.06625326044562753,0.9759565922872856,577.0,5.191661551783797,0.5947840342646139,8.046090800240744,-0.14259908275172734,0.024,0.9999999999999165,-43.33842741012463,0.9089931239918884,183,2026-10-07 22:46:42.871244,55.9,0.7009958985979935,1.9545782639338962,3.3168138453926557
0936,cdot_cos,T,S-T,184,36,27011,-0.07182210972994216,-0.11903130929416803,-0.12865107003185283,0.0007523210334349166,577.0,5.2058777761632005,0.5947849349133327,8.068056919294872,-0.02569833152193695,0.224,0.9999999999999138,129796.1666809118,0.9139604604423665,184,2026-10-07 22:46:43.095244,55.9,0.010578171562001807,0.21405910916769727,0.06346528740805038
0936,cdot_cos,P,T-P,185,37,27195,0.09619357745168007,0.00743818003943088,0.16801568718162224,0.9999166248531222,583.0,5.287560032690926,0.5959814290353166,8.106225411059308,-0.14887579211742963,0.184,0.9999999999999135,-102.94865501826033,0.9189277576237623,185,2026-10-07 22:46:43.279244,55.9,0.4371914487417974,0.2610298957267267,0.44392530721589724
0936,cdot_cos,Q,P-Q,186,37,27322,-0.019490809012057436,-0.03978983945455346,-0.1156843864637375,0.0015518457432046092,583.0,5.301936777790636,0.5959832850816691,8.12812995716296,-0.02644319041785873,0.127,0.9999999999999105,65964.19401631886,0.9238949967692391,186,2026-10-07 22:46:43.406244,55.9,0.009754526677364936,0.22405816968818112,0.1132027173205537
0936,cdot_cos,R,Q-R,187,37,27346,-0.025511537079904494,0.37747433958095145,-0.006020728067847057,0.41664565165837264,583.0,5.344470807791724,0.596481504196651,8.156763549685424,-0.07862208636949633,0.024,0.9999999999999091,-104.73081899623539,0.9288621278817802,187,2026-10-07 22:46:43.430244,55.9,0.5149594344192114,2.5044638470081426,1.7722512500453202
0936,cdot_cos,S,R-S,188,37,27370,0.021049110675959746,-0.03957899626868438,0.04656064775586424,0.9310377268043281,583.0,5.422151042447027,0.5975941059351298,8.193799221340981,-0.14507919452478418,0.024,0.9999999999999089,-59.73126398863046,0.9338292596662463,188,2026-10-07 22:46:43.454243,55.9,0.6325002282141923,1.9298995896562439,3.236676443970965
0936,cdot_cos,T,S-T,189,37,27594,-0.06494623550526035,-0.10126261004120497,-0.0859953461812201,0.008104969838101259,583.0,5.437105988095223,0.5976037870833626,8.215695430791397,-0.02817064035300207,0.224,0.999999999999907,12075.897544506215,0.9387966084154314,189,2026-10-07 22:46:43.678244,55.9,0.015764194487502783,0.2182286881527638,0.06676315021516316
0936,cdot_cos,P,T-P,190,38,27778,0.0797945121392975,-0.0030166703805588517,0.14474074764455785,0.9996938128456258,574.0,5.519917494739465,0.5987973063581871,8.25385298672367,-0.15724305143487088,0.184,0.9999999999999061,-108.1443876143945,0.9437639155058037,190,2026-10-07 22:46:43.862243,55.9,0.4400589794137856,0.26477180469312794,0.4500625361100089
0936,cdot_cos,Q,P-Q,191,38,27867,-0.034166390194197274,-0.0477563742990567,-0.11396090233349478,0.0017085257285692956,574.0,5.534542012222294,0.598799345142916,8.275573371352888,-0.028016027307544784,0.089,0.9999999999999036,63384.33984401896,0.948731118933129,191,2026-10-07 22:46:43.951244,55.9,0.009925872115653465,0.5103693636260399,0.16432042115538706
0936,cdot_cos,R,Q-R,192,38,27920,0.004591309899471227,0.40079270773785897,0.0387577000936685,0.8972057169260423,574.0,5.6107632414649,0.5998695073723482,8.31203751376959,-0.14708583714267115,0.053,0.9999999999999026,-111.26332677457474,0.95369828297511,192,2026-10-07 22:46:44.004243,55.9,0.44506897760828035,1.4966067129608862,1.4381364008038804
0936,cdot_cos,S,R-S,193,38,27943,0.07708200265773466,-0.07594806350596964,0.07249069275826343,0.9829134543669333,574.0,5.693182323796148,0.6010408061266779,8.349927540845469,-0.16115165583840346,0.023,0.9999999999999025,-12.00873700560065,0.9586654140368829,193,2026-10-07 22:46:44.027244,55.9,0.9164176062694919,2.1122638755671823,3.5834383622281862
0936,cdot_cos,T,S-T,194,38,28152,-0.07390719512568121,-0.10120014188831589,-0.15098919778341585,0.00021593953523257948,574.0,5.70792737974099,0.60104106332675,8.371535110410283,-0.029078395176313547,0.209,0.9999999999998996,513503.97987380193,0.9636327612262164,194,2026-10-07 22:46:44.236243,55.9,0.010652377882449438,0.23626277532396675,0.0705505069131201
0936,cdot_cos,P,T-P,195,39,28352,0.05859091485552783,-0.006948727459192015,0.13249810998120903,0.9993931636261245,488.0,5.791940163881566,0.6022308157014615,8.409697550780901,-0.16694631082827244,0.2,0.9999999999998992,-115.87950449385477,0.9686000999426257,195,2026-10-07 22:46:44.436243,55.9,0.43787496547362703,0.24713084276402508,0.42006392070288
0936,cdot_cos,Q,P-Q,196,39,28469,-0.10566308901110999,-0.19445255579734583,-0.16425400386663783,0.00010288469054463817,488.0,5.8067797168466,0.60223093812118,8.431235079596416,-0.029741953141758894,0.117,0.999999999999896,1120770.0801585147,0.9735673419931906,196,2026-10-07 22:46:44.553244,55.9,0.009920430493463953,0.29112778499893693,0.12683378602593187
0936,cdot_cos,R,Q-R,197,39,28498,-0.10192245554516874,0.3582893359582725,0.003740633465941251,0.5520857104774058,488.0,5.860064065571318,0.602887665461368,8.46193360734283,-0.10736119213124529,0.029,0.9999999999998945,-118.19096638685939,0.97853447956538,197,2026-10-07 22:46:44.582243,55.9,0.48530730935465716,2.379873448625887,1.8373913353350761
0936,cdot_cos,S,R-S,198,39,28529,0.620812972200557,0.33785954093894793,0.7227354277457257,1.0,488.0,5.944812376866902,0.604076259437145,8.500108408378825,-0.1725998087480029,0.031,0.9999999999998946,-54.88721796196682,0.9835016204103527,198,2026-10-07 22:46:44.613244,55.9,0.6852468221080559,1.6087349385971164,2.7338164934059432
0936,cdot_cos,T,S-T,199,39,28701,-0.3390790355390912,0.233664821325508,-0.9598920077396482,4.97327710068479e-24,488.0,5.959805631764339,0.604076259437145,8.52154629691556,-0.030793513495270233,0.172,0.9999999999998918,,0.9884689351514693,199,2026-10-07 22:46:44.785243,55.9,0.010000998642473136,0.29126485933723745,0.08717008661300564
0936,cdot_cos,P,T-P,200,40,28840,0.015138486412498637,-0.0001429506475149165,0.35421752195158984,0.9999999974844125,655.0,6.045007488478912,0.6052636251327598,8.559722330039088,-0.17627904261673416,0.139,0.9999999999998912,-122.52798750947787,0.993436210680749,200,2026-10-07 22:46:44.924243,55.9,0.43809748943927695,0.43905135332301837,0.6129629979465662
0936,cdot_cos,Q,P-Q,201,40,29036,0.0007417858010630911,-0.11867311082021931,-0.014396700611435546,0.3090049072626719,655.0,6.081861907988138,0.6056302765662454,8.586293179512264,-0.07700056804762698,0.196,0.9999999999998889,270.77072527799805,0.9984035601219359,201,2026-10-07 22:46:45.120243,55.9,0.27545766536751726,0.13257333398968602,0.18803275259809393
0936,cdot_cos,R,Q-R,202,40,29063,-0.17517040838621473,0.26365568453091753,-0.17591219418727783,5.362231355646531e-05,655.0,6.0969762354028685,0.6056303401817849,8.607626594241651,-0.0317139507610972,0.027,0.9999999999998853,711879.7960442078,1.0033706956614612,202,2026-10-07 22:46:45.147244,55.9,0.239794857260469,1.8695943923069351,0.5597899042492782
0936,cdot_cos,S,R-S,203,40,29088,0.33573006717193304,0.009886599330586346,0.5109004755581478,0.9999999999996048,655.0,6.1828200051727125,0.6068160787754278,8.645800469742138,-0.18142505569098777,0.025,0.999999999999885,-126.25978924236432,1.0083378292657112,203,2026-10-07 22:46:45.172243,55.9,0.43814940949135345,2.0210736410435715,3.4337507907937592
0936,cdot_cos,T,S-T,204,40,29308,-0.0011680523910793683,-0.004933140104621776,-0.3368981195630124,6.623745177417871e-09,655.0,6.198029917455047,0.6068160787832777,8.667069383722415,-0.03240966494495097,0.22,0.9999999999998815,18982990361.109955,1.013305215732498,204,2026-10-07 22:46:45.392244,55.9,0.01007327998023471,0.22704236902314187,0.0691359649197027
0936,cdot_cos,P,T-P,205,41,29495,0.06626862843485051,0.00017189950729096568,0.06743668082592988,0.9774609825263144,558.0,6.282718647542895,0.6079738767163659,8.70486345688674,-0.18172332453717938,0.187,0.9999999999998814,-128.96348777714522,1.018272561225621,205,2026-10-07 22:46:45.579243,55.9,0.43970387196691074,0.26994193036044994,0.4528809095606836
0936,cdot_cos,Q,P-Q,206,41,29605,-0.010468837506492572,-0.029740444763468505,-0.07673746594134309,0.013524650604466684,558.0,6.298988199409855,0.6079898881185147,8.72629887860487,-0.03519275922339569,0.11,0.9999999999998774,9151.638560573898,1.023239806666961,206,2026-10-07 22:46:45.689243,55.9,0.015550591052267021,0.3817654320481292,0.14790501697236766
0936,cdot_cos,R,Q-R,207,41,29633,0.007680207632531859,0.3935537273774664,0.01814904513902443,0.7339060582091406,558.0,6.366707042593483,0.6088583869100009,8.759949130072803,-0.14734431084514904,0.028,0.9999999999998754,-129.13265133027502,1.028206943729411,207,2026-10-07 22:46:45.717243,55.9,0.46712755834080627,2.7422144772115367,2.418530113700999
0936,cdot_cos,S,R-S,208,41,29660,0.08127478803875589,-0.10557379299382912,0.07359458040622403,0.9839195050272561,558.0,6.452552210133701,0.6100216677203774,8.797860006939038,-0.18884653058708617,0.027,0.9999999999998754,-35.6768712865706,1.0331740803542848,208,2026-10-07 22:46:45.744244,55.9,0.802705873555858,1.8780714892404669,3.1794506496377073
0936,cdot_cos,T,S-T,209,41,29872,-0.04072143318328167,-0.08350674701033071,-0.12199622122203756,0.0010909784331462368,558.0,6.4681229030124685,0.6100229568844092,8.819001989370415,-0.03452414318077628,0.212,0.9999999999998721,119707.3324980719,1.0381414713137762,209,2026-10-07 22:46:45.956243,55.9,0.011447492452196926,0.24293086802693933,0.07344666452248638
0936,cdot_cos,P,T-P,210,42,30053,0.13196715328989445,0.004428048062361958,0.17268858647317611,0.9999357902953305,597.0,6.555554898177124,0.6112038911248958,8.857188355311404,-0.19518953889886015,0.181,0.9999999999998714,-136.04940072859821,1.043108821537277,210,2026-10-07 22:46:46.137243,55.9,0.43905743924451535,0.2847128746693763,0.4830496970422937
0936,cdot_cos,Q,P-Q,211,42,30146,-0.0005172191740685907,-0.0007415761098339085,-0.13248437246396302,0.0006073022759014535,597.0,6.571188963642783,0.6112046079600871,8.878262342067682,-0.03517881524773481,0.093,0.9999999999998673,223218.2872568118,1.048076050215431,211,2026-10-07 22:46:46.230243,55.9,0.010583102433773778,0.3156058640402547,0.1681082308135381
0936,cdot_cos,R,Q-R,212,42,30204,-0.00924042888984303,0.4118825266592193,-0.008723209715774439,0.3804526451938068,597.0,6.614257588888611,0.6116535843305454,8.905813237295673,-0.09730276339064434,0.058,0.9999999999998648,-138.36796818393879,1.0530432300000412,212,2026-10-07 22:46:46.288243,55.9,0.5281049397777612,0.9103336305772309,0.7425625042384194
0936,cdot_cos,S,R-S,213,42,30226,0.0016475734774947831,-0.005983598480099479,0.010888002367337812,0.647630352946128,597.0,6.6767876647897415,0.612417424021379,8.937940690533967,-0.14229982405487113,0.022,0.9999999999998629,-58.90903707179731,1.0580103595036345,213,2026-10-07 22:46:46.310244,55.9,0.7289041442572497,3.4249200502009276,2.8422761773241123
0936,cdot_cos,T,S-T,214,42,30455,0.11204401858188066,-0.43205524034822934,0.11039644510438588,0.9979155451311468,597.0,6.764954071097452,0.6135933210228004,8.976099089934873,-0.2026881764818944,0.229,0.9999999999998628,-51.35513769830784,1.062977789277704,214,2026-10-07 22:46:46.539244,55.9,0.7423479406943897,0.3642068554292542,0.3850061410817045
0936,cdot_cos,P,T-P,215,43,30650,0.1449630951875381,-0.026032271864707666,0.032919076605657446,0.862969566507405,560.0,6.84359440457634,0.6146091373395334,9.0119417425278,-0.18285298623058704,0.195,0.9999999999998611,19.52635523231251,1.0679451741161685,215,2026-10-07 22:46:46.734244,55.9,0.8972002815573513,0.24245742337508447,0.4032837614301954
0936,cdot_cos,Q,P-Q,216,43,30755,-0.0011103972413788372,-0.0025819857650759325,-0.14607349242891696,0.0002842113295176648,560.0,6.859512466213735,0.6146094717256801,9.032880452267749,-0.03726954199155198,0.105,0.9999999999998563,435375.22605062753,1.0729124266254448,216,2026-10-07 22:46:46.839243,55.9,0.020116174095303856,0.4770113609303271,0.15160058702280804
0936,cdot_cos,R,Q-R,217,43,30780,0.04650232843350804,0.4444436329188435,0.04761272567488688,0.934719393270853,560.0,6.943766790371709,0.6157086199416826,9.069957264605366,-0.19849740118731254,0.025,0.999999999999855,-146.6843659921873,1.077879560273455,217,2026-10-07 22:46:46.864243,55.9,0.44386196134101935,2.1127805830032287,3.370172966318954
0936,cdot_cos,S,R-S,218,43,30804,0.001216347348394592,-0.007166803366704981,-0.04528598108511345,0.07368013736936428,560.0,6.965151495363896,0.6157952112781739,9.09211026961279,-0.05076217499220067,0.024,0.9999999999998512,1706.1201753116902,1.082846693013143,218,2026-10-07 22:46:46.888243,55.9,0.054457170687513635,2.309291671600063,0.8910293746744827
0936,cdot_cos,T,S-T,219,43,31030,0.18504101110450044,-0.4770420491114104,0.18382466375610584,0.9999655441981266,560.0,7.054612790608512,0.6169696761881541,9.130320365224609,-0.21380474703807265,0.226,0.9999999999998509,-138.8228551235492,1.0878141361025693,219,2026-10-07 22:46:47.114244,55.9,0.46646282515124815,0.25203115121144665,0.3958464391354665
0936,cdot_cos,P,T-P,220,44,31210,0.14828509117844363,0.00588791790747406,-0.03675591992605681,0.11358277079196473,602.0,7.07906957571147,0.6171029937307063,9.15311964957644,-0.05891675668168618,0.18,0.9999999999998458,1161.7975203507106,1.0927815104215064,220,2026-10-07 22:46:47.294244,55.9,0.07215567497178729,0.11262590612824605,0.13587102834976922
0936,cdot_cos,Q,P-Q,221,44,31323,-0.0009776232669952351,-0.0024479725324068778,-0.14926271444543887,0.0002378135536478475,602.0,7.09515811681468,0.6171032728454007,9.17390285885615,-0.038868709032538605,0.113,0.9999999999998412,71827.27407215003,1.0977487802770773,221,2026-10-07 22:46:47.407244,55.9,0.5970294280588762,0.33354446546314076,0.14237646993991254
0936,cdot_cos,R,Q-R,222,44,31359,0.005127337605200742,0.4212190889231893,0.006104960872195977,0.5844983354720997,602.0,7.15445062490614,0.6177890474274336,9.204852736104662,-0.14390986584886173,0.036,0.9999999999998379,-153.1715516561456,1.1027159306795824,222,2026-10-07 22:46:47.443244,55.9,0.4819526765308392,1.5176784166058217,1.6470141136516583
0936,cdot_cos,S,R-S,223,44,31385,0.002029863157882685,-0.008277050453943297,-0.003097474447318057,0.4568206190707728,602.0,7.204430962810299,0.6183246952189796,9.23356002647445,-0.12217291440323091,0.026,0.9999999999998355,40.58067967178981,1.1076830660624397,223,2026-10-07 22:46:47.469243,55.9,0.8370097479878966,2.701068016783979,1.9223206886215176
0936,cdot_cos,T,S-T,224,44,31609,0.1949192860555759,-0.49354705938347276,0.19288942289769323,0.9999792411832727,602.0,7.294906161778907,0.6194962217003191,9.271773719672973,-0.22305902238561934,0.224,0.9999999999998342,-86.11508966236282,1.1126505189621654,224,2026-10-07 22:46:47.693243,55.9,0.6361732394959293,0.3892677944874725,0.40390713825271185
0936,cdot_cos,P,T-P,225,45,31812,0.23587145283258862,-0.0066544362502177394,0.040952166777012716,0.9079808117606517,576.0,7.378822934740687,0.6205587637134373,9.308384863233298,-0.20915159130553218,0.203,0.9999999999998324,13.088829343579484,1.1176179431027924,225,2026-10-07 22:46:47.896243,55.9,0.9356680593680315,0.24703620181426658,0.4133831180383263
0936,cdot_cos,Q,P-Q,226,45,31920,-0.000516662694697166,-0.0012161620495940422,-0.23638811552728578,1.8246954114902864e-06,576.0,7.395202859715499,0.6205587658475845,9.329047399641176,-0.041103872839896465,0.108,0.9999999999998259,78742328.11676857,1.1225852128922642,226,2026-10-07 22:46:48.004243,55.9,0.016766590579087984,0.48368022306237796,0.151665971989
0936,cdot_cos,R,Q-R,227,45,31947,0.05576945445845953,0.44837367549083457,0.0562861171531567,0.9587663979715004,576.0,7.483297862922161,0.6216794847155901,9.36654949853351,-0.2223726286323957,0.027,0.9999999999998243,-161.74328903294347,1.1275523497380728,227,2026-10-07 22:46:48.031244,55.9,0.4425695380100286,1.9955702656121166,3.2627778965430236
0936,cdot_cos,S,R-S,228,45,31966,0.0001256835026101234,-0.0011126758503063484,-0.05564377095584941,0.04267675150459712,576.0,7.502963654058553,0.6217293402198995,9.387910799200641,-0.04999807396593205,0.019,0.9999999999998188,3457.482920980163,1.132519473837624,228,2026-10-07 22:46:48.050244,55.9,0.03182115693009685,2.9280712843818426,1.0350416387575085
0936,cdot_cos,T,S-T,229,45,32194,0.19453344553652563,-0.5873373713684846,0.1944077620339155,0.9999809303590689,576.0,7.594564571728671,0.6228967917794334,9.426142540380033,-0.2343292214236359,0.228,0.9999999999998178,-157.89190219703542,1.1374869518960065,229,2026-10-07 22:46:48.278244,55.9,0.4553753708820826,0.30419479043809733,0.40175841083384806
0936,cdot_cos,P,T-P,230,46,32388,0.18768984955399198,0.44488485451986876,-0.006843595982533646,0.4055103243725455,601.0,7.641676478498326,0.6233698091963794,9.453875041138613,-0.12156649097895583,0.194,0.9999999999998131,238.39022920701555,1.1424543754382317,230,2026-10-07 22:46:48.472243,55.9,0.39550941091084324,0.20527534616249288,0.24284488025595383
0936,cdot_cos,Q,P-Q,231,46,32506,0.16411111379740942,0.4588806871545355,-0.023578735756582564,0.211142684283497,601.0,7.674211406039718,0.6236160087379561,9.478146700805562,-0.08436938940170587,0.118,0.9999999999998072,151.08517805938126,1.1474216689774102,231,2026-10-07 22:46:48.590244,55.9,0.6434674382632704,0.21873997084846264,0.27571972492705255
0936,cdot_cos,R,Q-R,232,46,32537,0.10367077425297258,0.46807212569161155,-0.06044033954443684,0.0329705254718648,601.0,7.693299111618563,0.62365444773161,9.49922557926473,-0.04966295829039534,0.031,0.999999999999801,902.8964551919081,1.1523888123861972,232,2026-10-07 22:46:48.621243,55.9,0.4971619839077102,0.5789552058264752,0.6157324380272575
0936,cdot_cos,S,R-S,233,46,32562,0.0011317725935025501,-0.004501775110960803,-0.10253900165947002,0.003230346834426746,601.0,7.710106628800959,0.623658213777769,9.51973352897702,-0.04383226863523103,0.025,0.9999999999997949,1548.2257543085555,1.1573559456686688,233,2026-10-07 22:46:48.646244,55.9,0.875445160673468,2.144952482579452,0.6723006872958592
0936,cdot_cos,T,S-T,234,46,32790,0.06509001738286736,-0.45235046411954133,0.06395824478936481,0.9727550967305446,601.0,7.8005467357475355,0.6247916024898759,9.557477781273759,-0.23721564899208675,0.228,0.9999999999997934,-170.62405712279434,1.1623234334361205,234,2026-10-07 22:46:48.874244,55.9,0.44254113846376236,0.3829829582078927,0.396667135730597
0936,cdot_cos,P,T-P,235,47,32989,0.1019704910773823,0.003329561132882098,0.03688047369451494,0.8871163475535222,599.0,7.8847468577437585,0.6258240200945728,9.593704798272297,-0.22308889136644,0.199,0.9999999999997902,13.683181651859961,1.1672908753389744,235,2026-10-07 22:46:49.073244,55.9,0.9386398241939605,0.2542123039780235,0.4231161909357937
0936,cdot_cos,Q,P-Q,236,47,33109,-0.002818062407463949,-0.007798993550220734,-0.10478855348484625,0.0028497217252957657,599.0,7.901723232730789,0.6258273347344216,9.614146345468912,-0.045269022629708236,0.12,0.9999999999997823,53646.81438925911,1.1722581777548322,236,2026-10-07 22:46:49.193243,55.9,0.01968163057336886,0.3470563921733616,0.14146979155858683
0936,cdot_cos,R,Q-R,237,47,33136,0.008142183242977089,0.3796852641403037,0.010960245650441038,0.6485513866729498,599.0,7.968040391865365,0.6265813864515657,9.646102331331646,-0.17762916078387808,0.027,0.9999999999997783,-175.5319100067582,1.177225313907548,237,2026-10-07 22:46:49.220243,55.9,0.47466371242772526,2.1520634301219506,2.456191079058384
0936,cdot_cos,S,R-S,238,47,33160,0.0032439763370311404,-0.013561001929619643,-0.004898206905945949,0.43197204316334886,599.0,8.017934657957374,0.6270832868277241,9.674174281286934,-0.1345461562045502,0.024,0.999999999999773,85.83975351660709,1.1821924453329726,238,2026-10-07 22:46:49.244244,55.9,0.7259966702380459,2.4968803444943566,2.078927753833707
0936,cdot_cos,T,S-T,239,47,33390,0.01771451180781106,-0.2234467351836106,0.01447053547077992,0.6918756766776706,599.0,8.087890648401094,0.6278865939393286,9.70689569866018,-0.189892957552817,0.23,0.9999999999997701,-68.89868214625949,1.1871599551652203,239,2026-10-07 22:46:49.474244,55.9,0.747169539301099,0.35465919221575215,0.30415648019008756
0936,cdot_cos,P,T-P,240,48,33588,0.10250268959178252,-0.011934383526746598,0.08478817778397146,0.9913341284381297,564.0,8.18107788637662,0.6290363582984488,9.744994078585533,-0.25519254139504105,0.198,0.9999999999997666,-56.7938841765685,1.1921274105485709,240,2026-10-07 22:46:49.672243,55.9,0.774232091270755,0.2787067791417248,0.4706426160380094
0936,cdot_cos,Q,P-Q,241,48,33697,-0.008696441185410077,-0.018618846885585457,-0.1111991307771926,0.0019931747211514787,564.0,8.198258532941217,0.629038668545609,9.765311086672495,-0.04736814023525866,0.109,0.9999999999997579,89957.6481453146,1.197094700849548,241,2026-10-07 22:46:49.781244,55.9,0.012432639650042765,0.47810920435033405,0.1576206106843777
0936,cdot_cos,R,Q-R,242,48,33721,0.03196762556393973,0.39550541714995974,0.0406640667493498,0.906626359657808,564.0,8.285305692924993,0.6300889067934373,9.801888050924997,-0.241240010004454,0.024,0.9999999999997543,-184.59799018944278,1.2020618316402714,242,2026-10-07 22:46:49.805243,55.9,0.44769313560448365,2.468383940938438,3.6269649993239854
0936,cdot_cos,S,R-S,243,48,33745,0.005456333711513088,-0.022859878094871455,-0.02651129185242664,0.18512835502655142,564.0,8.316740962106262,0.6303032090214357,9.82545965089045,-0.08772401180274417,0.024,0.9999999999997476,716.3527866023752,1.2070289631202835,243,2026-10-07 22:46:49.829243,55.9,0.1737759688564618,1.0127558243608892,1.3098028825528907
0936,cdot_cos,T,S-T,244,48,33970,-0.11712499731147163,-0.16346015401915442,-0.12258133102298473,0.001055909422555027,564.0,8.333917972494316,0.6303044311815389,9.845674984054114,-0.04807487362694201,0.225,0.9999999999997393,32441.85280714834,1.2119964794278386,244,2026-10-07 22:46:50.054244,55.9,0.438350161983781,0.2488564332283892,0.07634226839134801
0936,cdot_cos,P,T-P,245,49,34152,0.08789828501110332,0.0018963528749939168,0.20502328232257494,0.999989465047472,597.0,8.428726357059038,0.6314611150355454,9.88393508755226,-0.2667863559965655,0.182,0.9999999999997361,-189.08492723578766,1.2169639154389604,245,2026-10-07 22:46:50.236243,55.9,0.4405197038686302,0.3081830746018757,0.5209251899160541
0936,cdot_cos,Q,P-Q,246,49,34277,-0.020105380884779988,-0.03495985470388999,-0.10800366589588331,0.0023820595110612595,597.0,8.446096611649399,0.6314638685565647,9.904129195315427,-0.049206052913577235,0.125,0.999999999999726,79018.9366841608,1.2219312423695128,246,2026-10-07 22:46:50.361243,55.9,0.01201235131965586,0.3626875800096485,0.1389620367228872
0936,cdot_cos,R,Q-R,247,49,34304,-0.003272180296351302,0.3629037776229953,0.016833200588428687,0.719296745115802,597.0,8.51939825206145,0.6322949408542313,9.937300551844714,-0.2085662093368345,0.027,0.999999999999721,-191.75245868582246,1.226898378397434,247,2026-10-07 22:46:50.388243,55.9,0.46576472026563764,2.5844984376068365,2.7148755708167123
0936,cdot_cos,S,R-S,248,49,34325,0.00600646344164156,-0.019554172639216594,0.009278643737992863,0.6268381620122894,597.0,8.585659527280168,0.633018546705529,9.968791583112761,-0.1899281332405199,0.021,0.9999999999997159,25.75722136974026,1.2318655034001178,248,2026-10-07 22:46:50.409244,55.9,0.9065290023858877,1.997175569998069,3.1552988199389493
0936,cdot_cos,T,S-T,249,49,34549,-0.0919004051891861,-0.10667189493941827,-0.09790686863082766,0.004181087873345965,597.0,8.603279626001369,0.6330233712374117,9.98894586360934,-0.05075281119249555,0.224,0.9999999999997067,28847.42508348642,1.236833033224391,249,2026-10-07 22:46:50.633244,55.9,0.06442722555265876,0.25313421111045065,0.07866115500536143
0936,cdot_cos,P,T-P,250,50,34749,0.06429818517343976,-0.00188343076901665,0.15619859036262584,0.9998386061017837,597.0,8.69906365385765,0.6341763116928345,10.027213691330752,-0.2773474981460422,0.2,0.9999999999997027,-196.53633098549807,1.2418005175849116,250,2026-10-07 22:46:50.833244,55.9,0.4417520967050269,0.2836112810497937,0.47892013928140464
0936,cdot_cos,Q,P-Q,251,50,34863,-0.0365779140669113,-0.053859507966610196,-0.10087609924035106,0.003543911728720422,597.0,8.716724138421286,0.6341803955471856,10.047312998391792,-0.05147188442222312,0.114,0.9999999999996919,55309.41955878726,1.246767829747718,251,2026-10-07 22:46:50.947244,55.9,0.01242145594344639,0.47580224764913004,0.1549165312599698
0936,cdot_cos,R,Q-R,252,50,34893,0.01020323378129575,0.33687856995029464,0.04678114784820705,0.9318249405786845,597.0,8.807546566321651,0.6352535203716876,10.084343092785375,-0.2660208250196784,0.03,0.9999999999996873,-199.92915614176616,1.2517349718283932,252,2026-10-07 22:46:50.977243,55.9,0.4464125193335456,3.117559087615411,3.0274142633455035
0936,cdot_cos,S,R-S,253,50,34918,0.11428987366369073,-0.1044366081460406,0.10408663988239497,0.997036579163368,597.0,8.90377768367821,0.6364002581541874,10.122571881091261,-0.28448859355549594,0.025,0.999999999999684,-16.104613293161417,1.2567021047592388,253,2026-10-07 22:46:51.002244,55.9,0.9371464867170683,2.276977565462417,3.8492446942623815
0936,cdot_cos,T,S-T,254,50,35147,-0.02208047487292015,-0.027321917540166996,-0.13637034853661087,0.0004887832658034937,597.0,8.921395444594772,0.6364008199475877,10.142566193596727,-0.05241826442188706,0.229,0.9999999999996743,413088.3862869151,1.2616696650659753,254,2026-10-07 22:46:51.231244,55.9,0.011946942241737528,0.2497236744311059,0.07693345378411051
0936,cdot_cos,P,T-P,255,51,35346,0.09581141477259751,0.0033185847452123366,0.11789188964551767,0.9986280600421192,600.0,9.018151126567657,0.637547835467719,10.180828868632013,-0.2893315462025772,0.199,0.9999999999996698,-206.5475816347893,1.2666371649223833,255,2026-10-07 22:46:51.430244,55.9,0.44094736504550336,0.28783831425056783,0.4862094571501769
0936,cdot_cos,Q,P-Q,256,51,35470,-0.017896805691341663,-0.03251673224330419,-0.11370822046393918,0.001732787640207151,600.0,9.035955093666498,0.6375498243763631,10.200803777773654,-0.053579636503415094,0.124,0.9999999999996574,118533.30237012189,1.2716045073125437,256,2026-10-07 22:46:51.554244,55.9,0.012276994113526537,0.39055219151812137,0.14358037982936128
0936,cdot_cos,R,Q-R,257,51,35493,0.003854421895683397,0.36196014975074625,0.02175122758702506,0.7713400959721125,600.0,9.115008070064151,0.6384347067459297,10.234893662463307,-0.2389271479656902,0.023,0.9999999999996512,-209.46005688083562,1.2765716347514093,257,2026-10-07 22:46:51.577244,55.9,0.4603588134766774,3.1153128798112655,3.437085930332752
0936,cdot_cos,S,R-S,258,51,35518,0.009868455393802725,-0.03133688381719465,0.006014033498119327,0.5832633889990827,600.0,9.179259486137816,0.639103204613004,10.265524236276368,-0.19556725293488925,0.025,0.9999999999996441,64.86168044270796,1.2815387673538248,258,2026-10-07 22:46:51.602243,55.9,0.801144880363775,1.6516769365096806,2.5700566429465965
0936,cdot_cos,T,S-T,259,51,35746,-0.07874361155151381,-0.09107162663027879,-0.08861206694531654,0.007009779693692584,600.0,9.197591916889635,0.6391112354871695,10.285528672211017,-0.05605127646011436,0.228,0.9999999999996328,17372.45206418338,1.28650634168443,259,2026-10-07 22:46:51.830244,55.9,0.08298647832609161,0.2547238916644553,0.08040539803429438
0936,cdot_cos,P,T-P,260,52,35946,0.08024136878270591,0.0034736906347853907,0.1589849803342197,0.9998618814976659,623.0,9.295413580736808,0.6402559456070264,10.323823918789016,-0.30056205013833076,0.2,0.9999999999996275,-213.60060458694596,1.2914738575518396,260,2026-10-07 22:46:52.030244,55.9,0.4432985547105673,0.2898067793587167,0.4891083192358625
0936,cdot_cos,Q,P-Q,261,52,36072,-0.023572509705109834,-0.038583026090468,-0.10381387848781574,0.0030088144222203466,623.0,9.313514628633122,0.6402593879034967,10.34371420626832,-0.05596481113328874,0.126,0.9999999999996145,71056.41280886177,1.296441212007657,261,2026-10-07 22:46:52.156243,55.9,0.012644231497009705,0.43160216102812654,0.14365911028820771
0936,cdot_cos,R,Q-R,262,52,36096,0.016945534119055902,0.3411442751513244,0.04051804382416574,0.9059330504686881,623.0,9.404177325315896,0.6412951817124479,10.380276714841424,-0.281592097924792,0.024,0.9999999999996082,-217.83031028149665,1.3014083410365493,262,2026-10-07 22:46:52.180243,55.9,0.4487650747127728,3.6925566947709765,3.777612361782238
0936,cdot_cos,S,R-S,263,52,36121,0.04829095377784711,-0.0677808301527217,0.03134541965879121,0.8522311996928552,623.0,9.490757349982129,0.6422683743592383,10.41585006250835,-0.27113234035727846,0.025,0.9999999999996027,10.747879776948409,1.3063754733630715,263,2026-10-07 22:46:52.205244,55.9,0.9621566034115254,2.0933651115333873,3.4632009866493263
0936,cdot_cos,T,S-T,264,52,36346,-0.07996753385062336,-0.06765075902697873,-0.12825848762847047,0.000769000641002879,623.0,9.508845580892565,0.6422692519799708,10.435647535916278,-0.05695850246897294,0.225,0.9999999999995901,244039.17316047745,1.31134306045804,264,2026-10-07 22:46:52.430244,55.9,0.023279706593784612,0.25985274817981086,0.08039213737971648
0936,cdot_cos,P,T-P,265,53,36569,0.08728756644850835,-0.01281247553678844,0.1672551002991317,0.9999130038859692,601.0,9.607691086663044,0.64340959233115,10.473956994882307,-0.31272864539096773,0.223,0.9999999999995846,-224.292811051975,1.3163106458962306,265,2026-10-07 22:46:52.653243,55.9,0.4413725157517996,0.2624832111605947,0.44325338910528556
0936,cdot_cos,Q,P-Q,266,53,36678,-0.030758436944747836,-0.03784049223891764,-0.11804600339325619,0.0013601875244667278,601.0,9.62591309307019,0.6434111424396182,10.493726118379131,-0.05800397504424898,0.109,0.9999999999995697,164326.99748575408,1.3212779706163538,266,2026-10-07 22:46:52.762244,55.9,0.012382096400670598,0.5356309709096524,0.16717437070776653
0936,cdot_cos,R,Q-R,267,53,36706,0.05423054159829148,0.3559588403830768,0.08498897854303931,0.9914300279349194,601.0,9.724458638321348,0.644540203592013,10.53188177977656,-0.3151455151159384,0.028,0.9999999999995635,-227.7481069349205,1.3262451086377445,267,2026-10-07 22:46:52.790244,55.9,0.4422210445136236,2.5339427428008636,3.5194837589699164
0936,cdot_cos,S,R-S,268,53,36729,0.039869595771935905,-0.0656012664745659,-0.014360945826355574,0.30943183266280816,601.0,9.767813886667039,0.644892262605361,10.557349430686937,-0.13960334999533025,0.023,0.9999999999995526,498.61573902409185,1.3312122358101812,268,2026-10-07 22:46:52.813244,55.9,0.2843824785588182,1.339140981333456,1.8850107976387267
0936,cdot_cos,T,S-T,269,53,36948,-0.097027560833006,-0.08385617759100324,-0.1368971566049419,0.00047460590462109414,601.0,9.786059123462687,0.6448928024724149,10.57703649465776,-0.05893507521776345,0.219,0.9999999999995389,149422.4813385042,1.3361798245716479,269,2026-10-07 22:46:53.032243,55.9,0.25442094724904873,0.26949055335615907,0.08331158354177291
0936,cdot_cos,P,T-P,270,54,37170,0.10809623165867806,0.0007895203422395015,0.20512379249168405,0.9999895240717074,638.0,9.885850749037036,0.6460294757500414,10.61535588445664,-0.3238205211881346,0.222,0.9999999999995323,-233.0356938833524,1.3411474233565415,270,2026-10-07 22:46:53.254244,55.9,0.4413130454220278,0.266326571664811,0.4495118269114838
0936,cdot_cos,Q,P-Q,271,54,37297,-0.002778726487012621,-0.007997566787125893,-0.11087495814569068,0.0020295488104793784,638.0,9.904308121281863,0.6460317810361245,10.635034008141128,-0.060253439933351575,0.127,0.999999999999516,114331.61514980908,1.346114797395914,271,2026-10-07 22:46:53.381243,55.9,0.012596861075352715,0.4094611996058378,0.14533363972304478
0936,cdot_cos,R,Q-R,272,54,37324,0.024516180408604978,0.35180706663002065,0.027294906895617598,0.821388815512304,638.0,9.98985389373692,0.6469642066487393,10.670015865778026,-0.2803932173996475,0.027,0.9999999999995076,-236.09366204446437,1.3510819323879963,272,2026-10-07 22:46:53.408243,55.9,0.45606911083134666,2.2677116942201603,3.1683619427798564
0936,cdot_cos,S,R-S,273,54,37345,0.0025137550180678804,-0.012185779321767159,-0.022002425390537098,0.22619270105320044,638.0,10.026764552769752,0.6472207804833066,10.693851168857814,-0.12168648617907869,0.021,0.9999999999994945,618.561637387005,1.3560490536113128,273,2026-10-07 22:46:53.429244,55.9,0.27138238764922734,1.3158339240831396,1.757650430134882
0936,cdot_cos,T,S-T,274,54,37568,-0.1648101834316798,-0.14185246691355505,-0.1673239384497477,8.6662020634533e-05,638.0,10.045118918548411,0.6472208787691041,10.713420698288623,-0.06067746737183422,0.223,0.9999999999994792,620730.7704534327,1.361016665484676,274,2026-10-07 22:46:53.652243,55.9,0.3658747706782516,0.26690584486639424,0.08230657299847238
0936,cdot_cos,P,T-P,275,55,37808,0.07206561690746793,0.0007728998158042518,0.23687580033914774,0.9999982243766516,696.0,10.145804559580164,0.6483541733067255,10.75174676646591,-0.3343380372340674,0.24,0.9999999999994724,-241.4734747037508,1.3659843219514438,275,2026-10-07 22:46:53.892244,55.9,0.44108635114993033,0.2490414665253275,0.4195235042989687
0936,cdot_cos,Q,P-Q,276,55,37934,-0.02219068452131804,-0.02823959830327584,-0.09425630142878597,0.005122753611438252,696.0,10.164658822480568,0.6483599746176401,10.771374344856081,-0.06297793636941743,0.126,0.999999999999454,46775.65206587234,1.3709516999558824,276,2026-10-07 22:46:54.018244,55.9,0.013449515379499347,0.47256288557911,0.1496370071460691
0936,cdot_cos,R,Q-R,277,55,37963,0.059801862091571054,0.2995427709858358,0.0819925466128891,0.9898831379864518,696.0,10.2648904067461,0.6494801535408036,10.809513686545698,-0.3362684719692119,0.029,0.9999999999994469,-243.97043181993618,1.3759188390010657,277,2026-10-07 22:46:54.047244,55.9,0.4436517769214756,2.150904523433208,3.4562615263976215
0936,cdot_cos,S,R-S,278,55,37982,0.014218685011317027,-0.043029451600963935,-0.04558317708025403,0.07255425979171175,696.0,10.289411284839694,0.6495621933323118,10.830375748593529,-0.08275893635924644,0.019,0.9999999999994305,3090.0802031480825,1.3808859538273828,278,2026-10-07 22:46:54.066243,55.9,0.04673656062883068,1.1319776048058958,1.2905725312418446
0936,cdot_cos,T,S-T,279,55,38208,-0.16041497065774682,-0.06841227239741512,-0.17463365566906386,5.7594761054128624e-05,696.0,10.307905555728723,0.6495622584533309,10.84983843668414,-0.06254953180810442,0.226,0.9999999999994135,310336.12219675846,1.3858535870353685,279,2026-10-07 22:46:54.292243,55.9,0.7239055017158141,0.26563607833606845,0.08183305703110175
0936,cdot_cos,P,T-P,280,56,38504,0.049643497502453234,0.00062691411089277,0.21005846816020005,0.9999920495046312,781.0,10.409478792247597,0.6506920838474243,10.88817107476102,-0.34501853602322874,0.296,0.9999999999994057,-250.0112014580792,1.390821399906569,280,2026-10-07 22:46:54.588243,55.9,0.4410016113426527,0.20434136249051188,0.3431528260772769
0936,cdot_cos,Q,P-Q,281,56,38626,-0.03276252914946902,-0.03033845535701144,-0.08240602665192226,0.009887992926417427,781.0,10.428875642323106,0.6507032472199736,10.90778443678606,-0.0662699556534621,0.122,0.9999999999993855,24969.925453730706,1.395788773763216,281,2026-10-07 22:46:54.710243,55.9,0.014902016448653176,0.4970601233296616,0.15899057438941858
0936,cdot_cos,R,Q-R,282,56,38651,0.09457331984454372,0.24338931878610398,0.12733584899401273,0.9991903301262118,781.0,10.530761462340035,0.6518304620030536,10.946105350926624,-0.3495965783495931,0.025,0.999999999999377,-251.35105301047906,1.400755901263962,282,2026-10-07 22:46:54.735244,55.9,0.44466291644874384,2.425028433690173,4.0754328006771345
0936,cdot_cos,S,R-S,283,56,38680,0.009444083985137916,-0.06813067537160003,-0.0851292358594058,0.008503612050894852,781.0,10.550127064007615,0.6518400478968227,10.965657423091654,-0.06683197407138063,0.029,0.9999999999993586,29497.990598425935,1.4057230398154672,283,2026-10-07 22:46:54.764243,55.9,0.014538166945886517,0.6602424651162813,0.6677793678475958
0936,cdot_cos,T,S-T,284,56,38904,-0.09092959195220278,0.0011680230455457998,-0.1003736759373407,0.003644487126900197,781.0,10.569055525316779,0.6518441561917625,10.985083531618876,-0.06544167695864034,0.224,0.9999999999993394,338.41219608464263,1.4106906811513371,284,2026-10-07 22:46:54.988243,55.9,0.9789792545657741,0.27087542135359466,0.08450205941591087
0936,cdot_cos,P,T-P,285,57,39285,0.05522875837043524,-0.00261294710526178,0.14615835032263802,0.9997171332699473,740.0,10.671479252774025,0.6529702456715407,11.023417331089039,-0.35560705048710145,0.381,0.9999999999993308,-257.67523694974034,1.4156587334058313,285,2026-10-07 22:46:55.369244,55.9,0.44220931915959705,0.1624557436312653,0.26882868099014795
0936,cdot_cos,Q,P-Q,286,57,39396,-0.005959927209984383,-0.007971286747434003,-0.06118868558041962,0.03166250442305232,740.0,10.692846801963803,0.653005882697535,11.043342930809166,-0.07461525192063369,0.111,0.9999999999993079,7884.827387432669,1.4206260833633837,286,2026-10-07 22:46:55.480243,55.9,0.023147322532203984,0.5591018145420787,0.19250044315115125
0936,cdot_cos,R,Q-R,287,57,39420,0.11997026423034925,0.27250878089555963,0.12593019144033363,0.9991242009464829,740.0,10.795599855602367,0.6541295420684979,11.081668733992192,-0.3603472446199857,0.024,0.9999999999992981,-254.28701978829437,1.425593205905618,287,2026-10-07 22:46:55.504243,55.9,0.45251465050918105,2.5340600215479903,4.2813772349401535
0936,cdot_cos,S,R-S,288,57,39452,-0.002306653566996515,-0.013147043231050877,-0.12227691779734576,0.0010740118023126644,740.0,10.814481682998107,0.6541307490273482,11.10097846802629,-0.06659191256246513,0.032,0.9999999999992769,243384.71190006527,1.4305603504206026,288,2026-10-07 22:46:55.536243,55.9,0.012139673405097348,0.588163332991859,0.5900571061168702
0936,cdot_cos,T,S-T,289,57,39665,-0.19557962342158977,-0.06663305906235703,-0.19327296985459325,2.0318488282525833e-05,740.0,10.833242308913846,0.6541307718609509,11.120234696213545,-0.0662797121488108,0.213,0.9999999999992554,13672.849532065842,1.4355279753333299,289,2026-10-07 22:46:55.749243,55.9,0.995300729731449,0.28656252544604255,0.08807805594243721
0936,cdot_cos,P,T-P,290,58,40025,0.055738594287422435,0.0022728789917939767,0.2513182177090122,0.9999992079878957,721.0,10.93655731883812,0.655253693469833,11.158580174366792,-0.36649761747142484,0.36,0.9999999999992462,-267.35428630810793,1.4404959962690214,290,2026-10-07 22:46:56.109244,55.9,0.4408045183965762,0.17065694405534862,0.28698613867854167
0936,cdot_cos,Q,P-Q,291,58,40150,-0.029508686967639128,-0.03296753574831425,-0.08524728125506156,0.008448156169079138,721.0,10.956115308633697,0.6552631727364439,11.177964760203295,-0.0697703603597444,0.125,0.9999999999992202,31302.76521299015,1.4454633883387527,291,2026-10-07 22:46:56.234244,55.9,0.014222745811961677,0.49211933957086273,0.15646391836460793
0936,cdot_cos,R,Q-R,292,58,40173,0.07729617447849726,0.2858487135138593,0.10680486144613639,0.9974532614586717,721.0,11.059587153730837,0.6563814968508512,11.216264474278955,-0.37062251058547074,0.023,0.9999999999992096,-269.0205338057601,1.4504305059175429,292,2026-10-07 22:46:56.257244,55.9,0.444081051479651,2.7799033436239036,4.4987758737886825
0936,cdot_cos,S,R-S,293,58,40198,0.029447196334912197,-0.07942345039440411,-0.04784897814358507,0.0644793695140368,721.0,11.083990862440396,0.6564537303133903,11.236690420180777,-0.08790982809830707,0.025,0.999999999999187,3913.8741595609804,1.455397629747306,293,2026-10-07 22:46:56.282243,55.9,0.04011762840222209,0.8739311393007654,0.9761483483823952
0936,cdot_cos,T,S-T,294,58,40424,-0.06662783821974115,-0.01837644605079866,-0.09607503455465335,0.004629830535296166,721.0,11.103283710695875,0.6564589166347656,11.255938249406993,-0.06963556011157693,0.226,0.9999999999991637,3523.551022801339,1.460365302801599,294,2026-10-07 22:46:56.508243,55.9,0.7691823264835794,0.272916484926963,0.0853665852012318
0936,cdot_cos,P,T-P,295,59,40746,0.051342873604298726,0.0004202675024960786,0.11797071182403987,0.9986340834919479,699.0,11.207349113627384,0.6575767095177725,11.294263763620563,-0.3771135591132548,0.322,0.9999999999991529,-275.07600350305336,1.4653332432650334,295,2026-10-07 22:46:56.830244,55.9,0.4424862393284566,0.1921677309491454,0.3231844811537543
0936,cdot_cos,Q,P-Q,296,59,40871,-0.03422752868067722,-0.038400149723374785,-0.08557040228497595,0.00829818638631117,699.0,11.227039729427124,0.6575859905572099,11.313550523043922,-0.07175003955798988,0.125,0.9999999999991253,32901.8663926692,1.4703006413728856,296,2026-10-07 22:46:56.955244,55.9,0.01417982345342597,0.49579490383517566,0.15752492639792592
0936,cdot_cos,R,Q-R,297,59,40894,0.06725238641002905,0.28983316560167466,0.10147991509070628,0.996573307711341,699.0,11.331297839586178,0.6586997216099387,11.351838960135101,-0.38140397211468563,0.023,0.9999999999991144,-278.03295220869677,1.4752677570085906,297,2026-10-07 22:46:56.978244,55.9,0.4440228962903012,2.9136762526678943,4.532961311263182
0936,cdot_cos,S,R-S,298,59,40918,0.0324275963565372,-0.07017526459358667,-0.03482479005349185,0.12491300557635987,699.0,11.361068837049848,0.6588391963432877,11.373341435851911,-0.109535805417804,0.024,0.9999999999990905,1949.2287969941349,1.4802348762900808,298,2026-10-07 22:46:57.002244,55.9,0.08357567940906543,1.020199543108798,1.2404582276529148
0936,cdot_cos,T,S-T,299,59,41143,-0.0808579484481967,-0.028654514262070014,-0.1132855448047339,0.0017741432059837062,699.0,11.3802674176554,0.6588411771092147,11.3924424847941,-0.0707891964358734,0.225,0.999999999999065,19561.42745221234,1.4852025610994195,299,2026-10-07 22:46:57.227243,55.9,0.578479592022211,0.27602389213861045,0.085327024913566
0936,cdot_cos,P,T-P,300,60,41445,0.05765643213506496,-0.005172584878078538,0.13851438058326165,0.999566399766303,660.0,11.485279588512222,0.6599562731271366,11.430791811495217,-0.38870067787676477,0.302,0.9999999999990542,-285.09785375556993,1.4901704673169578,300,2026-10-07 22:46:57.529243,55.9,0.4413652574687486,0.20656582778910473,0.34772242005570314
0936,cdot_cos,Q,P-Q,301,60,41553,-0.030329610164575565,-0.029388570637408393,-0.08798604229964052,0.007257616241787047,660.0,11.50503317764002,0.6599643631166655,11.449968073748334,-0.0735157416486463,0.108,0.9999999999990243,38959.86949059953,1.495137823578463,301,2026-10-07 22:46:57.637243,55.9,0.013741810912996392,0.5789609443769766,0.1829036030351565
0936,cdot_cos,R,Q-R,302,60,41582,0.08827452454834311,0.3027627942605762,0.11860413471291868,0.998681539434138,660.0,11.61033515249765,0.661076691714416,11.488302496746687,-0.3934003431255515,0.029,0.9999999999990126,-287.58102787596346,1.5001049549255847,302,2026-10-07 22:46:57.666244,55.9,0.44346898660311257,2.1665029904479565,3.6311025812975877
0936,cdot_cos,S,R-S,303,60,41603,0.011213290976883535,-0.04535471652745884,-0.07706123357145958,0.013285297672360068,660.0,11.630690351086,0.6610914768901195,11.507564508480073,-0.07645734166161794,0.021,0.9999999999989858,21436.53939725462,1.5050720640050494,303,2026-10-07 22:46:57.687244,55.9,0.01583777567439863,0.9452580580177536,0.9692951708738782
0936,cdot_cos,T,S-T,304,60,41824,-0.10037079423234399,-0.03947370026730342,-0.11158408520922752,0.0019508246600931285,660.0,11.650035990934395,0.661093647931706,11.526576086671735,-0.0727891848995871,0.221,0.9999999999989587,1689.5838314788296,1.5100397512706936,304,2026-10-07 22:46:57.908243,55.9,0.9508544712408332,0.28330545374834726,0.08753683189318649
0936,cdot_cos,P,T-P,305,61,42105,0.05042915013328978,-0.007735721959593379,0.15079994436563376,0.9997817643573778,617.0,11.75591136164277,0.6622053956588153,11.564934833681878,-0.3998625186860014,0.281,0.9999999999989472,-294.197438691282,1.5150076164471462,305,2026-10-07 22:46:58.189243,55.9,0.44132907872899624,0.22312646795885624,0.37678067867749204
0936,cdot_cos,Q,P-Q,306,61,42211,-0.0532325374974769,-0.054397020889134846,-0.10366168763076669,0.003034443006147707,617.0,11.775433065927272,0.6622087672109609,11.583937615507203,-0.07412288353652181,0.106,0.9999999999989156,96614.14715960764,1.5199749720475277,306,2026-10-07 22:46:58.295244,55.9,0.01234394823246299,0.5928509936595122,0.1841670215519052
0936,cdot_cos,R,Q-R,307,61,42237,0.06886591376902347,0.31619316205092357,0.12209845126650037,0.9989152316129907,617.0,11.881595772298587,0.6633177586216971,11.622281377946848,-0.4045927556707818,0.026,0.9999999999989044,-297.9913721016896,1.5249420936328133,307,2026-10-07 22:46:58.321243,55.9,0.44184492116575425,3.0562017621887843,4.083181014281332
0936,cdot_cos,S,R-S,308,61,42260,0.060368056092605336,-0.10152790783444025,-0.008497857676418134,0.38342634542537407,617.0,11.934355557561089,0.6637429604508831,11.648657030709858,-0.20229560912288197,0.023,0.9999999999988829,475.76734779141407,1.5299092073315481,308,2026-10-07 22:46:58.344243,55.9,0.36787664533761444,1.5695112864064196,2.29390370706531
0936,cdot_cos,T,S-T,309,61,42463,-0.06485966568563063,-0.04852697061551592,-0.12522772177823596,0.0009108421884261493,617.0,11.953793291473282,0.663743970216699,11.667569602955034,-0.07475553257553161,0.203,0.9999999999988541,126306.58965198595,1.5348768581684413,309,2026-10-07 22:46:58.547244,55.9,0.18157336642662847,0.31086210180898227,0.09575238380390722
0936,cdot_cos,P,T-P,310,62,42722,0.09474140831170187,-0.004324395560128823,0.1596010739973325,0.9998665566465245,599.0,12.060565570895536,0.6648515252538048,11.705934702006598,-0.4121312081750179,0.259,0.9999999999988436,-304.61301181122076,1.5398446802739392,310,2026-10-07 22:46:58.806243,55.9,0.44104326645168224,0.2438850591017954,0.41224818309750444
0936,cdot_cos,Q,P-Q,311,62,42844,-0.022942628639553715,-0.03522056631310732,-0.1176840369512556,0.001387951193271408,599.0,12.080125752088012,0.6648530614339666,11.724827518331997,-0.07589760043494581,0.122,0.9999999999988105,218876.4157286453,1.544812091187402,311,2026-10-07 22:46:58.928244,55.9,0.011913353526993199,0.4720663483718774,0.16032935403669163
0936,cdot_cos,R,Q-R,312,62,42867,0.010859310553386696,0.3508386324551543,0.03380193919294041,0.8687017497811341,599.0,12.175749759898274,0.6658138518626362,11.760633670382086,-0.3722795983569388,0.023,0.999999999998797,-308.47725901307587,1.549779203018162,312,2026-10-07 22:46:58.951244,55.9,0.4510723979592135,4.0540296750158,4.1575655569679
0936,cdot_cos,S,R-S,313,62,42895,0.037042638823322836,-0.05560489033526657,0.02618332826993614,0.8120900005543044,599.0,12.266611117138739,0.666710786916306,11.795334128434519,-0.3559796609528557,0.028,0.9999999999987833,18.172929397052165,1.554746331373801,313,2026-10-07 22:46:58.979244,55.9,0.9552435383389145,1.9737291894590392,3.2450484728737523
0936,cdot_cos,T,S-T,314,62,43122,-0.08653946328744885,-0.0940545587371877,-0.1235821021107717,0.0009985178537504607,599.0,12.28627859450798,0.666711889015665,11.814181016522218,-0.07740229436480166,0.227,0.9999999999987536,252769.7383308662,1.5597140745313136,314,2026-10-07 22:46:59.206244,55.9,0.02734875983729629,0.2805522662548666,0.08664086946802257
0936,cdot_cos,P,T-P,315,63,43321,0.08857943057493704,0.006683954300548425,0.17511889386238588,0.9999439464022385,605.0,12.393981846018448,0.6678146461022035,11.852550774939836,-0.4253623169538254,0.199,0.9999999999987422,-315.5364194314547,1.5646817341117227,315,2026-10-07 22:46:59.405244,55.9,0.4412992403978163,0.32048829503568943,0.5412223693993383
0936,cdot_cos,Q,P-Q,316,63,43451,-0.02102856550046887,-0.04096818786315172,-0.10960799607540592,0.002178175820397267,605.0,12.413832935932184,0.6678170462340459,11.871392407911259,-0.07880472308056374,0.13,0.9999999999987091,144391.06542124538,1.5696491801541437,316,2026-10-07 22:46:59.535244,55.9,0.012305912727400982,0.3530118562101059,0.15270069164412364
0936,cdot_cos,R,Q-R,317,63,43475,-0.014411748802493081,0.3500723351988401,0.006616816697975789,0.5914299947916204,605.0,12.485764928633076,0.6684684201414386,11.901758965417127,-0.2863283195617192,0.024,0.9999999999986893,-318.5936589198572,1.5746162946187583,317,2026-10-07 22:46:59.559244,55.9,0.4844335734114079,3.675245149145079,2.997166362537144
0936,cdot_cos,S,R-S,318,63,43499,0.041256968111118224,-0.054991169496907015,0.055668716913611305,0.957380184240285,605.0,12.590244703091148,0.6695214681160789,11.939295171546139,-0.41815995378050363,0.024,0.9999999999986785,-125.19053015016736,1.5795834102469146,318,2026-10-07 22:46:59.583244,55.9,0.7295947444370625,2.590958165940941,4.353323935753013
0936,cdot_cos,T,S-T,319,63,43727,-0.07914207582465595,-0.09386391823027959,-0.12039904393577416,0.001192742489497963,605.0,12.610130920598241,0.669522778988869,11.958076316852027,-0.07998538264702294,0.228,0.9999999999986482,257976.65012871724,1.5845511766655644,319,2026-10-07 22:46:59.811244,55.9,0.014582185624344341,0.28174334167526116,0.08722025222409145
0936,cdot_cos,P,T-P,320,64,43926,0.07350064233560918,-0.004848138660096709,0.15264271816026515,0.9998031217110668,575.0,12.718719666895067,0.6706206758656473,11.996444836030426,-0.4382456161669526,0.199,0.9999999999986363,-326.31501291015377,1.5895188535281695,320,2026-10-07 22:47:00.010243,55.9,0.4415397105746035,0.32310701189551305,0.5456720919438505
0936,cdot_cos,Q,P-Q,321,64,44038,-0.04083369325788453,-0.056052963717653004,-0.11433433559349371,0.0016732891305211795,575.0,12.738727511332655,0.6706225117705509,12.015207869559598,-0.08115807417230829,0.112,0.9999999999986021,194502.19959913424,1.5944862518068992,321,2026-10-07 22:47:00.122243,55.9,0.012278547812051758,0.553505137136526,0.17864146819274968
0936,cdot_cos,R,Q-R,322,64,44066,0.009733190941100447,0.3644302186544395,0.050566884198984974,0.9441011142926101,575.0,12.84270481761365,0.6716575322359711,12.05248149787753,-0.4231383237204571,0.028,0.9999999999985898,-330.4091667494638,1.599453379231673,322,2026-10-07 22:47:00.150244,55.9,0.44565968317495797,3.798423951499557,3.7134752243212104
0936,cdot_cos,S,R-S,323,64,44091,0.10378096498669664,-0.09113109293571328,0.0940477740455962,0.9948174939742188,575.0,12.95143925261663,0.6727463514800934,12.090750467740147,-0.4454183015933316,0.025,0.9999999999985802,-20.462512940643805,1.604420498252998,323,2026-10-07 22:47:00.175244,55.9,0.9512100703164901,2.576424860714397,4.349377400119252
0936,cdot_cos,T,S-T,324,64,44323,-0.028914156667408777,-0.042159931298479725,-0.1326951216541054,0.0006001939682224507,575.0,12.971526060649369,0.6727470078275185,12.109464143763056,-0.08269429523187102,0.232,0.9999999999985488,552640.251950706,1.6093883018645296,324,2026-10-07 22:47:00.407244,55.9,0.012446392993133598,0.2789608652291149,0.08658106910663166
0936,cdot_cos,P,T-P,325,65,44501,0.0802811009704726,0.003930748488815531,0.10919525763788138,0.9977710982228559,585.0,13.08087709408294,0.6738371930898742,12.147791159324388,-0.4516521336375431,0.178,0.9999999999985375,-338.4359073139678,1.6143559294452727,325,2026-10-07 22:47:00.585243,55.9,0.44179597070890875,0.3643073135045651,0.6143316485032067
0936,cdot_cos,Q,P-Q,326,65,44627,-0.026239617731462002,-0.04178397082246555,-0.10652071870193461,0.002587407329053104,585.0,13.101219464256994,0.673840017708268,12.166517011486702,-0.08443800859035624,0.126,0.999999999998502,130004.86220062288,1.6193233850753923,326,2026-10-07 22:47:00.711244,55.9,0.012920762416981379,0.37835205706218017,0.16144738233376493
0936,cdot_cos,R,Q-R,327,65,44651,-0.018127174894985106,0.3700205984266796,0.008112442836476896,0.6114676354731968,585.0,13.17622181246261,0.6745071898523355,12.197227768213066,-0.3121259891276772,0.024,0.9999999999984823,-341.2732119617317,1.6242904993979408,327,2026-10-07 22:47:00.735244,55.9,0.48216225242014255,3.8028329692585774,3.125097841900626
0936,cdot_cos,S,R-S,328,65,44675,0.04505260296600808,-0.04969183758673613,0.06317977786099319,0.9715777658801772,585.0,13.283755446781406,0.6755658233923915,12.235036353845045,-0.4498544394599223,0.024,0.9999999999984724,-130.1002142110127,1.629257614921021,328,2026-10-07 22:47:00.759244,55.9,0.7362671455506424,2.66437710485797,4.480568096616529
0936,cdot_cos,T,S-T,329,65,44905,-0.07303142558795693,-0.10549136904913883,-0.11808402855396502,0.0013573032917706656,585.0,13.304111913495792,0.6755673010614894,12.253699924157319,-0.0855704236037998,0.23,0.9999999999984394,246526.11085680436,1.6342254330935502,329,2026-10-07 22:47:00.989243,55.9,0.014162958102088043,0.2842930161154864,0.0885063770190689
0936,cdot_cos,P,T-P,330,66,45086,0.07760297734795944,0.002641756374684088,0.15063440293591637,0.9997797359298268,593.0,13.41453023419453,0.6766547896969349,12.292064036767385,-0.46562152189769934,0.181,0.999999999998428,-349.4759263743554,1.6391930867912627,330,2026-10-07 22:47:01.170244,55.9,0.442098212732106,0.36187242926894364,0.6100459707112592
0936,cdot_cos,Q,P-Q,331,66,45210,-0.026445027369212327,-0.04725216729645734,-0.10404800471717177,0.00296980884211014,593.0,13.43510973289115,0.676658017206153,12.31073332431125,-0.08720655293803664,0.124,0.9999999999983916,117246.75078748513,1.644160545894324,331,2026-10-07 22:47:01.294244,55.9,0.013045720726036152,0.42259704921845315,0.16596369916628775
0936,cdot_cos,R,Q-R,332,66,45239,-0.010728521049042764,0.3537454087481383,0.015716506320169563,0.7065222159092525,593.0,13.519334302400706,0.6774253682310151,12.343297549662488,-0.35785311544968096,0.029,0.9999999999983734,-352.70241876630996,1.649127677341449,332,2026-10-07 22:47:01.323244,55.9,0.469397044875677,3.2534088823914966,2.904295500329541
0936,cdot_cos,S,R-S,333,66,45260,0.03503916363332762,-0.05361320271624573,0.045767684682370385,0.9281367166100806,593.0,13.623807448069856,0.6784319621299127,12.38024145925124,-0.44625991752456307,0.021,0.999999999998362,-87.82767526377464,1.6540947821492038,333,2026-10-07 22:47:01.344243,55.9,0.820282834476398,4.9339521691064405,4.974911698530957
0936,cdot_cos,T,S-T,334,66,45481,0.07572771083417515,-0.18057799143934428,0.04068854720084753,0.9067421419650972,593.0,13.726560293503177,0.6794137550591888,12.416759349687878,-0.44155028165556737,0.221,0.9999999999983511,4.796974727113366,1.6590625951828613,334,2026-10-07 22:47:01.565243,55.9,0.9893905443735301,0.4615424855422377,0.46494500196072586
0936,cdot_cos,P,T-P,335,67,45679,0.11273149339688815,0.001517745662247857,0.037003782562713,0.8878047758623302,583.0,13.827809226679525,0.6803735071243535,12.452900171790528,-0.4376379783956629,0.198,0.9999999999983371,4.076368680939426,1.6640303324656969,335,2026-10-07 22:47:01.763244,55.9,0.9911002512223908,0.3080673433033666,0.5113582483653971
0936,cdot_cos,Q,P-Q,336,67,45796,-0.005767714015649744,-0.015008221240117447,-0.11849920741253789,0.0013262063500314464,583.0,13.84855496145131,0.6803749396660957,12.471499399699459,-0.09006820929111715,0.117,0.9999999999982991,242624.53152916674,1.6689977808068077,336,2026-10-07 22:47:01.880243,55.9,0.02108988600674448,0.3417978502822352,0.17731397240841487
0936,cdot_cos,R,Q-R,337,67,45826,-0.011265293206700132,0.38090975379238207,-0.005497579191050388,0.42377033076609927,583.0,13.907789923645568,0.6808325135126386,12.498444526202226,-0.2577171534240184,0.03,0.9999999999982728,-366.3866398823791,1.6739649168157582,337,2026-10-07 22:47:01.910244,55.9,0.5217768505327884,2.4233354427251426,1.9744987398086167
0936,cdot_cos,S,R-S,338,67,45853,0.00543199666822035,-0.017190239974285777,0.01669728987492048,0.7177602077452545,583.0,13.993955088014818,0.681606733681985,12.531208322043177,-0.3763611131096501,0.027,0.9999999999982554,-153.24317859840463,1.6789320430421066,338,2026-10-07 22:47:01.937243,55.9,0.7296139739563249,3.5135839651812737,3.1913023840462977
