record_id,input,event,transition,event_index,k,peak,value_cos,value_sin,value_return,x_input,rr,knowledge,decision,decision_norm,entropy,delta_t,cosine_similarity,delta_h_over_delta_d,frobenius_norm,matrix_size,timestamp,scale,P,zdot,zdot_back
0515,cdot_cos,Q,P-Q,1,0,949,-0.040937838676840914,-0.03488901045509548,-0.06280803957594708,0.17218774099368037,878.0,0.0008552808792659345,0.5002138202067823,0.5002138202067823,,,1.0,,0.004967141530112327,1,2026-10-07 20:16:17.033243,25.0,,,
0515,cdot_cos,R,Q-R,2,0,982,0.2389746252000456,0.4153677076066755,0.2799124638768865,0.9990869546975828,878.0,0.008227734960164223,0.5014544676934911,0.7091637091247162,-1.2075997787037749e-05,,1.0000000000000002,,0.009934283060224654,2,2026-10-07 20:16:17.066243,25.0,,,
0515,cdot_cos,S,R-S,3,0,1041,0.026154204145494627,-0.10638455369904504,-0.21282042105455096,0.004866458253953989,878.0,0.010118743997877568,0.5014605107388667,0.8685550825891557,-6.256438473032537e-06,0.059,0.9999999999999998,0.9630176429839707,0.014901424598623087,3,2026-10-07 20:16:17.125243,25.0,0.39448614133075927,0.0336457793404562,0.032051000639209244
0515,cdot_cos,T,S-T,4,0,1255,-0.09019663881933448,0.017430005043727815,-0.11635084296482912,0.05172167683990085,878.0,0.012197936922338054,0.5015247373886639,1.0030494747778753,-8.367676965725137e-06,0.214,1.0,-0.03287168954567042,0.019868566162365032,4,2026-10-07 20:16:17.339243,25.0,0.7770047657846736,0.0330348902148658,0.009715854787198533
0515,cdot_cos,P,T-P,5,1,1714,0.03310089647607613,0.0013287325618207037,0.12329753529541061,0.9561625050368284,795.0,0.02425767700984013,0.5027120641392606,1.1240983485277898,-7.92819162737696e-05,0.459,0.9999999999999999,-0.059725967828488324,0.02483570784659763,5,2026-10-07 20:16:17.798244,25.0,0.40882966522117786,0.018610735533280853,0.026273943545756157
0515,cdot_cos,Q,P-Q,6,1,1825,-0.016898075167634412,-0.020317934659273604,-0.04999897164371054,0.22270458919194658,795.0,0.029282592141889878,0.5029886064484242,1.2320654322444524,-4.8515254828854516e-05,0.111,1.0,0.1112548077650949,0.029802849424908934,6,2026-10-07 20:16:17.909244,25.0,0.5303783346876321,0.0922947115148176,0.04526950569414187
0515,cdot_cos,R,Q-R,7,1,1857,0.23603675827884382,0.5138826388573208,0.2529348334464782,0.9982093258599457,795.0,0.04474710296612964,0.5042281030055611,1.3340621646229176,-0.0002064408522033354,0.032,1.0,-0.12741108191480482,0.03476999095836091,7,2026-10-07 20:16:17.941243,25.0,0.4653376605001519,0.29050610354027484,0.4832659632574925
0515,cdot_cos,S,R-S,8,1,1904,-3.053430236813644e-05,-0.00046129631959617557,-0.23606729258121195,0.002727381134082327,795.0,0.04787498276846747,0.5042314895852091,1.426182022317853,-5.2241791079176114e-05,0.047,1.0,45.53238876668214,0.039737132538686756,8,2026-10-07 20:16:17.988243,25.0,0.05225383825206533,0.064195195006496,0.06655063409229421
0515,cdot_cos,T,S-T,9,1,2133,-0.3499815755446934,-0.25691567983969965,-0.34995104124232523,0.0001586302280584881,795.0,0.05078145129674026,0.5042316865557984,1.512695059701014,-5.170642141816408e-05,0.229,1.0,2.718018273487249,0.04470427443777062,9,2026-10-07 20:16:18.217243,25.0,0.9896993918425915,0.04663720441722544,0.012692002306868105
0515,cdot_cos,P,T-P,10,2,2509,0.036165401915862254,-0.0005847849318231594,0.38614697746055565,0.999935814846232,863.0,0.06923482239155672,0.5054732746442248,1.598446844310229,-0.0003993451024156008,0.376,0.9999999999999997,-0.279995180557873,0.04967141677621063,10,2026-10-07 20:16:18.593244,25.0,0.41873293064420036,0.033480961807650866,0.049078114613873555
0515,cdot_cos,Q,P-Q,11,2,2620,-0.018528714010379185,-0.0184688217450761,-0.05469411592624144,0.20304786223993052,863.0,0.07595913457609371,0.5057253848850578,1.6773013488117279,-0.0001760451288138159,0.111,1.0,0.8857235345297155,0.05463855852586745,11,2026-10-07 20:16:18.704243,25.0,0.28127439019104944,0.12296302249868456,0.06057938904988282
0515,cdot_cos,R,Q-R,12,2,2649,0.27639261588098313,0.4558309523345555,0.2949213298913623,0.9993724335591477,863.0,0.09653261338626469,0.5069661904310593,1.756182399329164,-0.0006398472373269463,0.029,1.0000000000000002,-0.37379113109845663,0.05960570003415636,12,2026-10-07 20:16:18.733243,25.0,0.48439053190959397,0.42303151616156265,0.7094303037989992
0515,cdot_cos,S,R-S,13,2,2702,0.005791315098920454,-0.03332997607315458,-0.2706013007820627,0.0011520811633762063,863.0,0.10049496251346435,0.5069676207908476,1.8278977520083517,-0.0001407602277618429,0.053,1.0,348.9241054277175,0.06457284170298914,13,2026-10-07 20:16:18.786243,25.0,0.028849759883736812,0.07648025821294602,0.074761304286786
0515,cdot_cos,T,S-T,14,2,2912,-0.15222326609893422,0.036871331853056466,-0.15801458119785466,0.018884206889697577,863.0,0.10463952075683697,0.5069910663537798,1.8969868687347615,-0.00015329096491843835,0.21,1.0,-0.5344609209352609,0.06953998417343454,14,2026-10-07 20:16:18.996243,25.0,0.921507110001706,0.06389839801925215,0.019735991635107718
0515,cdot_cos,P,T-P,15,3,3372,0.0266075140838277,0.0009146347156534077,0.1788307801827619,0.9886908493610914,840.0,0.12733228968155025,0.5082185235656752,1.9683218784678762,-0.0009490517683966084,0.46,1.0000000000000002,-0.6483002387100405,0.07450712831131447,15,2026-10-07 20:16:19.456243,25.0,0.4323672785563372,0.03436924398300262,0.04933210635807234
0515,cdot_cos,Q,P-Q,16,3,3485,-0.019692573501467695,-0.02207479068949158,-0.0463000875852954,0.2391214465419142,840.0,0.13625922522119938,0.5085153779244372,2.034061512589429,-0.0004242212241928551,0.113,1.0,1.7679731784719128,0.07947427034609553,16,2026-10-07 20:16:19.569243,25.0,0.2902065432523858,0.14854707954473828,0.07899942955441706
0515,cdot_cos,R,Q-R,17,3,3517,0.24276548495532266,0.4707164770474587,0.2624580584567904,0.9985881640014574,840.0,0.1609039296586611,0.5097549955427838,2.1017736908357434,-0.0013201940930449637,0.032,0.9999999999999999,-0.7227816510442792,0.08444141181551669,17,2026-10-07 20:16:19.601243,25.0,0.507292492483081,0.4591170353945755,0.7701470136706788
0515,cdot_cos,S,R-S,18,3,3576,0.016803616835242126,-0.057256642856479766,-0.22596186812008054,0.003508518568490294,840.0,0.1656427154864522,0.5097593507107344,2.162725763020531,-0.00027895321446976885,0.059,1.0,239.08168189691074,0.08940855362594607,18,2026-10-07 20:16:19.660243,25.0,0.02392881035537413,0.08092162141763702,0.08031840386086625
0515,cdot_cos,T,S-T,19,3,3790,-0.15792532748121618,0.013574932375206405,-0.1747289443164583,0.012515120791223024,840.0,0.17045268098594227,0.5097748858745221,2.2220572126364884,-0.00029142248752871656,0.214,0.9999999999999999,-0.802648316383184,0.09437569703337878,19,2026-10-07 20:16:19.874244,25.0,0.9581148581431153,0.07303076533807441,0.022476474296682522
0515,cdot_cos,P,T-P,20,4,4212,0.031221102193577377,0.0011756690461797248,0.18914642967479356,0.9912391313027771,777.0,0.19689988305114806,0.51100525999304,2.28528499800933,-0.0017512046841582983,0.422,1.0,-1.1864539205262457,0.09934284307808164,20,2026-10-07 20:16:20.296243,25.0,0.4344877964109679,0.042997135461507456,0.06267109494124594
0515,cdot_cos,Q,P-Q,21,4,4324,-0.019690682997858838,-0.025357542658535348,-0.050911785191436215,0.218779232904979,777.0,0.20674226331545456,0.5112768019548533,2.34296464856992,-0.0007160778371197615,0.112,0.9999999999999999,3.81203273382301,0.1043099855226718,21,2026-10-07 20:16:20.408243,25.0,0.23561627760889595,0.16936666017853066,0.08787839521702237
0515,cdot_cos,R,Q-R,22,4,4357,0.21401385572382292,0.5217499766567997,0.23370453872168176,0.9971071425199419,777.0,0.23483801493113893,0.5125142935583958,2.4039051224599235,-0.0022359533333059984,0.033,1.0,-1.2281905524330576,0.10927712695169828,22,2026-10-07 20:16:20.441243,25.0,0.5067467859591108,0.508514751670588,0.851386412596496
0515,cdot_cos,S,R-S,23,4,4416,0.02071978936004596,-0.0506850928814631,-0.19329406636377697,0.00790477836645026,777.0,0.24030423692571337,0.5125241034427394,2.457979254623578,-0.00046808303552601165,0.059,0.9999999999999997,180.21316417952897,0.11424426891387622,23,2026-10-07 20:16:20.500243,25.0,0.02289514208221652,0.09273913830371981,0.092647830416516
0515,cdot_cos,T,S-T,24,4,4629,-0.15347666295891788,-0.022971790807858015,-0.17419645231896383,0.01268071292282836,777.0,0.24578123325097787,0.5125398402745736,2.510922166097211,-0.0004798067882967585,0.213,1.0000000000000002,-0.7449881204975104,0.1192114135324675,24,2026-10-07 20:16:20.713243,25.0,0.9758617810750604,0.08258823540215873,0.025713597771194807
0515,cdot_cos,P,T-P,25,5,4989,0.0394116659936737,0.0024298072672598054,0.19288832895259156,0.9920152754749626,815.0,0.275486825207033,0.513770856953429,2.568854288656658,-0.002790321975200844,0.36,0.9999999999999999,-1.8769162324042779,0.12417856121495899,25,2026-10-07 20:16:21.073244,25.0,0.43690212256235406,0.05588338971511964,0.08251553321126424
0515,cdot_cos,Q,P-Q,26,5,5102,-0.015949178620340045,-0.0189642812622201,-0.05536084461401374,0.20036396738258347,815.0,0.286017273845864,0.5140194738383234,2.6209953328415714,-0.0010654738325635116,0.113,0.9999999999999994,6.9377755391386975,0.1291457042612257,26,2026-10-07 20:16:21.186244,25.0,0.19812532962886253,0.18470674191892753,0.09318981096310631
0515,cdot_cos,R,Q-R,27,5,5135,0.23788756854356868,0.5055534832739427,0.25383674716390875,0.9982491800073596,815.0,0.3172305488807106,0.5152580218824038,2.6773592245982587,-0.0033924623629897066,0.033,0.9999999999999994,-1.878803605195566,0.1341128456632396,27,2026-10-07 20:16:21.219244,25.0,0.5036221154043956,0.5621701140199373,0.945856819237776
0515,cdot_cos,S,R-S,28,5,5194,0.00012755769526645109,-0.003047442338979922,-0.23776001084830223,0.0026146674417946323,815.0,0.32312050137117987,0.5152612657140043,2.7265063445758035,-0.0006795316380126509,0.059,0.9999999999999997,836.3352538137749,0.13907998784080092,28,2026-10-07 20:16:21.278244,25.0,0.01845622049007118,0.09845540647346095,0.09982970322829242
0515,cdot_cos,T,S-T,29,5,5408,-0.32253015531485285,-0.1642028298131082,-0.3226577130101193,0.00031379938613904383,815.0,0.328848286844579,0.5152616550224581,2.774768937353933,-0.0006728113234159063,0.214,0.9999999999999992,17.262185115728776,0.1440471340199643,29,2026-10-07 20:16:21.492243,25.0,0.9900613096030292,0.0900742307977809,0.026765352679435226
0515,cdot_cos,P,T-P,30,6,5804,0.03127041990677283,-0.0006433529905088254,0.35380057522162567,0.999855922393355,848.0,0.3616722721526301,0.516502008157835,2.828998016268495,-0.004082997887767166,0.396,0.9999999999999996,-2.7493674721233043,0.14901428561445262,30,2026-10-07 20:16:21.888243,25.0,0.4337806258732173,0.05613310953089048,0.08288885178800778
0515,cdot_cos,Q,P-Q,31,6,5914,-0.02307154430199141,-0.02328911505401838,-0.05434196420876424,0.20447621189243226,848.0,0.37330570959304427,0.5167556428746297,2.8771736629495934,-0.0015402064932617922,0.11,0.999999999999999,10.025407509821363,0.15398142923837604,31,2026-10-07 20:16:21.998244,25.0,0.19186910694315343,0.20765528702856054,0.1057585221855834
0515,cdot_cos,R,Q-R,32,6,5944,0.2649652330399051,0.45165784150408717,0.28803677734189653,0.9992546562638523,848.0,0.4073564352989134,0.5179950035902574,2.930222248288895,-0.004787526013211764,0.03,0.9999999999999992,-2.6201568913738917,0.15894857046773708,32,2026-10-07 20:16:22.028243,25.0,0.507485267513315,0.6736960408056464,1.1350241901956382
0515,cdot_cos,S,R-S,33,6,5997,0.015022881207292574,-0.06310127940329575,-0.24994235183261254,0.0019295081215738056,848.0,0.41372747204138305,0.517997396521288,2.975668506183548,-0.0009421480516705931,0.053,0.9999999999999989,1606.9740048714605,0.16391571265011498,33,2026-10-07 20:16:22.081243,25.0,0.016882111125911814,0.12440096135211677,0.12020824042395543
0515,cdot_cos,T,S-T,34,6,6207,-0.13964837350823953,0.022286461627494796,-0.1546712547155321,0.020496706845711653,848.0,0.4205429372022378,0.5180228160087276,3.0205661320745487,-0.0010240525741871311,0.21,0.999999999999999,-3.2221154227088493,0.1688828605269246,34,2026-10-07 20:16:22.291244,25.0,0.9231340898701165,0.09990145042471868,0.032454596004070184
0515,cdot_cos,P,T-P,35,7,6652,0.03348865957539946,0.0008869320959757275,0.17313703308363898,0.9869833752358631,813.0,0.4556860812197649,0.5192467345094299,3.0719051219613456,-0.005544964933873513,0.445,0.9999999999999986,-3.693801798969463,0.17385001789260202,35,2026-10-07 20:16:22.736243,25.0,0.44249837977821854,0.05332819714212259,0.07897335734275754
0515,cdot_cos,Q,P-Q,36,7,6768,-0.022854820172185982,-0.02705911389188988,-0.05634347974758544,0.19645702021860184,813.0,0.4680050326587269,0.5194903258878151,3.1169419733204067,-0.002048918351132492,0.116,0.9999999999999982,14.352094913693529,0.17881716249434434,36,2026-10-07 20:16:22.852243,25.0,0.18153825570069562,0.21090710850244446,0.10619785723243103
0515,cdot_cos,R,Q-R,37,7,6797,0.22729631665559197,0.4794720227934255,0.25015113682777795,0.9980805176671328,813.0,0.504616530392332,0.5207277223268193,3.1674630970180098,-0.006410603858788566,0.029,0.9999999999999984,-3.5248893322871333,0.18378430351266095,37,2026-10-07 20:16:22.881243,25.0,0.5064214450879851,0.7534546205154772,1.2624654390898316
0515,cdot_cos,S,R-S,38,7,6854,0.044661692764755914,-0.10292151387196671,-0.18263462389083607,0.010293807761998,813.0,0.5117054006486246,0.520740483045543,3.2100599448928757,-0.0012970148711734255,0.057,0.999999999999998,400.7289164771717,0.18875144602414518,38,2026-10-07 20:16:22.938244,25.0,0.019398041751416906,0.13000197817147505,0.12436614484723803
0515,cdot_cos,T,S-T,39,7,7066,-0.08970650727487896,-0.0030880651396878863,-0.13436820003963487,0.03359502446813834,813.0,0.5194367559038802,0.520782128929013,3.2522833726315974,-0.0014351846922917235,0.212,0.9999999999999978,-3.31773057997041,0.19371859604561328,39,2026-10-07 20:16:23.150244,25.0,0.9082158587383586,0.10411080382230356,0.03646865686441316
0515,cdot_cos,P,T-P,40,8,7465,0.026753314032234254,0.0003266270942036631,0.11645982130711321,0.9484117853572468,859.0,0.5558483814692813,0.5219577009341335,3.3011503771548227,-0.007047091169292639,0.399,0.9999999999999974,-4.773766687669243,0.1986857560798009,40,2026-10-07 20:16:23.549243,25.0,0.4509748641607838,0.06424386613513551,0.09125720693082987
0515,cdot_cos,Q,P-Q,41,8,7573,-0.017201654329527645,-0.01745550311570536,-0.043954968361761895,0.24995089314531388,859.0,0.5707033610797183,0.5222674792172282,3.3441435830366006,-0.003011934594699964,0.108,0.9999999999999968,13.025950477489987,0.20365290122004426,41,2026-10-07 20:16:23.657243,25.0,0.26191833826694955,0.2497186874178892,0.13754610750404653
0515,cdot_cos,R,Q-R,42,8,7605,0.27020608075654184,0.4545202730528646,0.2874077350860695,0.9992428512410669,859.0,0.6097876179515453,0.5235057239424147,3.3927048809559004,-0.008302104528817557,0.032,0.999999999999997,-4.27231372483393,0.20862004228647604,42,2026-10-07 20:16:23.689243,25.0,0.5287665216365198,0.7240418305668045,1.221383027244595
0515,cdot_cos,S,R-S,43,8,7654,-0.00015826728411878115,-0.0008820569389576067,-0.2703643480406606,0.0011589182045357495,859.0,0.6170420382359938,0.5235071598893245,3.4328660482153937,-0.0016014394647775655,0.049,0.999999999999996,4666.373818004675,0.2135871845792517,43,2026-10-07 20:16:23.738244,25.0,0.015235130077866189,0.1468443465345989,0.1480493935601724
0515,cdot_cos,T,S-T,44,8,7882,-0.37722736456935096,-0.11563347778456516,-0.3770690972852322,8.053586287149276e-05,859.0,0.624178363911936,0.5235072596765279,3.4725543416056515,-0.0015938487534995003,0.228,0.9999999999999963,76.0689850025974,0.21855433802856883,44,2026-10-07 20:16:23.966244,25.0,0.9952488186064697,0.10418534863097599,0.03129967401729055
0515,cdot_cos,P,T-P,45,9,8324,0.022902907575715215,-0.0014361596134576087,0.4001302721450662,0.9999547497360602,1078.0,0.6645505572117189,0.5247460970013748,3.520103866651765,-0.009359731080653164,0.442,0.999999999999996,-6.268686107042846,0.22352150603523424,45,2026-10-07 20:16:24.408243,25.0,0.4361748338134448,0.06305921389518317,0.09133980384566247
0515,cdot_cos,Q,P-Q,46,9,8426,-0.02357304489732277,-0.015238227992233554,-0.046475952473037985,0.23832243237844525,1078.0,0.679922708995278,0.5250413087205185,3.56100345448985,-0.003717754355268961,0.102,0.9999999999999952,19.11162856864005,0.22848865169988028,46,2026-10-07 20:16:24.510243,25.0,0.2192425731174716,0.27824580171402685,0.15070737042705007
0515,cdot_cos,R,Q-R,47,9,8456,0.28899579001045045,0.2814155467046374,0.3125688349077732,0.9995962136839318,1078.0,0.7213127007613803,0.5262793227435737,3.6079893059537196,-0.010430127923467446,0.03,0.9999999999999952,-5.421888155703881,0.23345579244819178,47,2026-10-07 20:16:24.540244,25.0,0.5254205931515126,0.8173617677485608,1.3796663922034123
0515,cdot_cos,S,R-S,48,9,8512,-0.011981870338025478,-0.0630144079081488,-0.30097766034847595,0.0005394388673979059,1078.0,0.7289644150601916,0.5262799907603781,3.646174778189884,-0.001995689033608433,0.056,0.9999999999999947,12626.087897712106,0.23842293541034265,48,2026-10-07 20:16:24.596244,25.0,0.014605907240904407,0.19660795332895292,0.1366377553359158
0515,cdot_cos,T,S-T,49,9,8723,-0.06844695736581229,0.07498139052472795,-0.05646508702778681,0.19597753489312297,1078.0,0.743332791534223,0.5265226742707663,3.685658767107681,-0.0038042057197358622,0.211,0.9999999999999941,-7.45216139009582,0.24339009063118464,49,2026-10-07 20:16:24.807244,25.0,0.6216367955174629,0.12577807758362836,0.06809657096697366
0515,cdot_cos,P,T-P,50,10,9402,0.014075256393218622,0.0014292497142449716,0.0825222137590309,0.8872601564849164,899.0,0.7820427638004828,0.5276212305586798,3.7308455527524798,-0.010615899983770563,0.679,0.9999999999999941,-6.200587388172788,0.2483572851968626,50,2026-10-07 20:16:25.486243,25.0,0.5264230077930644,0.04215860722751279,0.05701026843337219
0515,cdot_cos,Q,P-Q,51,10,9509,-0.019185641357236816,-0.017109700124988927,-0.03326089775045544,0.3033232537142996,899.0,0.8005841801491854,0.5279967277720737,3.7706509135550306,-0.00527524026331787,0.107,0.9999999999999927,14.222901076099502,0.253324431978412,51,2026-10-07 20:16:25.593244,25.0,0.36334545595269624,0.29043311769693175,0.17328426494114632
0515,cdot_cos,R,Q-R,52,10,9538,0.2844800845092006,0.40534456885200254,0.3036657258664374,0.999495603387867,899.0,0.8441954509876262,0.5292338209482932,3.8163594306936544,-0.012891511741838887,0.029,0.9999999999999919,-6.15658676721207,0.25829157207642595,52,2026-10-07 20:16:25.622243,25.0,0.5538854463864814,0.8918644527368947,1.5038369254634738
0515,cdot_cos,S,R-S,53,10,9591,0.010468342978405548,-0.06785314460446448,-0.27401174153079505,0.0010580241470375528,899.0,0.8523123184079253,0.5292351302956997,3.8528899805539134,-0.002474808276844391,0.053,0.9999999999999912,7955.645242281665,0.2632587147165808,53,2026-10-07 20:16:25.675244,25.0,0.014859808455798344,0.17230282494510016,0.15314844189243693
0515,cdot_cos,T,S-T,54,10,9819,-0.10049441710714897,0.0334150224124169,-0.11096276008555452,0.05874162970012134,899.0,0.8624595504318068,0.5293078247916366,3.889602338814785,-0.0031271144553365123,0.228,0.9999999999999903,-8.973254028172269,0.2682258743791549,54,2026-10-07 20:16:25.903244,25.0,0.8117224276447368,0.11631606282669836,0.04450540361351517
0515,cdot_cos,P,T-P,55,11,10301,0.01611709383999742,-0.0004919889657315927,0.11661151094714639,0.9485970126442503,858.0,0.9053524430568998,0.5304815672312151,3.934156680190268,-0.013623506347723474,0.482,0.9999999999999897,-8.942670502871682,0.27319306041660957,55,2026-10-07 20:16:26.385243,25.0,0.46279927549935224,0.06421881117778198,0.08898940378649998
0515,cdot_cos,Q,P-Q,56,11,10389,-0.01948384507386344,-0.014442215536050068,-0.03560093891386086,0.2911049834861047,858.0,0.9243664844071886,0.5308416977303257,3.9724556206682786,-0.0062501118966499635,0.088,0.9999999999999881,20.47422939540569,0.27816020637655914,56,2026-10-07 20:16:26.473243,25.0,0.30736417671278043,0.36776320368733795,0.21606865170782769
0515,cdot_cos,R,Q-R,57,11,10420,0.33307036953225655,0.4015059924067345,0.35255421460611996,0.9998513630813082,858.0,0.9700787669058712,0.5320783824759274,4.017103798724269,-0.015552787279017015,0.031,0.9999999999999875,-7.522269046701192,0.28312734645562165,57,2026-10-07 20:16:26.504243,25.0,0.549835807957986,0.8740869948982853,1.4745897580220209
0515,cdot_cos,S,R-S,58,11,10470,-0.0022589479075641287,-0.019423769681556353,-0.3353293174398207,0.00022861719760158976,858.0,0.9785598780908823,0.5320786652008801,4.052190493600936,-0.0029680916265923496,0.05,0.9999999999999865,44512.15053184225,0.28809448899868995,58,2026-10-07 20:16:26.554244,25.0,0.01440765419166594,0.16888662177068858,0.16962222370022095
0515,cdot_cos,T,S-T,59,11,10700,-0.34237533489496486,-0.06905719747957631,-0.3401163869874007,0.00020283605190519053,858.0,0.9869674290829401,0.5320789160429419,4.086975809964349,-0.002967848991711398,0.23,0.999999999999985,0.9672814807120935,0.2930616525933236,59,2026-10-07 20:16:26.784243,25.0,0.9999182488854189,0.12001761322607238,0.03655456953068613
0515,cdot_cos,P,T-P,60,12,11159,0.026678041269253647,0.0006719889129563631,0.3690533761642185,0.9999015963649065,880.0,1.0337679801748756,0.533315268738041,4.131042424900038,-0.01697901806171566,0.459,0.9999999999999845,-11.33266350738268,0.2980288446960623,60,2026-10-07 20:16:27.243244,25.0,0.438145202971108,0.07075572632185843,0.1019619849497505
0515,cdot_cos,Q,P-Q,61,12,11249,-0.017954956605211753,-0.013265498814653762,-0.0446329978744654,0.24678653400058623,880.0,1.0519211858464061,0.5336203516007929,4.167708316331467,-0.006797033820784694,0.09,0.9999999999999828,33.374487668983804,0.3029959918709181,61,2026-10-07 20:16:27.333244,25.0,0.2235759599170222,0.36581464754264803,0.20170228523922845
0515,cdot_cos,R,Q-R,62,12,11280,0.3394842895048454,0.4043807423255813,0.3574392461100571,0.9998684485742999,880.0,1.0996146167325522,0.5348561509760406,4.211461686079375,-0.018415179687154185,0.031,0.999999999999982,-9.40132039154112,0.3079631317395376,62,2026-10-07 20:16:27.364243,25.0,0.5321124239126825,0.9118387107024825,1.5384977705208414
0515,cdot_cos,S,R-S,63,12,11329,0.0002903576244248007,-0.02263070663805295,-0.3391939318804206,0.0002075671023694964,880.0,1.10845518590996,0.5348564074771917,4.245291266399974,-0.003503174849967544,0.049,0.9999999999999801,58136.21020185816,0.3129302743590638,63,2026-10-07 20:16:27.413243,25.0,0.014168819371631594,0.1879777562120274,0.18041977913077206
0515,cdot_cos,T,S-T,64,12,11558,-0.15417383850977875,0.06745448972309914,-0.15446419613420356,0.02060089097749707,880.0,1.118036436841331,0.5348818649468465,4.279055063817961,-0.003828326498916477,0.229,0.9999999999999787,-12.772347501812376,0.3178974418923441,64,2026-10-07 20:16:27.642244,25.0,0.9185737321493462,0.12581639423655858,0.041839523717776654
0515,cdot_cos,P,T-P,65,13,12039,0.006724514507898324,0.0002655710574628021,0.16089835301767708,0.98240620906124,897.0,1.166079094470304,0.5360956561933498,4.322141514732317,-0.019686130480067256,0.481,0.9999999999999781,-13.064688039920403,0.3228646462795578,65,2026-10-07 20:16:28.123244,25.0,0.44685023157585896,0.07247861543534959,0.09988078509141991
0515,cdot_cos,Q,P-Q,66,13,12133,-0.024189643023799258,-0.018520190669057305,-0.030914157531697583,0.31586206569780917,897.0,1.1877608648901372,0.5364858227583245,4.358431612258168,-0.009154560229142263,0.094,0.9999999999999758,26.992498067095564,0.3278317950974231,66,2026-10-07 20:16:28.217243,25.0,0.3165044642604214,0.37922325799351725,0.23065713212588643
0515,cdot_cos,R,Q-R,67,13,12165,0.3083047059520102,0.38163116274426,0.3324943489758095,0.9997545958607943,897.0,1.2373730669730851,0.5377204664525578,4.4014318999691,-0.021573966801315344,0.032,0.999999999999975,-10.059101771774909,0.33279893485317963,67,2026-10-07 20:16:28.249243,25.0,0.5623300392619083,0.9192556568497385,1.5503813150921224
0515,cdot_cos,S,R-S,68,13,12224,0.0038082869183877666,-0.07135123698921265,-0.30449641903362246,0.0004940347828148078,897.0,1.2465932269285205,0.5377210764461239,4.4341617808811495,-0.004106670417968023,0.059,0.9999999999999728,28635.214130106204,0.3377660792684197,68,2026-10-07 20:16:28.308243,25.0,0.014215871773908255,0.1702101553173477,0.15627389754975166
0515,cdot_cos,T,S-T,69,13,12438,-0.12130218236654397,0.05308489601373953,-0.12511046928493175,0.041976525654272644,897.0,1.2574578653005322,0.537772905199115,4.467077440382974,-0.004878174377279339,0.214,0.9999999999999709,-14.885636153413182,0.3427332488494157,69,2026-10-07 20:16:28.522244,25.0,0.8537180946692221,0.14029651073699245,0.05076933818697047
0515,cdot_cos,P,T-P,70,14,12936,0.011352631833529435,1.4921270340488656e-05,0.1326548142000734,0.9649861602579426,839.0,1.3066401335239533,0.5389641540124657,4.509297841622296,-0.022603843376811317,0.498,0.9999999999999704,-14.879904853524877,0.3477004668042474,70,2026-10-07 20:16:29.020243,25.0,0.45649009477885005,0.0708194649965301,0.09875957474582547
0515,cdot_cos,Q,P-Q,71,14,13030,-0.024852924596212436,-0.020962619188453855,-0.03620555642974187,0.28799559552636544,839.0,1.3279940524370761,0.539319591045701,4.544387893430201,-0.01008296810194548,0.094,0.9999999999999669,35.22670432198444,0.352667616824813,71,2026-10-07 20:16:29.114244,25.0,0.2888682215288697,0.38727053340458395,0.22716935013960513
0515,cdot_cos,R,Q-R,72,14,13062,0.29541441669581053,0.4143599315202927,0.32026734129202294,0.9996668829755088,839.0,1.379446993804015,0.5405530426209383,4.586744913868764,-0.024956716833718598,0.032,0.9999999999999664,-12.058640185296523,0.3576347562671546,72,2026-10-07 20:16:29.146244,25.0,0.5510213138660108,0.9537355107616732,1.6079044177168405
0515,cdot_cos,S,R-S,73,14,13121,0.016446692019586293,-0.08786857252306647,-0.2789677246762242,0.0009348463250006592,839.0,1.3890331251258232,0.5405541958627349,4.618497324567845,-0.004754478184245672,0.059,0.999999999999963,17517.78222813622,0.36260190107827334,73,2026-10-07 20:16:29.205244,25.0,0.014277121349852814,0.17131786741398755,0.1624768020645456
0515,cdot_cos,T,S-T,74,14,13336,-0.12714515227266696,0.02260184581690726,-0.14359184429225325,0.026862448200430513,839.0,1.3996625021588656,0.5405873336348854,4.650308333315044,-0.005310339670232578,0.215,0.9999999999999606,-16.774256382171192,0.36756907517106013,74,2026-10-07 20:16:29.420243,25.0,0.9006168905163927,0.14514140379579066,0.049438962944382984
0515,cdot_cos,P,T-P,75,15,13775,0.039272042852987035,0.0032812877461388143,0.166417195125654,0.9846387977977035,899.0,1.4514439287580132,0.5418017433765138,4.692141007487474,-0.026437830327303936,0.439,0.9999999999999596,-17.39733298642891,0.37253629344239675,75,2026-10-07 20:16:29.859244,25.0,0.44971618382004164,0.07952683730569009,0.11795313576115636
0515,cdot_cos,Q,P-Q,76,15,13868,-0.01770852346504503,-0.013380424440327771,-0.05698056631803207,0.19395488132017297,899.0,1.4694870653132615,0.5420409006294203,4.72540332807664,-0.009437058010512811,0.093,0.9999999999999556,71.08616657104851,0.37750344464244473,76,2026-10-07 20:16:29.952243,25.0,0.16505265941982525,0.3831076853017361,0.19401222102417476
0515,cdot_cos,R,Q-R,77,15,13900,0.3279300387754677,0.3985616330430359,0.34563856224051276,0.9998233147676538,899.0,1.5227019582241361,0.5432734291784118,4.767205310367503,-0.028499779482643026,0.032,0.9999999999999547,-15.466352878988836,0.38247058386091504,77,2026-10-07 20:16:29.984244,25.0,0.5122858056921523,0.9856605731235896,1.6629654034648333
0515,cdot_cos,S,R-S,78,15,13959,-0.0015487922545939427,-0.020097004179704815,-0.32947883103006165,0.0002646147864539634,899.0,1.5325693419931712,0.5432737553118745,4.7980642097563,-0.005395988764387847,0.059,0.9999999999999512,70841.52153041706,0.3874377291729422,78,2026-10-07 20:16:30.043243,25.0,0.013819698576430409,0.17558362075460016,0.1672437926955096
0515,cdot_cos,T,S-T,79,15,14173,-0.1498028337491371,0.07069474095071886,-0.14825404149454316,0.023977937899921177,899.0,1.543420825473179,0.5433033075801316,4.8289857473542,-0.0059743245902200565,0.214,0.9999999999999479,-19.56993015904358,0.39240490762983943,79,2026-10-07 20:16:30.257244,25.0,0.9077343135338096,0.15017520311632757,0.050707866729008184
0515,cdot_cos,P,T-P,80,16,14674,0.0132248537202789,-0.0005006870535098488,0.163027687469416,0.9833030646313088,839.0,1.5968443289269594,0.544514941533305,4.870290038406574,-0.03001422681567728,0.501,0.9999999999999474,-19.840895150299026,0.39737215008158916,80,2026-10-07 20:16:30.758244,25.0,0.44890219575224233,0.07552001182425196,0.10663373942870348
0515,cdot_cos,Q,P-Q,81,16,14763,-0.025531449537201326,-0.01914882031337789,-0.038756303257480224,0.2750982979415472,839.0,1.6190918773210794,0.5448538261778592,4.903684828736342,-0.012798675441054199,0.089,0.9999999999999423,50.80062390337652,0.40233930163418635,81,2026-10-07 20:16:30.847244,25.0,0.26051257560208557,0.4336186061613847,0.2499724538665171
0515,cdot_cos,R,Q-R,82,16,14793,0.32769834270357395,0.4099580674281272,0.3532297922407753,0.9998538520312169,839.0,1.6740284408236858,0.5460851614881155,4.945011856126169,-0.03234807049844605,0.03,0.9999999999999412,-15.876581215982796,0.407306440014349,82,2026-10-07 20:16:30.877243,25.0,0.546432215932617,1.0855473683333394,1.8312187834202152
0515,cdot_cos,S,R-S,83,16,14844,0.018191274800573105,-0.10048318843130002,-0.30950706790300087,0.0004358934670625111,839.0,1.6842247194210798,0.5460856981757725,4.975077883519922,-0.006122578160476245,0.051,0.999999999999937,48865.46578214465,0.412273583829636,83,2026-10-07 20:16:30.928244,25.0,0.013795584470314419,0.232241053994024,0.19992703132144932
0515,cdot_cos,T,S-T,84,16,15072,-0.08277954884398929,0.02131927131049884,-0.10097082364456239,0.07417413984789505,839.0,1.6977170283310763,0.5461770224740201,5.005795502278552,-0.008158622648197875,0.228,0.9999999999999333,-22.294663378636642,0.4172407706833036,84,2026-10-07 20:16:31.156243,25.0,0.7791455726293119,0.14459537523099275,0.059176793464897064
0515,cdot_cos,P,T-P,85,17,15513,0.017805358504523576,-0.00022768640232635176,0.10058490734851286,0.9251605878084808,819.0,1.7501602105264125,0.5473158308478586,5.046003065860411,-0.03231608076687688,0.441,0.9999999999999322,-21.2129263128379,0.42220801166498034,85,2026-10-07 20:16:31.597243,25.0,0.4735315419980808,0.08562414988188626,0.11891878048829063
0515,cdot_cos,Q,P-Q,86,17,15606,-0.020342514984654385,-0.017557716070360357,-0.03814787348917796,0.2781419662233107,819.0,1.7732375285269,0.5476581080033541,5.078772843492899,-0.01453007567806508,0.093,0.9999999999999266,51.963751606686635,0.42717516568366154,86,2026-10-07 20:16:31.690243,25.0,0.29402747362150317,0.4283570255067889,0.24814320430631734
0515,cdot_cos,R,Q-R,87,17,15638,0.3065618259138607,0.44671304437223414,0.3269043408985151,0.9997177989402815,819.0,1.8298346172706752,0.5488879707076969,5.1196866537351005,-0.036423334947827644,0.032,0.9999999999999251,-17.801384815114016,0.43214230428796985,87,2026-10-07 20:16:31.722244,25.0,0.5482204270393666,1.0485290765730078,1.7686590232429757
0515,cdot_cos,S,R-S,88,17,15697,0.0012093705155103666,-0.02737985324267953,-0.3053524553983504,0.00048357937873168196,819.0,1.8403433894275725,0.5488885654685527,5.1490316506276,-0.006888928335396358,0.059,0.9999999999999203,49657.616712714655,0.437109450629333,88,2026-10-07 20:16:31.781244,25.0,0.013742967728160698,0.1793529296507009,0.17811478232029276
0515,cdot_cos,T,S-T,89,17,15912,-0.21163539897978087,-0.06683000169663848,-0.21284476949529124,0.004863511291226871,819.0,1.850998262969458,0.5488945471594786,5.1782613019790515,-0.007024963613704585,0.215,0.9999999999999151,-22.74194370672856,0.4420766395607786,89,2026-10-07 20:16:31.996243,25.0,0.9808217358206762,0.1583482360065687,0.04955755135760667
0515,cdot_cos,P,T-P,90,18,16332,0.05666715643860412,0.00011217540578141585,0.268302555418385,0.9987798540258086,916.0,1.908433130910397,0.5501226566207117,5.218922290740809,-0.03854747889302432,0.42,0.9999999999999146,-25.66751277013168,0.4470438868925524,90,2026-10-07 20:16:32.416243,25.0,0.44142014092647036,0.08902579501265252,0.13674968557366454
0515,cdot_cos,Q,P-Q,91,18,16421,-0.014972990256859166,-0.010454011076016812,-0.07164014669546329,0.14294971500492662,916.0,1.925779930780086,0.5502983793773452,5.2495125522925346,-0.011873064741004202,0.089,0.9999999999999074,151.79829102988148,0.4520110413808357,91,2026-10-07 20:16:32.505243,25.0,0.10575474556174726,0.4243664524729505,0.1949078637043709
0515,cdot_cos,R,Q-R,92,18,16453,0.3511405023768763,0.392634786787589,0.36611349263373544,0.9998940923668478,916.0,1.9839703594505822,0.5515271585803542,5.290063262853323,-0.040592720867618524,0.032,0.9999999999999059,-23.37251155967334,0.4569781797397007,92,2026-10-07 20:16:32.537244,25.0,0.49287112883143297,1.4514752732792089,1.8184508959530055
0515,cdot_cos,S,R-S,93,18,16501,0.3511405023768763,0.392634786787589,0.0,0.5,916.0,2.0186743482699554,0.5521413783536028,5.3246592218385915,-0.024777769376333435,0.048,0.9999999999999033,25.74803381473694,0.46194532351757134,93,2026-10-07 20:16:32.585243,25.0,0.5282044780188772,0.47425079507891255,0.722999767070275
0515,cdot_cos,T,S-T,94,18,16728,-0.2576309187190708,0.0676744759165349,-0.6087714210959471,2.45667762430568e-07,916.0,2.029498435778158,0.5521413786553518,5.353209882735242,-0.007816028115525168,0.227,0.9999999999998979,56211411.85610058,0.46691252308455267,94,2026-10-07 20:16:32.812243,25.0,0.11416359030628707,0.15405342512460152,0.04768320488194893
0515,cdot_cos,P,T-P,95,19,17248,0.007264433576701578,-0.00040221373643014837,0.2648953522957724,0.9986715111416999,900.0,2.0886146032765245,0.5533677082920935,5.393561888538222,-0.04340232549152956,0.52,0.9999999999998961,-29.018541434387526,0.47187981688228614,95,2026-10-07 20:16:33.332243,25.0,0.4404682842501352,0.08153348184826073,0.113684937496859
0515,cdot_cos,Q,P-Q,96,19,17333,-0.026182176267858456,-0.016688014578972128,-0.033446609844560035,0.30234304163441256,900.0,2.114293256900349,0.5537388464064902,5.42551122300658,-0.01923803581627187,0.085,0.9999999999998886,65.10861789158258,0.47684697193602854,96,2026-10-07 20:16:33.417243,25.0,0.2847714238683464,0.5033967757057275,0.30210180733911157
0515,cdot_cos,R,Q-R,97,19,17362,0.33886895733836747,0.35151921522017854,0.36505113360622593,0.9998912421931969,900.0,2.174192055146498,0.5549658238662007,5.465780220742738,-0.04576423112903938,0.029,0.9999999999998869,-21.61913823504536,0.48181410896234667,97,2026-10-07 20:16:33.446244,25.0,0.5601071091121461,1.225640640980825,2.0654758015913512
0515,cdot_cos,S,R-S,98,19,17419,-0.0014315916267156827,-0.07793683356535715,-0.34030054896508316,0.00020190451930217273,900.0,2.185380414077237,0.5549660715582998,5.493884553781787,-0.008689892217479907,0.057,0.9999999999998802,149679.13410734292,0.4867812560520104,98,2026-10-07 20:16:33.503244,25.0,0.014032559089491076,0.22326664957720851,0.1962869987848888
0515,cdot_cos,T,S-T,99,19,17630,-0.10902022413198646,0.05686233438302985,-0.10758863250527077,0.06358293679430652,900.0,2.1996444531983,0.5550440723714349,5.522619536326509,-0.011143037385987611,0.211,0.9999999999998735,-31.450251220555906,0.49174845642065046,99,2026-10-07 20:16:33.714243,25.0,0.8023980339869032,0.17170306660160406,0.0676020811424792
0515,cdot_cos,P,T-P,100,20,18148,0.007508097549111049,-0.00047590920572909554,0.11652832168109752,0.9484955087684043,840.0,2.2578391081831137,0.5562073218462457,5.562074001782527,-0.0461885377114037,0.518,0.9999999999998717,-30.127243625980118,0.4967157664199623,100,2026-10-07 20:16:34.232243,25.0,0.46825190945013495,0.07871654299940789,0.11234489379307683
0515,cdot_cos,Q,P-Q,101,20,18234,-0.03810169798770424,-0.022996493588353747,-0.04560979553681529,0.24227540202481462,840.0,2.2811947917456865,0.5565043538633506,5.592800421704084,-0.01887376182084393,0.086,0.9999999999998624,91.95902905277664,0.5016829231444183,101,2026-10-07 20:16:34.318244,25.0,0.23521968268454108,0.492919149967204,0.2715777158438696
0515,cdot_cos,R,Q-R,102,20,18263,0.33442562851002305,0.38991780195682874,0.3725273264977273,0.9999097812593966,840.0,2.342621201977473,0.557729823408226,5.632796001710261,-0.05053726444271911,0.029,0.9999999999998599,-25.837853542982963,0.5066500595059302,102,2026-10-07 20:16:34.347244,25.0,0.5344389768917003,1.2568252831545281,2.118152076958148
0515,cdot_cos,S,R-S,103,20,18317,0.006987459060794396,-0.07914947640126081,-0.32743816944922866,0.00027846094663426963,840.0,2.354090658168649,0.5577301645872464,5.66034386081522,-0.009585013767449625,0.054,0.9999999999998517,120031.56178144806,0.5116172058116946,103,2026-10-07 20:16:34.401243,25.0,0.013946465878483484,0.2367019706341653,0.21239733687363596
0515,cdot_cos,T,S-T,104,20,18529,-0.1081820253227882,0.03313789387291581,-0.1151694843835826,0.053189542782630134,840.0,2.3681850148059627,0.557795333071335,5.68841948131329,-0.011842389217513804,0.212,0.9999999999998436,-34.639066438876235,0.5165844124133903,104,2026-10-07 20:16:34.613244,25.0,0.8264480285471767,0.17885641862688137,0.06648281432695052
0515,cdot_cos,P,T-P,105,21,18988,0.07509179059661004,0.0004590377979674095,0.18327381591939823,0.9898677244824164,878.0,2.429925779666447,0.559007765730765,5.728126001125872,-0.05267876537904681,0.459,0.9999999999998419,-33.681356109896974,0.5215517165282749,105,2026-10-07 20:16:35.072243,25.0,0.460613422351571,0.08546976813890152,0.13451147028427926
0515,cdot_cos,Q,P-Q,106,21,19077,-0.012257302448703655,-0.008799751707959925,-0.0873490930453137,0.10122132789475456,878.0,2.4466462619574743,0.5591317065762221,5.7566142978029955,-0.01449876357042546,0.089,0.9999999999998299,308.05019659029324,0.5265188759941931,106,2026-10-07 20:16:35.161243,25.0,0.07183897524162058,0.44704269975783584,0.1878705875396338
0515,cdot_cos,R,Q-R,107,21,19106,0.27292109912401447,0.5517986231707102,0.2851784015727181,0.9991994894692737,878.0,2.5094993802233416,0.5603547824381169,5.796356002457952,-0.055358058519476255,0.029,0.9999999999998277,-33.406999698083496,0.5314860118287673,107,2026-10-07 20:16:35.190243,25.0,0.47802550801615235,1.3238886010380633,2.1673489057195643
0515,cdot_cos,S,R-S,108,21,19156,0.14906874931928327,0.5949072332667058,-0.1238523498047312,0.04325977263479808,878.0,2.523431800817682,0.5604077183708005,5.8239289109652095,-0.012460810024977686,0.05,0.9999999999998188,810.3616262109464,0.5364531568685216,108,2026-10-07 20:16:35.240243,25.0,0.03198228805702283,0.255881469573751,0.278648411886806
0515,cdot_cos,T,S-T,109,21,19385,-0.3859455548083256,0.028292967631820286,-0.5350143041276089,1.5529423190233657e-06,878.0,2.5350875271807167,0.5604077202710737,5.85082944081913,-0.010477591599034657,0.229,0.9999999999998095,1043649.1271859066,0.5414203766134706,109,2026-10-07 20:16:35.469243,25.0,0.8275531880945444,0.16452355540085423,0.05089836839753188
0515,cdot_cos,P,T-P,110,22,19866,0.016265431757413656,-0.0002364601433132894,0.4022109865657393,0.9999570432869164,839.0,2.598783589191273,0.5616309579934144,5.890436303299118,-0.05807550354732287,0.481,0.9999999999998068,-38.91141605509426,0.5463877048992646,110,2026-10-07 20:16:35.950243,25.0,0.440613710049347,0.09368882300202834,0.1324242453441922
0515,cdot_cos,Q,P-Q,111,22,19956,-0.02153868250463827,-0.01724751230449,-0.03780411426205192,0.27987074270091156,839.0,2.625216174908668,0.5619731876746493,5.9207561586373485,-0.024519048774288926,0.09,0.9999999999997956,98.05243850256232,0.5513548664233663,111,2026-10-07 20:16:36.040244,25.0,0.2544662315212377,0.5043846199410229,0.29369539685994245
0515,cdot_cos,R,Q-R,112,22,19988,0.3233131434573064,0.4281479963931487,0.34485182596194464,0.9998198058828236,839.0,2.6895728207806573,0.5631952969057362,5.960300032560705,-0.06069742618137056,0.032,0.9999999999997928,-29.603227344012392,0.5563220030088355,112,2026-10-07 20:16:36.072243,25.0,0.5509866654228323,1.1930494473975928,2.0111451834996656
0515,cdot_cos,S,R-S,113,22,20036,0.0043903074023197266,-0.048171594895389684,-0.31892283605498667,0.0003445003467171356,839.0,2.701571339542114,0.5631957178673312,5.986853856902951,-0.011478875739787474,0.048,0.9999999999997816,116919.33664031583,0.5612891473798122,113,2026-10-07 20:16:36.120243,25.0,0.013735794913282914,0.26340141804754674,0.24996914086367986
0515,cdot_cos,T,S-T,114,22,20265,-0.1410943307159604,0.03928875917631342,-0.1454846381182801,0.025652775702277923,839.0,2.7148593569132218,0.5632270639758042,6.0136206981958376,-0.012771948356095394,0.229,0.9999999999997713,-41.25145605942997,0.5662563744669825,114,2026-10-07 20:16:36.349244,25.0,0.9037132447185384,0.16889553465692772,0.058026276729728606
0515,cdot_cos,P,T-P,115,23,20705,0.013944328853695304,-0.0002204661167879397,0.1550386595696557,0.9796868891847973,819.0,2.778925494414987,0.5644238006681594,6.052772261188511,-0.062418620955813915,0.44,0.9999999999997681,-41.485042546838564,0.5712237011889717,115,2026-10-07 20:16:36.789243,25.0,0.45140858284337676,0.1039682814178413,0.1456048579585569
0515,cdot_cos,Q,P-Q,116,23,20796,-0.022398969407586497,-0.018949643111455704,-0.0363432982612818,0.2872899980485181,819.0,2.806351444560922,0.5647745981788688,6.082810015019257,-0.027160659466608013,0.091,0.9999999999997559,100.50801505949504,0.5761908651664093,116,2026-10-07 20:16:36.880243,25.0,0.2730429637052818,0.5121468364120108,0.3013840675377505
0515,cdot_cos,R,Q-R,117,23,20829,0.30909749522637286,0.4405548215302693,0.3314964646339594,0.9997483982931586,819.0,2.8721362186419728,0.5659948404775161,6.122171711113892,-0.06619267869469393,0.033,0.9999999999997533,-31.987105570223825,0.5811580018853153,117,2026-10-07 20:16:36.913243,25.0,0.5545087150723927,1.1827505763565451,1.9934780024560803
0515,cdot_cos,S,R-S,118,23,20888,0.007700232622344058,-0.05310740275063756,-0.3013972626040288,0.0005338127049432122,819.0,2.884412982600454,0.5659954918099865,6.148286244388927,-0.012522697296752159,0.059,0.9999999999997412,82400.28531781539,0.5861251520464975,118,2026-10-07 20:16:36.972243,25.0,0.013762381379093502,0.2161893660056875,0.2080807450590054
0515,cdot_cos,T,S-T,119,23,21104,-0.14975981097613034,0.02263709083030017,-0.1574600435984744,0.01914278361655023,819.0,2.897646563830644,0.5660188487589654,6.17453814232677,-0.013558331541592899,0.216,0.9999999999997286,-44.339448862952956,0.5910923804126169,119,2026-10-07 20:16:37.188244,25.0,0.9264607431444594,0.1831368486943909,0.06126657976939725
0515,cdot_cos,P,T-P,120,24,21524,0.024997079689520422,-0.0008237128119402966,0.17475689066565075,0.9874935106373881,858.0,2.963528101236431,0.5672233328374737,6.213621819815938,-0.06837712407420062,0.42,0.9999999999997262,-45.51225998810634,0.5960597136534269,120,2026-10-07 20:16:37.608243,25.0,0.44856016349350786,0.10977886857373205,0.15686080334711205
0515,cdot_cos,Q,P-Q,121,24,21612,-0.017591606571890843,-0.01285687185551743,-0.04258868626141127,0.25640903243621543,858.0,2.989860813432579,0.5675359555592172,6.242897163464239,-0.02775541706695641,0.088,0.999999999999712,129.93843435531096,0.6010268782327294,121,2026-10-07 20:16:37.696243,25.0,0.23141107682242465,0.5313690686032633,0.29923536586531657
0515,cdot_cos,R,Q-R,122,24,21642,0.3540306299723633,0.4232900156770249,0.37162223654425414,0.9999077167771967,858.0,3.0570490573106053,0.5687545615193366,6.282101134927206,-0.07188209161913324,0.03,0.999999999999709,-36.21078182471292,0.605994013103913,122,2026-10-07 20:16:37.726244,25.0,0.5412490402239941,1.328322644971817,2.239608129267549
0515,cdot_cos,S,R-S,123,24,21694,-0.0004171677047627041,-0.0012558374884262525,-0.354447797677126,0.0001417654371237237,858.0,3.069560172130888,0.5687547342328354,6.30779681911393,-0.0135615740290554,0.052,0.9999999999996956,337672.02901396184,0.6109611603648236,123,2026-10-07 20:16:37.778244,25.0,0.01356280800498335,0.2479142810240147,0.24059836192851067
0515,cdot_cos,T,S-T,124,24,21923,-0.1683105632815638,0.061402677050931956,-0.16789339557680108,0.014812874610323679,858.0,3.082832142537103,0.568772780735464,6.333587325002348,-0.01444670940649388,0.229,0.9999999999996821,-49.0474744971229,0.6159284033109043,124,2026-10-07 20:16:38.007244,25.0,0.9405701963446302,0.17611657301777206,0.05795620264722695
0515,cdot_cos,P,T-P,125,25,22382,0.015812457733644248,-0.000635910396290912,0.18412302101520805,0.9900784549317699,839.0,3.1502215625730274,0.5699785754616243,6.372555958987054,-0.07426526314154555,0.459,0.9999999999996791,-49.60923483679054,0.6208957742694939,125,2026-10-07 20:16:38.466244,25.0,0.4468771692690714,0.10244552820863081,0.14681790857499918
0515,cdot_cos,Q,P-Q,126,25,22471,-0.02759738468518041,-0.02126222527306078,-0.04340984241882466,0.25251453280558767,839.0,3.176877137432626,0.5702859751078013,6.401446100404642,-0.02981325555346072,0.089,0.9999999999996632,144.60656718677998,0.6258629413042606,126,2026-10-07 20:16:38.555244,25.0,0.22514404584289524,0.5348497888296809,0.29950084111908387
0515,cdot_cos,R,Q-R,127,25,22503,0.3139203614843054,0.40432470104681356,0.3415177461694858,0.9998041456971026,839.0,3.2454248249847106,0.5715025566698883,6.440508654574874,-0.07776683965698897,0.032,0.9999999999996603,-39.4166618975127,0.6308300767213526,127,2026-10-07 20:16:38.587244,25.0,0.5397588570176639,1.2711556581546448,2.142115236002648
0515,cdot_cos,S,R-S,128,25,22553,0.03611214804862874,-0.15835679123958887,-0.2778082134356767,0.0009623155805392814,839.0,3.258231099554523,0.5715037272208233,6.465828509207467,-0.014712654100753132,0.05,0.9999999999996452,53867.1010949715,0.6357972231920083,128,2026-10-07 20:16:38.637243,25.0,0.013763830050947617,0.3111862845549407,0.25612549139625074
0515,cdot_cos,T,S-T,129,25,22780,-0.05202919471455359,0.011773535591693666,-0.08814134276318233,0.09943362193156782,839.0,3.2765434534402047,0.571624672957331,6.492410196210968,-0.021137553826330674,0.227,0.9999999999996313,-53.12216793330297,0.6407644733401113,129,2026-10-07 20:16:38.864243,25.0,0.7378928647463513,0.18173055270690408,0.08067116249198912
0515,cdot_cos,P,T-P,130,26,23221,0.04035014601607436,0.00543364462770968,0.09237934073062795,0.9096594202417266,918.0,3.3407367704834576,0.5727307350403822,6.53013711354005,-0.0749835492696075,0.441,0.9999999999996269,-48.68261580284592,0.6457318524402358,130,2026-10-07 20:16:39.305243,25.0,0.48767595658900814,0.10032258438125251,0.14556307719558487
0515,cdot_cos,Q,P-Q,131,26,23310,-0.014681227880296235,-0.010325009115864786,-0.0550313738963706,0.2016869054856439,918.0,3.3650279728644694,0.5729758696893584,6.5580107562600345,-0.02874951977395464,0.089,0.9999999999996086,188.6066685747628,0.6506990215266796,131,2026-10-07 20:16:39.394243,25.0,0.20025434039005918,0.5290545420165728,0.2729348582136156
0515,cdot_cos,R,Q-R,132,26,23342,0.3462459500610469,0.3896888644362564,0.36092717794134316,0.999879432406862,918.0,3.4349084789624076,0.5741906133754213,6.59695010391458,-0.0838063096131841,0.032,0.9999999999996055,-45.323791735583455,0.6556661564658233,132,2026-10-07 20:16:39.426244,25.0,0.518428685408062,1.742326460511423,2.1837658155605677
0515,cdot_cos,S,R-S,133,26,23390,0.3462459500610469,0.3896888644362564,0.0,0.5,918.0,3.4765368663372005,0.5747977237026958,6.628892936286203,-0.05072401168278151,0.048,0.9999999999995961,54.49141028274311,0.6606333022752733,133,2026-10-07 20:16:39.474244,25.0,0.5208975371123167,0.5695168313246957,0.8672580703081856
0515,cdot_cos,T,S-T,134,26,23620,-0.37540939716321364,0.06590463113251993,-0.7216553472242606,1.4612570358321428e-08,918.0,3.4895820947695784,0.5747977237204354,6.6537669223148335,-0.016021299484654285,0.23,0.9999999999995797,1956229931.9610393,0.6656005646906841,134,2026-10-07 20:16:39.704243,25.0,0.11463110987519082,0.1820667686437849,0.056718384488599456
0515,cdot_cos,P,T-P,135,27,24139,0.003444367339643269,-1.9691718665292432e-05,0.3788537645028569,0.9999229781289944,901.0,3.5602875799133415,0.5760111726411005,6.692647345376248,-0.08781405141536985,0.519,0.9999999999995761,-59.1642142558132,0.6705680164122061,135,2026-10-07 20:16:40.223244,25.0,0.4415101536038364,0.09457087248249171,0.136234075421509
0515,cdot_cos,Q,P-Q,136,27,24228,-0.041185359878637424,-0.022496593780273026,-0.04462972721828069,0.2468017332950049,901.0,3.5877466604064048,0.5763105366176009,6.720880553328229,-0.034571748949200655,0.089,0.9999999999995554,177.85140045429677,0.6755351881052082,136,2026-10-07 20:16:40.312243,25.0,0.21436988349988723,0.554820455789568,0.3085289943040812
0515,cdot_cos,R,Q-R,137,27,24257,0.3252122647661774,0.3536404440698812,0.3663976246448148,0.9998948419161693,901.0,3.6590456210438846,0.5775228073636547,6.759733702488715,-0.0909381080919981,0.029,0.9999999999995511,-46.49651022783685,0.6805023204584103,137,2026-10-07 20:16:40.341243,25.0,0.5380347622969164,1.4594290846177673,2.4585848495682714
0515,cdot_cos,S,R-S,138,27,24309,0.0019758973777525522,-0.10358587846315248,-0.3232363673884248,0.00030929392287098746,901.0,3.6723935473142353,0.5775231822074085,6.784363805797305,-0.017223439458155756,0.052,0.999999999999532,196654.3870179347,0.6854694691588407,138,2026-10-07 20:16:40.393243,25.0,0.013843990078772697,0.30278707020441586,0.2566908898144354
0515,cdot_cos,T,S-T,139,27,24536,-0.09411903326266233,0.04501459984244955,-0.09609493064041488,0.08299190203089953,901.0,3.690535476345144,0.5776237596695168,6.8100862601479415,-0.023508403368723278,0.227,0.9999999999995138,-62.48879002134047,0.6904367382182907,139,2026-10-07 20:16:40.620243,25.0,0.7654053844638167,0.19132885791296425,0.07992039220664586
0515,cdot_cos,P,T-P,140,28,25040,0.01872695204936309,0.00013471890632206108,0.11284598531202542,0.9438080676286986,917.0,3.759256848806721,0.5787671011024083,6.848067355828996,-0.09003401180926501,0.504,0.9999999999995086,-58.18525116535342,0.6954042024155207,140,2026-10-07 20:16:41.124243,25.0,0.47764180355252317,0.09785069707318518,0.13635192948725627
0515,cdot_cos,Q,P-Q,141,28,25135,-0.019070425999106164,-0.014447112360279202,-0.037797378048469256,0.27990468489499093,917.0,3.7891689789949146,0.5791060195385199,6.87650587133644,-0.0396989512125658,0.095,0.9999999999994864,148.51673805114166,0.7003713803597468,141,2026-10-07 20:16:41.219244,25.0,0.28141659782587053,0.5394864699901663,0.31486452829677364
0515,cdot_cos,R,Q-R,142,28,25167,0.3173774690143227,0.3837906145215115,0.33644789501342887,0.9997776859895607,917.0,3.8617592781048526,0.5803159747642621,6.9152658652028,-0.09757176607269989,0.032,0.9999999999994813,-47.8305425100626,0.7053385139318962,142,2026-10-07 20:16:41.251244,25.0,0.5525945380010306,1.346639059014179,2.268446847185565
0515,cdot_cos,S,R-S,143,28,25226,-0.0010239069943917022,-0.025162811604062987,-0.3184013760087144,0.0003490192497559793,917.0,3.875353878771822,0.5803163969881683,6.939577718808969,-0.01847892872109022,0.059,0.9999999999994589,187324.39398995152,0.7103056679872336,143,2026-10-07 20:16:41.310244,25.0,0.013840398157007659,0.23189091120858613,0.23041696045710816
0515,cdot_cos,T,S-T,144,28,25438,-0.22113955598297313,0.03943427008149904,-0.22011564898858144,0.004058434717663756,917.0,3.889122405627466,0.5803213066461533,6.963858629671467,-0.01878147182271307,0.212,0.999999999999437,-61.62203203235944,0.7152729347618547,144,2026-10-07 20:16:41.522244,25.0,0.9840204556766443,0.20501534936733612,0.06494588139454614
0515,cdot_cos,P,T-P,145,29,25957,0.022453193206574223,-0.00045673584404845276,0.24359274918954735,0.9977393027288919,717.0,3.9622803869035725,0.5815278288543704,7.002525396784628,-0.10083017922011159,0.519,0.999999999999432,-68.00430761954006,0.7202404326913243,145,2026-10-07 20:16:42.041243,25.0,0.4432011082595316,0.09826624532382969,0.1409595014953887
0515,cdot_cos,Q,P-Q,146,29,26046,-0.020793160863198743,-0.020571719035622195,-0.043246354069772966,0.2532867773785304,717.0,3.991122768273601,0.581833962833747,7.030329821802495,-0.040260247361828164,0.089,0.9999999999994066,197.85432502991515,0.7252076083134366,146,2026-10-07 20:16:42.130244,25.0,0.2221372149269077,0.5769327674343178,0.3240717007868369
0515,cdot_cos,R,Q-R,147,29,26078,0.3067061127351061,0.5594188257365834,0.3274992735983049,0.9997219639884264,717.0,4.064974419506881,0.5830416550139773,7.069007718913021,-0.10433298612405299,0.032,0.9999999999994004,-53.053865720986806,0.7301747410139902,147,2026-10-07 20:16:42.162244,25.0,0.5411180858307857,1.3701413972313503,2.3078641010400025
0515,cdot_cos,S,R-S,148,29,26127,0.007895726090874649,-0.028853189367461823,-0.2988103866442315,0.0005694558602835387,717.0,4.078811817696407,0.5830423426502114,7.093019569958483,-0.019761385805684817,0.049,0.9999999999993757,122988.86552045363,0.7351418877229965,148,2026-10-07 20:16:42.211244,25.0,0.013847658136198773,0.2838867221080362,0.28239588141890487
0515,cdot_cos,T,S-T,149,29,26357,-0.21547494810937398,-0.14041433022132055,-0.22337067420024864,0.0037424443190471617,717.0,4.092795318273469,0.5830468617638431,7.116997299514384,-0.02003819666616774,0.23,0.9999999999993512,-61.253352546404436,0.7401091769682252,149,2026-10-07 20:16:42.441243,25.0,0.9862808173828608,0.19187270925891892,0.06079782859591832
0515,cdot_cos,P,T-P,150,30,26674,0.0012645556949836992,1.2165619814784219e-05,0.2167395038043577,0.9955857248702081,978.0,4.16707326395551,0.5842485635271782,7.15555778584902,-0.10750010954047502,0.317,0.9999999999993453,-72.78171301968615,0.7450765375796818,150,2026-10-07 20:16:42.758244,25.0,0.44326018313892324,0.1802838642944828,0.23431528606322236
0515,cdot_cos,Q,P-Q,151,30,26911,-0.010255035158232274,-0.058441227294094414,-0.011519590853215973,0.4284960754007553,978.0,4.207095288236171,0.584765463801447,7.185721952277466,-0.058703016291569834,0.237,0.9999999999993248,94.40330307028091,0.750043836956979,151,2026-10-07 20:16:42.995244,25.0,0.43550300019862015,0.13705271895254836,0.168869300762281
0515,cdot_cos,R,Q-R,152,30,26944,-0.07086610649086077,0.4226425756213315,-0.0606110713326285,0.18015809036408675,978.0,4.232036252739018,0.5849827351784354,7.212155283871047,-0.03686079650556423,0.033,0.9999999999992986,100.52966980172886,0.7550109696311983,152,2026-10-07 20:16:43.028243,25.0,0.5529102286255045,1.5058275213691819,0.7557868031165857
0515,cdot_cos,S,R-S,153,30,27003,0.09771470262113612,-0.07758386005740443,0.16858080911199688,0.9854358389032214,978.0,4.306479904646537,0.5861705879518291,7.250533505600898,-0.1112243607617139,0.059,0.9999999999992937,-62.60335112380213,0.7599781247686604,153,2026-10-07 20:16:43.087244,25.0,0.5124302783751727,0.7615071853031573,1.2617568119918419
0515,cdot_cos,T,S-T,154,30,27215,-0.053837918157493184,-0.01815461575104368,-0.1515526207786293,0.02212193099057515,978.0,4.321894100604791,0.5861972424697663,7.274520253432869,-0.023271882960385293,0.212,0.9999999999992667,3299.7211957965865,0.764945410266784,154,2026-10-07 20:16:43.299244,25.0,0.02283764195185858,0.1988866375418556,0.07270847150119757
0515,cdot_cos,P,T-P,155,31,27652,0.028913428738145366,-0.0020336126175415775,0.08275134689563855,0.8878318888521705,802.0,4.3908078389642835,0.5872665648736354,7.311413665582697,-0.104980360491328,0.437,0.9999999999992584,-76.41145199549199,0.7699128903869819,155,2026-10-07 20:16:43.736243,25.0,0.4591760661736617,0.11162856859594698,0.15769734178373657
0515,cdot_cos,Q,P-Q,156,31,27739,-0.018556094231927018,-0.01411944997383795,-0.047469522970072384,0.23384283612502277,802.0,4.419457469557648,0.5875480733421672,7.338477232521197,-0.04412342809825781,0.087,0.9999999999992282,216.1815334027629,0.7748800695148491,156,2026-10-07 20:16:43.823244,25.0,0.25176905270815975,0.6035880093460633,0.3293060987743079
0515,cdot_cos,R,Q-R,157,31,27768,0.352417773544978,0.4570307351535063,0.370973867776905,0.9999062088906909,802.0,4.4958321525904985,0.5887511487526438,7.377034935666454,-0.11892298427364824,0.029,0.9999999999992218,-62.17362230498817,0.7798471985757294,157,2026-10-07 20:16:43.852243,25.0,0.5331381123651386,1.5634318342305928,2.6336097597534556
0515,cdot_cos,S,R-S,158,31,27823,-0.0005413767248367757,-0.002446005776955557,-0.3529591502698148,0.0001471400199917131,802.0,4.510136515943023,0.5887513257121031,7.400493602026876,-0.022499865256999516,0.055,0.9999999999991928,544888.1873487507,0.7848143516308633,158,2026-10-07 20:16:43.907244,25.0,0.013766769192258943,0.25977936166751453,0.2600793336822575
0515,cdot_cos,T,S-T,159,31,28034,-0.32006355894838534,-0.10011926667189008,-0.31952218222354856,0.00033937869085708583,802.0,4.524407882373925,0.5887517338692906,7.423881102452233,-0.022519183295138794,0.211,0.9999999999991638,-47.32989821385976,0.7897816448700099,159,2026-10-07 20:16:44.118243,25.0,0.9991425197670758,0.21635215381620382,0.06763680772939541
0515,cdot_cos,P,T-P,160,32,28454,0.04676950755905391,0.0034405121588284336,0.36683306650743924,0.9998959803451516,838.0,4.601437124853461,0.5899537363127343,7.462394417614615,-0.1226659377498086,0.42,0.9999999999991576,-83.31659806593399,0.7947491302295734,160,2026-10-07 20:16:44.538244,25.0,0.44201183974467945,0.12123385661219754,0.1834029582846085
0515,cdot_cos,Q,P-Q,161,32,28546,-0.017860979982059023,-0.014768867156625544,-0.06463048754111293,0.16579014569533443,838.0,4.626244321928171,0.5901529338056539,7.488205855240515,-0.03993936772691776,0.092,0.9999999999991244,415.29925306975053,0.7997163164804009,161,2026-10-07 20:16:44.630244,25.0,0.12602134933257866,0.5563223901557849,0.269643446464243
0515,cdot_cos,R,Q-R,162,32,28579,0.33070339178752994,0.4560333551098434,0.348564371769589,0.9998357750679026,838.0,4.703800444642125,0.5913536111417709,7.526707310418175,-0.12613603670916618,0.033,0.9999999999991179,-71.7900358317853,0.8046834486742498,162,2026-10-07 20:16:44.663244,25.0,0.504916227050601,1.394965049887803,2.350185536786487
0515,cdot_cos,S,R-S,163,32,28638,-0.0006102841845198173,-0.007309505979462615,-0.33131367597204975,0.00025275379507473336,838.0,4.718312015220766,0.5913539145302527,7.549906016359577,-0.023834281490574025,0.059,0.9999999999990861,337197.2285099623,0.8096506062815848,163,2026-10-07 20:16:44.722244,25.0,0.01367466290279056,0.24629287875627787,0.24595882336679564
0515,cdot_cos,T,S-T,164,32,28853,-0.25887451668124545,-0.00981741962261811,-0.25826423249672564,0.001567654544994572,838.0,4.732863004335366,0.5913557962346971,7.573053935358188,-0.02397270632322485,0.215,0.999999999999054,-73.56353600407012,0.8146179123315468,164,2026-10-07 20:16:44.937243,25.0,0.9942423709753146,0.21555762322069683,0.0676790191376737
0515,cdot_cos,P,T-P,165,33,29292,0.011824658105772504,-0.0008671010682186203,0.27069917478701794,0.9988507311247797,679.0,4.811001793205666,0.5925542012982611,7.611501332965446,-0.12987732080060638,0.439,0.9999999999990482,-88.37130090424606,0.8195854361993182,165,2026-10-07 20:16:45.376243,25.0,0.44245328907656695,0.1241950061412493,0.17799268535375806
0515,cdot_cos,Q,P-Q,166,33,29382,-0.030970582247995412,-0.03163390670271591,-0.042795240353767916,0.25542571365870703,679.0,4.841906219727383,0.5928604808640627,7.638478057009613,-0.051942050635867446,0.09,0.999999999999015,254.45794909873658,0.8245526231519212,166,2026-10-07 20:16:45.466244,25.0,0.22303483969180923,0.6090707571881411,0.3433825169079678
0515,cdot_cos,R,Q-R,167,33,29412,0.28534612145537097,0.5848841034205444,0.3163167037033664,0.9996323155074323,679.0,4.920634529499531,0.5940584385888942,7.676932029700424,-0.13369984628382986,0.03,0.9999999999990087,-68.2476467685585,0.8295197518416524,167,2026-10-07 20:16:45.496243,25.0,0.5425350755003244,1.5595514989411956,2.624276992404943
0515,cdot_cos,S,R-S,168,33,29462,0.03854934197916778,-0.07340847235550098,-0.24679677947620318,0.0020870395355518058,679.0,4.9354793096638545,0.5940609385282558,7.6999149444435755,-0.02545164540189102,0.05,0.999999999998974,43300.330617308195,0.8344869013748268,168,2026-10-07 20:16:45.546243,25.0,0.014220190624243735,0.29842746496419714,0.2968956032864689
0515,cdot_cos,T,S-T,169,33,29692,-0.17220580215094872,-0.08173831412542895,-0.2107551441301165,0.00512300154542202,679.0,4.950477275995951,0.5940670750435691,7.722877138408875,-0.025792021065289883,0.23,0.9999999999989401,-55.46725560336675,0.839454232443051,169,2026-10-07 20:16:45.776243,25.0,0.9868897612966595,0.2033697331255087,0.06520854926998378
0515,cdot_cos,P,T-P,170,34,29971,0.001228027356530662,-5.630252332032025e-06,0.17343382950747938,0.9870783566147955,939.0,5.0290293869015885,0.5952488827080286,7.761101208949145,-0.13623792081893957,0.279,0.9999999999989335,-93.45505455337391,0.8444216156595666,170,2026-10-07 20:16:46.055244,25.0,0.4445538966383747,0.22114773670100146,0.2815487846080205
0515,cdot_cos,Q,P-Q,171,34,30213,-0.004691894672871039,-0.05345730225127895,-0.005919922029401701,0.46306787438416647,939.0,5.07387771307511,0.5958029244732986,7.791139716814859,-0.07871053089145086,0.242,0.9999999999989087,103.83222625725023,0.8493889644070811,171,2026-10-07 20:16:46.297244,25.0,0.48148854002397584,0.13231259508989462,0.18532366187405405
0515,cdot_cos,R,Q-R,172,34,30242,-0.10992814434998627,0.4366425195267344,-0.10523624967711523,0.0671756404035549,939.0,5.0930686829250975,0.5958832771337742,7.814941588358326,-0.03389221760153007,0.029,0.9999999999988696,557.7701226650453,0.8543560911254048,172,2026-10-07 20:16:46.326244,25.0,0.26650088471089556,1.7057868282891884,0.661757581034066
0515,cdot_cos,S,R-S,173,34,30299,0.09659776448382326,-0.06190246416153551,0.20652590883380953,0.9943089189507065,939.0,5.1728133491158825,0.5970720240232756,7.85326202583709,-0.14206806936670915,0.057,0.9999999999988652,-90.9999031085149,0.8593232482744823,173,2026-10-07 20:16:46.383244,25.0,0.4669949806977502,0.8413117318165494,1.399029231417281
0515,cdot_cos,T,S-T,174,34,30511,-0.06145895918554132,-0.03140933955570558,-0.15805672366936457,0.018864696816213257,939.0,5.188978220352184,0.5970945667558365,7.876223980899737,-0.029066843785317893,0.212,0.9999999999988287,5012.756340710558,0.8642905725510974,174,2026-10-07 20:16:46.595244,25.0,0.020493794336026237,0.21378318971014162,0.07624939262406422
0515,cdot_cos,P,T-P,175,35,30910,0.02957770324961119,-0.0020271489056586083,0.09103666243515252,0.9068627210233718,818.0,5.263457421552983,0.5981777543818756,7.9131537399711185,-0.13497743295616368,0.399,0.9999999999988195,-97.77677165509202,0.8692581016112562,175,2026-10-07 20:16:46.994244,25.0,0.45627752456226783,0.13203504293633478,0.1866646646636552
0515,cdot_cos,Q,P-Q,176,35,30998,-0.016358726066713708,-0.01271341214978787,-0.0459364293163249,0.2407794888873438,818.0,5.294342184615379,0.5984651890935953,7.9395440812145335,-0.0565228748864204,0.088,0.9999999999987824,272.94740290887955,0.8742252925776709,176,2026-10-07 20:16:47.082243,25.0,0.24957038726900949,0.636256977214831,0.3509632166181447
0515,cdot_cos,R,Q-R,177,35,31028,0.3517915066178778,0.4567804717162092,0.36815023268459146,0.9998993495034719,818.0,5.375438649542793,0.5996581101056059,7.977938468903983,-0.14984303985219455,0.03,0.9999999999987759,-78.22828504670744,0.879192420245875,177,2026-10-07 20:16:47.112243,25.0,0.5364477473372381,1.6044988066953685,2.7032154975804508
0515,cdot_cos,S,R-S,178,35,31079,-1.178709294985394e-05,-4.290278811511705e-05,-0.35180329371082764,0.00015145321274858905,818.0,5.390612113017101,0.5996582907064348,8.000445676217145,-0.028289180815787126,0.051,0.9999999999987368,673052.6085480173,0.8841595723626088,178,2026-10-07 20:16:47.163244,25.0,0.013611611572134946,0.2970672166999929,0.29751889165310963
0515,cdot_cos,T,S-T,179,35,31309,-0.3699517550178196,-0.09622493184910162,-0.3699399679248697,9.624674057801173e-05,818.0,5.405739505646192,0.5996584054761295,8.022888907108463,-0.028282661964822667,0.23,0.9999999999986978,56.79941020218889,0.8891269268754166,179,2026-10-07 20:16:47.393243,25.0,0.9997695372604042,0.21052802083633668,0.06577127230039428
0515,cdot_cos,P,T-P,180,36,31728,0.008613590483277537,-0.00015951663099060773,0.3785653455010971,0.999922420800915,856.0,5.487455002601816,0.6008501733538804,8.061257397444345,-0.1539948585926949,0.419,0.9999999999986914,-105.48379342554334,0.894094499797028,180,2026-10-07 20:16:47.812243,25.0,0.44204649096542936,0.13439111641038154,0.19502505240005774
0515,cdot_cos,Q,P-Q,181,36,31821,-0.038674715492695744,-0.026636441273767346,-0.04728830597597328,0.23465548720000134,856.0,5.518359261198092,0.6011296775216911,8.08737942837832,-0.05882810409032497,0.093,0.9999999999986513,340.484205469187,0.8990616993260538,181,2026-10-07 20:16:47.905244,25.0,0.19835260117111247,0.608199075274317,0.33230385587393063
0515,cdot_cos,R,Q-R,182,36,31853,0.3035127354671003,0.4044714774858334,0.342187450959796,0.9998073968869922,856.0,5.600580030602839,0.6023198333324393,8.125745599937964,-0.15796118472997248,0.032,0.9999999999986452,-83.294203787759,0.9040288286151368,182,2026-10-07 20:16:47.937243,25.0,0.5338829088216495,1.525673979665118,2.569399043898357
0515,cdot_cos,S,R-S,183,36,31912,0.020844409506056993,-0.116722559090324,-0.2826683259610433,0.0008523095104232229,856.0,5.616002395896659,0.6023208473950661,8.14805220585335,-0.029889372684824937,0.059,0.9999999999986023,126295.76188458221,0.9089959907933972,183,2026-10-07 20:16:47.996243,25.0,0.013775534015386375,0.2948426667632957,0.26139602192915473
0515,cdot_cos,T,S-T,184,36,32127,-0.08918561008008377,0.023256291328767532,-0.11003001958614077,0.060044279327473436,856.0,5.635371465280908,0.6023922847942322,8.171253352879187,-0.03765243075697375,0.215,0.9999999999985633,-108.66938274296862,0.9139633389663271,184,2026-10-07 20:16:48.211244,25.0,0.8136891949622929,0.22834550801402784,0.09008869481045935
0515,cdot_cos,P,T-P,185,37,32584,0.02107865122526669,-0.002110911093208148,0.11026426130535047,0.9402853793958834,822.0,5.714190964342691,0.6035104139994264,8.208636110038677,-0.15440939765598405,0.457,0.9999999999985548,-104.42171294393074,0.9189309810024926,185,2026-10-07 20:16:48.668243,25.0,0.46946949845283753,0.12247573239459424,0.17247155155751248
0515,cdot_cos,Q,P-Q,186,37,32669,-0.02049756851559579,-0.014888612433022523,-0.04157621974086248,0.26126472062938644,822.0,5.747314284689567,0.603820902458537,8.235026586659938,-0.06551181889201046,0.085,0.9999999999985122,286.31524346705845,0.9238981736708983,186,2026-10-07 20:16:48.753243,25.0,0.2574396153724375,0.6851281767710293,0.3896861217279521
0515,cdot_cos,R,Q-R,187,37,32699,0.35713805852628727,0.43860969391936133,0.3776356270418831,0.9999205966566206,822.0,5.830662754393766,0.6050084389686496,8.273373429609189,-0.1663504336723952,0.03,0.9999999999985048,-84.91411752117223,0.9288652997115728,187,2026-10-07 20:16:48.783243,25.0,0.5454294260325568,1.6487775958016058,2.7782823234733023
0515,cdot_cos,S,R-S,188,37,32757,-6.342854944178226e-05,-0.015798673043263236,-0.3572014870757291,0.00013233558893530425,822.0,5.846240940437664,0.605008596052815,8.29546739628238,-0.031357275181391496,0.058,0.9999999999984596,859368.3405141868,0.9338324615889879,188,2026-10-07 20:16:48.841243,25.0,0.013500847293868065,0.2783622073786501,0.2685894145499529
0515,cdot_cos,T,S-T,189,37,32964,-0.16156102052119467,0.0433840394038049,-0.1614975919717529,0.017336718696621515,822.0,5.86295277044969,0.6050291747889784,8.317783475842512,-0.033731593902881905,0.207,0.9999999999984147,-115.37728569097743,0.9387998103388491,189,2026-10-07 20:16:49.048243,25.0,0.9320315882832566,0.24130422322211595,0.08073347831896686
0515,cdot_cos,P,T-P,190,38,33406,0.017502476514612265,9.552980894525318e-05,0.17906349703580693,0.9887557164050677,819.0,5.94614088885162,0.6062022126781725,8.355928527292164,-0.16916597849469822,0.442,0.9999999999984085,-115.45610405207196,0.9437674592201845,190,2026-10-07 20:16:49.490243,25.0,0.44905917628313696,0.13307379041653228,0.18820841267404945
0515,cdot_cos,Q,P-Q,191,38,33502,-0.021442362752897196,-0.019311251175048064,-0.03894483926750946,0.2741593523883849,819.0,5.980590001177904,0.6065272532075541,8.382381489257279,-0.07073084589729049,0.096,0.9999999999983642,302.83956522192085,0.9487346687797172,191,2026-10-07 20:16:49.586244,25.0,0.2486557013291536,0.6191987476854242,0.3588449200654653
0515,cdot_cos,R,Q-R,192,38,33534,0.29462784775605383,0.44905657850260766,0.316070210508951,0.9996300435594927,819.0,6.065027048407221,0.6077116037545602,8.42070713639549,-0.174907904114454,0.032,0.9999999999983565,-87.96133752840778,0.9537017966254017,192,2026-10-07 20:16:49.618243,25.0,0.5512257064946219,1.5666367971554767,2.638657725916149
0515,cdot_cos,S,R-S,193,38,33593,0.008481881387492849,-0.051317778366387005,-0.286145966368561,0.0007813941524378778,819.0,6.080854756195855,0.607712529048038,8.44262042662795,-0.033059344992570475,0.059,0.999999999998308,153301.15529434592,0.9586689608273837,193,2026-10-07 20:16:49.677243,25.0,0.013694992380649362,0.2795903790349334,0.2682662337056566
0515,cdot_cos,T,S-T,194,38,33806,-0.1458259593222718,0.015169556487561419,-0.15430784070976464,0.02067990655358807,819.0,6.098018713133343,0.6077370170261817,8.464805337796484,-0.03594695228598554,0.213,0.9999999999982607,-117.91938380827852,0.9636363281132536,194,2026-10-07 20:16:49.890244,25.0,0.9228120604875194,0.23879160915377678,0.08058195745299719
0515,cdot_cos,P,T-P,195,39,34225,0.05133211774402617,0.0023849982463150423,0.19715807706629795,0.9928178749185042,879.0,6.182579981695364,0.6089120162482837,8.503001943014626,-0.17838749005849788,0.419,0.9999999999982533,-121.22606985023087,0.9686039722930848,195,2026-10-07 20:16:50.309243,25.0,0.4500081882982104,0.13260209602035208,0.20181687007642127
0515,cdot_cos,Q,P-Q,196,39,34317,-0.016739932487549857,-0.013010314626355836,-0.06807205023157603,0.15423015711961072,879.0,6.209139269598398,0.6090944346293712,8.527330875223097,-0.05652608656651183,0.092,0.9999999999982013,668.0324798714337,0.973571179868285,196,2026-10-07 20:16:50.401243,25.0,0.11580545276777592,0.6091556530676424,0.28868791198950566
0515,cdot_cos,R,Q-R,197,39,34350,0.3316218424085235,0.4193899462465911,0.34836177489607334,0.9998349413090719,879.0,6.29466462185981,0.6102762651495119,8.565644418094292,-0.18346984616071124,0.033,0.9999999999981936,-107.41282902313279,0.9785383084040492,197,2026-10-07 20:16:50.434243,25.0,0.5006213242453542,1.5378562920271506,2.591677341254899
0515,cdot_cos,S,R-S,198,39,34409,-0.0009441563905974275,-0.006229110547665292,-0.3325659987991209,0.0002449650611725258,879.0,6.31063778487219,0.6102765545464676,8.587361175357055,-0.03454394670443341,0.059,0.9999999999981419,514607.6921795921,0.9835054736290627,198,2026-10-07 20:16:50.493243,25.0,0.01341742485529659,0.2732369690786927,0.27073157648102164
0515,cdot_cos,T,S-T,199,39,34624,-0.21239201605488398,0.04124653687028998,-0.21144785966428656,0.005035488679176627,879.0,6.326906584211096,0.6102825033575848,8.60910305630056,-0.03527309409433218,0.215,0.9999999999980906,-122.57027085343482,0.9884728542934781,199,2026-10-07 20:16:50.708243,25.0,0.9795407012446881,0.23753980631292915,0.075668834134444
0515,cdot_cos,P,T-P,200,40,35104,0.01295137458301072,-0.00048184560325726977,0.22534339063789469,0.9964370061640032,895.0,6.41277990158675,0.6114590234018987,8.647345544733517,-0.18748455479465692,0.48,0.9999999999980838,-129.37430300143203,0.9934406070927463,200,2026-10-07 20:16:51.188244,25.0,0.44403080706218,0.12623825306596154,0.17890274453261265
0515,cdot_cos,Q,P-Q,201,40,35193,-0.02600837075141078,-0.018341242098675017,-0.0389597453344215,0.2740852024367115,895.0,6.448095307154419,0.6117824162018354,8.673522306184982,-0.07781284723762555,0.089,0.9999999999980326,339.1284765106553,0.9984078132141108,201,2026-10-07 20:16:51.277244,25.0,0.24428265315588227,0.6849469922364924,0.3968023097490898
0515,cdot_cos,R,Q-R,202,40,35225,0.3227516432000592,0.37236304761427574,0.34876001395147,0.9998365762089267,895.0,6.534700466204845,0.6129612859534046,8.711826390283589,-0.19241714067293403,0.032,0.999999999998024,-97.21539914206457,1.0033749393759188,202,2026-10-07 20:16:51.309243,25.0,0.5512298813873925,1.6059829903229128,2.706411220325833
0515,cdot_cos,S,R-S,203,40,35274,0.001093970424815782,-0.07234038854871232,-0.32165767277524343,0.0003217410230795513,895.0,6.550878218535085,0.612961665094053,8.733369084983982,-0.03622788292100829,0.049,0.9999999999979685,411955.9809738536,1.0083420909606524,203,2026-10-07 20:16:51.358243,25.0,0.013416102468325555,0.36574921508239433,0.33015821082121977
0515,cdot_cos,T,S-T,204,40,35503,-0.11664749929043641,0.05314626227030159,-0.11774146971525219,0.050042873627599696,895.0,6.57054388928292,0.6130206341093155,8.75569567390383,-0.04415674626904982,0.229,0.9999999999979158,-134.45812708164206,1.0133095034052968,204,2026-10-07 20:16:51.587244,25.0,0.835636335299796,0.2270431737557684,0.08587629147526145
0515,cdot_cos,P,T-P,205,41,35999,0.00990305642904304,-0.000604854552986512,0.12655055571947946,0.9594476449700163,822.0,6.654863992115227,0.6141505758123696,8.793307983579506,-0.1906238472161719,0.496,0.9999999999979059,-129.62359080228097,1.0182773091583885,205,2026-10-07 20:16:52.083244,25.0,0.4637745856804905,0.12167223277056545,0.17000020732319973
0515,cdot_cos,Q,P-Q,206,41,36085,-0.027311626262650233,-0.019680740318500423,-0.03721468269169327,0.2828502504454998,822.0,6.691242744191321,0.6144834545881214,8.81950721037692,-0.08296596701622748,0.086,0.9999999999978512,323.4146723738293,1.0232445135530248,206,2026-10-07 20:16:52.169244,25.0,0.2731825672619207,0.7212577675825683,0.42300874507085895
0515,cdot_cos,R,Q-R,207,41,36114,0.3338412591974593,0.40545163036680654,0.3611528854601095,0.9998801107350086,822.0,6.778920328139429,0.6156593262474895,8.857805750499383,-0.20158700227356974,0.029,0.9999999999978418,-100.87923653256613,1.028211634089814,207,2026-10-07 20:16:52.198244,25.0,0.5551949695224342,1.794022920967657,3.0233649637278575
0515,cdot_cos,S,R-S,208,41,36171,0.009098352612423762,-0.08011784780289123,-0.3247429065850355,0.00029786488691687274,822.0,6.795296073607445,0.6156596763398071,8.879180671523596,-0.03794172325115065,0.057,0.999999999997782,467434.64739089855,1.0331787978905271,208,2026-10-07 20:16:52.255244,25.0,0.013392382172366792,0.31382865370105273,0.28729378014063567
0515,cdot_cos,T,S-T,209,41,36382,-0.11503839661649744,0.025360961083185845,-0.1241367492289212,0.042966455715361146,822.0,6.814696794661349,0.6157101752498546,8.901229335217756,-0.045066671026730475,0.211,0.9999999999977244,-141.09111996435485,1.0381461954540523,209,2026-10-07 20:16:52.466244,25.0,0.8537661614633053,0.25377111340016506,0.09194654527916483
0515,cdot_cos,P,T-P,210,42,36821,0.07786416315144665,0.0040223879734636375,0.19290255976794407,0.9920180930278104,879.0,6.902387483462315,0.6168754086331063,8.939384759055484,-0.20506760385867062,0.439,0.9999999999977157,-137.3123488664924,1.043113945093649,210,2026-10-07 20:16:52.905244,25.0,0.45829827411046514,0.12635530581537244,0.1997509995466193
0515,cdot_cos,Q,P-Q,211,42,36910,-0.012439815187609697,-0.009279759414145944,-0.09030397833905635,0.09469596397411646,879.0,6.925636753167246,0.6169865694188429,8.962258914425115,-0.054802908224920246,0.089,0.9999999999976488,1351.7779191470245,1.0480811570495894,211,2026-10-07 20:16:52.994244,25.0,0.06444707226999896,0.6286973017590811,0.2612277494936082
0515,cdot_cos,R,Q-R,212,42,36942,0.2739828955599134,0.531429800926163,0.28642271074752307,0.9992239891692847,879.0,7.014295603175431,0.6181587812875429,9.000539096677853,-0.2104310763085477,0.032,0.9999999999976396,-132.76453876569607,1.0530482812761348,212,2026-10-07 20:16:53.026243,25.0,0.4773198966946315,1.708193324628973,2.7705890627557905
0515,cdot_cos,S,R-S,213,42,36991,0.16184268636829285,0.5687273763900595,-0.11214020919162054,0.05713505354031451,879.0,7.0349611259435,0.6182257662715277,9.022719408494883,-0.049430833706699207,0.049,0.9999999999975793,2403.5273732141145,1.0580154332831584,213,2026-10-07 20:16:53.075244,25.0,0.03850060708004797,0.37919018974934865,0.4217453626136528
0515,cdot_cos,T,S-T,214,42,37220,-0.3201669944503962,0.04402038259337009,-0.48200968081868906,5.843107107849404e-06,879.0,7.051456241770867,0.618225773121741,9.043874808453856,-0.03955980821075737,0.229,0.9999999999975158,1440980.7526477529,1.0629828704589481,214,2026-10-07 20:16:53.304243,25.0,0.7791734730431302,0.23092794308874623,0.07203107348195274
0515,cdot_cos,P,T-P,215,43,37700,0.008086431138520856,-0.0005287758924204303,0.32825342558891707,0.9997271554998147,857.0,7.140726123878146,0.6193971211528578,9.08215628506769,-0.21544660402012705,0.48,0.9999999999975074,-150.1575886388493,1.067950711651485,215,2026-10-07 20:16:53.784243,25.0,0.4420278862397143,0.13206964624859763,0.18597892105683042
0515,cdot_cos,Q,P-Q,216,43,37788,-0.02837768817557619,-0.020052245207620105,-0.03646411931409704,0.28667192940441105,857.0,7.178243102169521,0.6197327498229629,9.108186338418726,-0.09132240006185578,0.088,0.9999999999974467,369.8259863182059,1.0729179248368106,216,2026-10-07 20:16:53.872243,25.0,0.25686956924334753,0.7231573186992181,0.4263292987656264
0515,cdot_cos,R,Q-R,217,43,37817,0.33081328394428705,0.38957675082450166,0.3591909721198632,0.9998740845900831,857.0,7.268001811969208,0.6209024812211048,9.14647701898026,-0.22016594856801996,0.029,0.9999999999974366,-110.14797816902961,1.077885043141831,217,2026-10-07 20:16:53.901243,25.0,0.5569882905236864,1.836326034247732,3.0951279241271465
0515,cdot_cos,S,R-S,218,43,37869,0.004453240161878304,-0.07957955822036322,-0.32636004378240874,0.0002860662296602126,857.0,7.2847500121558895,0.6209028156835722,9.167532546609454,-0.04138395539558046,0.052,0.9999999999973687,534535.2935066523,1.0828522003410066,218,2026-10-07 20:16:53.953243,25.0,0.013298821153808317,0.3656671188623656,0.32208077282079267
0515,cdot_cos,T,S-T,219,43,38097,-0.10388814188251737,0.03641960889651705,-0.10834138204439567,0.06247162612980396,857.0,7.306031192330894,0.6209758534085275,9.189615811088965,-0.05271816777516293,0.228,0.9999999999973054,-155.1829877850834,1.0878196490937333,219,2026-10-07 20:16:54.181243,25.0,0.806544403500613,0.2359571164653842,0.09333850953949473
0515,cdot_cos,P,T-P,220,44,38557,0.010183170963180695,-0.0008376066191493242,0.11407131284569806,0.9454107659430767,800.0,7.392346457264105,0.6220804945621682,9.22695748226636,-0.2151528652773984,0.46,0.9999999999972928,-147.0474795972208,1.0927874883811102,220,2026-10-07 20:16:54.641243,25.0,0.4700231012665047,0.1342393460490317,0.1876418802895878
0515,cdot_cos,Q,P-Q,221,44,38643,-0.028336997239091326,-0.021080324214874935,-0.03852016820227202,0.2762771063368737,800.0,7.429531390696003,0.6224030649562694,9.25269997229825,-0.09343610876176729,0.086,0.9999999999972279,377.3339362242838,1.0977547012800655,221,2026-10-07 20:16:54.727243,25.0,0.2718041125725736,0.7440354083052186,0.43238294688254386
0515,cdot_cos,R,Q-R,222,44,38671,0.3290245260276607,0.4163509328155656,0.357361523266752,0.9998681927457543,800.0,7.520320547492602,0.6235695646940773,9.29099055181758,-0.2298183616885451,0.028,0.9999999999972177,-116.91580246993229,1.1027218167465938,222,2026-10-07 20:16:54.755244,25.0,0.5524264528113448,1.9238538921338817,3.242469885592815
0515,cdot_cos,S,R-S,223,44,38727,0.013934498699144992,-0.09817174111185081,-0.3150900273285157,0.0003791305755589896,800.0,7.537267208655501,0.6235700067374497,9.31189927449432,-0.043206941945006384,0.056,0.9999999999971462,422156.3570814227,1.1076889814115531,223,2026-10-07 20:16:54.811244,25.0,0.013312993654373734,0.33311683335459796,0.30261894933747424
0515,cdot_cos,T,S-T,224,44,38938,-0.10659461360326887,0.016496213463014813,-0.12052911230241387,0.04683184983642562,800.0,7.557629632828317,0.6236246082658204,9.333571837389869,-0.05204135162380119,0.211,0.9999999999970777,-161.7978460017375,1.1126564140280966,224,2026-10-07 20:16:55.022244,25.0,0.8438694312494817,0.26149485583633714,0.0965043799659546
0515,cdot_cos,P,T-P,225,45,39357,0.05248696468902484,0.004038454462392325,0.15908157829229372,0.9816037244142203,858.0,7.647618037818435,0.6247683412305961,9.371538718413493,-0.23138901786860636,0.419,0.999999999997067,-156.8090382705584,1.1176242121937692,225,2026-10-07 20:16:55.441243,25.0,0.46066161797699917,0.1415403243745795,0.2147694629835748
0515,cdot_cos,Q,P-Q,226,45,39450,-0.015063850631681305,-0.01212110276258174,-0.06755081532070614,0.1559376151714919,858.0,7.676240424654215,0.624949906977299,9.395071332322885,-0.07415711571075531,0.093,0.9999999999969928,865.9777794713607,1.122591440726237,226,2026-10-07 20:16:55.534244,25.0,0.12000117518646747,0.6473778610906746,0.3077676003847288
0515,cdot_cos,R,Q-R,227,45,39482,0.334359376973195,0.4457590185516507,0.3494232276048763,0.9998392630596249,858.0,7.768030319981301,0.6261132315447238,9.433361251480006,-0.23938638205919283,0.032,0.9999999999969824,-142.0319582128372,1.1275585623680853,227,2026-10-07 20:16:55.566243,25.0,0.501465739236829,2.2872237299929736,2.868434228971428
0515,cdot_cos,S,R-S,228,45,39541,0.334359376973195,0.4457590185516507,0.0,0.5,858.0,7.822622743373765,0.626694441827323,9.462892804515135,-0.14363531060673623,0.059,0.9999999999969419,164.74428329836275,1.1325257339354078,228,2026-10-07 20:16:55.625243,25.0,0.5134378594257103,0.6078699808304132,0.9252953117366884
0515,cdot_cos,T,S-T,229,45,39756,-0.27433267640761405,0.022152390945701615,-0.6086920533808091,2.4615569845476584e-07,858.0,7.839758977719289,0.6266944421133697,9.483622088008559,-0.0452937250383481,0.215,0.9999999999968673,343795643.68334967,1.137493188945532,229,2026-10-07 20:16:55.840243,25.0,0.11404106420802672,0.2546678500106047,0.07970341556057739
0515,cdot_cos,P,T-P,230,46,40215,0.011491815001211833,-0.000784695792457583,0.2858244914088259,0.9992123055444554,898.0,7.932129918878325,0.6278548501077897,9.521904831485257,-0.24554713145932988,0.459,0.9999999999968581,-172.57155016504356,1.1424610932410437,230,2026-10-07 20:16:56.299244,25.0,0.44240054892586567,0.1435920144690005,0.20124388052077533
0515,cdot_cos,Q,P-Q,231,46,40302,-0.023489527429250017,-0.01540253579529066,-0.03498134243046185,0.2943118387434617,898.0,7.971576447001832,0.6281963610630504,9.547773312999853,-0.10569646428030535,0.087,0.9999999999967887,409.505654283533,1.1474283155095806,231,2026-10-07 20:16:56.386244,25.0,0.2662992048416135,0.7605256913391052,0.45340836923570776
0515,cdot_cos,R,Q-R,232,46,40331,0.3404680201971393,0.36167401416209877,0.3639575476263893,0.9998882281109848,898.0,8.06446138917133,0.6293556447472753,9.586074902821313,-0.25063404189043476,0.029,0.9999999999967781,-125.02339123924943,1.1523954310821822,232,2026-10-07 20:16:56.415244,25.0,0.560860153034151,1.90106007942548,3.2029290403275072
0515,cdot_cos,S,R-S,233,46,40385,-0.0006085965664563127,-0.05394336998297747,-0.3410766167635956,0.00019802575411236763,898.0,8.08183793160851,0.6293558741939022,9.606715814108114,-0.04721003463536616,0.054,0.9999999999966993,886585.303448794,1.157362594757683,233,2026-10-07 20:16:56.469243,25.0,0.013448138356542606,0.34992656771634556,0.321787822910743
0515,cdot_cos,T,S-T,234,46,40613,-0.1270276223411098,0.06423901305530567,-0.1264190257746535,0.0406804872158421,898.0,8.102253458484695,0.6294030082418083,9.628030043161859,-0.05559350918823646,0.228,0.9999999999966233,-177.86451461938606,1.1623300873767402,234,2026-10-07 20:16:56.697243,25.0,0.8600200973995477,0.24449454683819127,0.08954178454467192
0515,cdot_cos,P,T-P,235,47,41113,0.01056430128083178,-0.0006388971955475971,0.1375919236219416,0.9689254371374579,840.0,8.193327444966725,0.6305249139781549,9.665779589236111,-0.2493995947853097,0.5,0.9999999999966104,-172.74720978625433,1.1672981015286248,235,2026-10-07 20:16:57.197243,25.0,0.4597416308187358,0.13082311918069145,0.18214797296406005
0515,cdot_cos,Q,P-Q,236,47,41201,-0.02473570830878532,-0.0179162930089626,-0.0353000095896171,0.2926599358532352,840.0,8.233076577665386,0.6308635044601897,9.691525492286337,-0.10968236240279412,0.088,0.999999999996536,412.6437091287367,1.1722653285488704,236,2026-10-07 20:16:57.285243,25.0,0.2797566943067892,0.7592699786589184,0.45169468975751625
0515,cdot_cos,R,Q-R,237,47,41229,0.33052579602341575,0.3967785520008617,0.35526150433220105,0.9998610889182316,840.0,8.326958961210694,0.6320193120204173,9.729830162984708,-0.2608223834288954,0.028,0.9999999999965229,-130.7657314478369,1.177232440579927,237,2026-10-07 20:16:57.313244,25.0,0.5601924539814069,1.9902953602410582,3.352942269475293
0515,cdot_cos,S,R-S,238,47,41284,0.009942862718049235,-0.0705317624299946,-0.3205829333053665,0.00033050000377015824,840.0,8.344533117838886,0.6320196938180973,9.750341489899062,-0.049152848743579225,0.055,0.999999999996439,554402.359570155,1.1821996065750482,238,2026-10-07 20:16:57.368243,25.0,0.013482626521480398,0.374645164524523,0.31953012051256474
0515,cdot_cos,T,S-T,239,47,41510,-0.08788320066756873,0.02559196078973569,-0.09782606338561797,0.07975712248695348,840.0,8.368169929308392,0.6321118253897552,9.772228268757848,-0.06626584448558767,0.226,0.9999999999963604,-185.7451841324821,1.18716710914696,239,2026-10-07 20:16:57.594244,25.0,0.7724039560600462,0.2566955145209661,0.10458766136949765
0515,cdot_cos,P,T-P,240,48,41953,0.05603483531924865,0.00290301639424,0.14391803598681738,0.9733499045556416,859.0,8.460559490402362,0.6332354134478739,9.810057757106934,-0.26047792474392484,0.443,0.9999999999963463,-172.84989712645455,1.192135045622646,240,2026-10-07 20:16:58.037244,25.0,0.4744500191588591,0.13704078100740735,0.2085543139818741
0515,cdot_cos,Q,P-Q,241,48,42040,-0.013957729441965456,-0.00991368356256573,-0.06999256476121411,0.14807064458820537,859.0,8.489588061280955,0.633406212523549,9.83312631395443,-0.08241587583865126,0.087,0.9999999999962573,1042.5234925978984,1.1971022739645274,241,2026-10-07 20:16:58.124243,25.0,0.11526390767706857,0.7116040519864718,0.3336617342366974
0515,cdot_cos,R,Q-R,242,48,42069,0.2632959650110637,0.5501988065654586,0.27725369445302916,0.9990242640718632,859.0,8.584378595448008,0.634557706556358,9.871418966624207,-0.2707281439995817,0.029,0.9999999999962442,-163.53733740291534,1.2020693867238619,242,2026-10-07 20:16:58.153243,25.0,0.49878656888224143,1.9793821073863744,3.268639109208738
0515,cdot_cos,S,R-S,243,48,42122,0.12376625244131391,0.5899156779933421,-0.13952971256974983,0.02964861590671393,859.0,8.604392223509365,0.6345918566801619,9.8923257576801,-0.05754238248389612,0.053,0.9999999999961576,6242.605817177193,1.2070365493904072,243,2026-10-07 20:16:58.206244,25.0,0.024603965070894882,0.35566148286844734,0.37761562379917574
0515,cdot_cos,T,S-T,244,48,42351,-0.43067376769559457,-0.01934969883889893,-0.5544400201369085,9.555282968966118e-07,859.0,8.622078712632064,0.6345918577807451,9.912659475540613,-0.050963025913643246,0.229,0.9999999999960687,5978063.892794046,1.2120040714681302,244,2026-10-07 20:16:58.435244,25.0,0.8788855564738542,0.24691029318817218,0.07723357695501791
0515,cdot_cos,P,T-P,245,49,42812,0.013704256234983635,-3.027623720040006e-05,0.4443780239305782,0.9999850300480356,898.0,8.717477137789547,0.635742874458068,9.95096809308596,-0.2763203016891381,0.461,0.9999999999960563,-195.7897571907035,1.2169720742192756,245,2026-10-07 20:16:58.896243,25.0,0.44238913238433625,0.14713087100547034,0.20693801552599514
0515,cdot_cos,Q,P-Q,246,49,42907,-0.02239193725170245,-0.017322073533040445,-0.036096193486686086,0.2885565534134666,898.0,8.757733375699107,0.6360747249542759,9.97646110083056,-0.11746815831649607,0.095,0.9999999999959744,478.6858696547955,1.221939322294273,246,2026-10-07 20:16:58.991244,25.0,0.2586447969589229,0.7162342261740419,0.4237498727322095
0515,cdot_cos,R,Q-R,247,49,42939,0.31021098415762927,0.38732362238294693,0.33260292140933173,0.9997552608979207,898.0,8.853561640762615,0.6372234770822128,10.014772018169797,-0.2814231991304831,0.032,0.9999999999959597,-142.72447190886336,1.226906440008819,247,2026-10-07 20:16:59.023244,25.0,0.5584487185626521,1.7776290591807187,2.9946332832346267
0515,cdot_cos,S,R-S,248,49,42998,0.0028682147385683757,-0.053638135620954916,-0.3073427694190609,0.00046011713550336023,898.0,8.871501635486673,0.6372240054127919,10.035032659327431,-0.053025566476538104,0.059,0.999999999995866,432300.6119741941,1.2318736159072525,248,2026-10-07 20:16:59.082243,25.0,0.013469714189536321,0.3264659731311161,0.3040677071874227
0515,cdot_cos,T,S-T,249,49,43211,-0.13023648290874995,0.052876854531747335,-0.13310469764731833,0.03463580565243106,898.0,8.892084625592087,0.6372637751063371,10.055871810691416,-0.0609668471500879,0.213,0.9999999999957743,-199.6817165441665,1.236841118502622,249,2026-10-07 20:16:59.295244,25.0,0.877870911597983,0.26809325909361253,0.09663375636344487
0515,cdot_cos,P,T-P,250,50,43710,0.0023910347889561172,1.4150281602258635e-05,0.13262751769770606,0.9649630956727984,838.0,8.985709363860552,0.6383710129778476,10.093551343904972,-0.27873080217173135,0.499,0.9999999999957584,-196.67314551350825,1.241809235546312,250,2026-10-07 20:16:59.794244,25.0,0.4578243017621489,0.12999178111408344,0.18762472598890817
0515,cdot_cos,Q,P-Q,251,50,43803,-0.04579722961943958,-0.030562069424477072,-0.048188264408395694,0.2306389951053203,838.0,9.021816423143942,0.6386354405750295,10.117908444697212,-0.10824028948097668,0.093,0.9999999999956654,644.7530987979933,1.2467764827444814,251,2026-10-07 20:16:59.887244,25.0,0.20698449563811966,0.7144889176352002,0.3882479492837644
0515,cdot_cos,R,Q-R,252,50,43836,0.29111778230627516,0.4060270591909467,0.3369150119257147,0.999780266488191,838.0,9.1186043025407,0.6397807158369258,10.15622435042362,-0.29188409270193827,0.033,0.9999999999956504,-160.34905260845608,1.2517436011628607,252,2026-10-07 20:16:59.920243,25.0,0.5330357000617243,1.7418356449101366,2.9329660423259742
0515,cdot_cos,S,R-S,253,50,43895,0.023799712186286327,-0.11587321640153814,-0.2673180701199888,0.0012505109558657384,838.0,9.136777575708011,0.639782147338279,10.176378388024334,-0.05515259694680568,0.059,0.9999999999955494,165372.87598122098,1.2567107776907231,253,2026-10-07 20:16:59.979244,25.0,0.013673439228914043,0.3471708941809602,0.30802157910698097
0515,cdot_cos,T,S-T,254,50,44109,-0.08622677512386688,0.01609615080052988,-0.11002648731015321,0.0600492634710288,838.0,9.159570468054053,0.639850884795092,10.197565498159666,-0.0693217282519917,0.214,0.9999999999954546,-206.13406375696354,1.2616782951918004,254,2026-10-07 20:17:00.193243,25.0,0.815138955388467,0.27483072907558914,0.10650884273851134
0515,cdot_cos,P,T-P,255,51,44548,0.050803134867534135,0.005777074874457524,0.13702990999140102,0.968499597684785,898.0,9.254405127752364,0.6409587175054132,10.235310693187353,-0.2898898974890549,0.439,0.9999999999954376,-199.09880542623478,1.2666463146343008,255,2026-10-07 20:17:00.632244,25.0,0.46726030969259447,0.14361613934175319,0.21602428177291738
0515,cdot_cos,Q,P-Q,256,51,44639,-0.013999162452949373,-0.010440082922806463,-0.06480229732048351,0.16519694962865672,898.0,9.285665438396112,0.6411475308779826,10.25838205351568,-0.09618842784783539,0.091,0.9999999999953355,1025.8885109954244,1.2716135611116863,256,2026-10-07 20:17:00.723244,25.0,0.13348435055941063,0.7087729256110693,0.3435198971840502
0515,cdot_cos,R,Q-R,257,51,44672,0.33881298519912123,0.41042605338575344,0.3528121476520706,0.9998523183159483,898.0,9.383401800213578,0.6422893862022598,10.296703821858662,-0.30240245385272063,0.033,0.99999999999532,-180.59558126193642,1.2765806785962701,257,2026-10-07 20:17:00.756243,25.0,0.5056456478691123,2.361609840220602,2.961707933862607
0515,cdot_cos,S,R-S,258,51,44731,0.33881298519912123,0.41042605338575344,0.0,0.5,898.0,9.441531687850672,0.6428597939834939,10.32587894072407,-0.18123079098591524,0.059,0.9999999999952618,212.429891129205,1.2815478567844496,258,2026-10-07 20:17:00.815244,25.0,0.5124233338990417,0.6475413733690119,0.9852523328320967
0515,cdot_cos,T,S-T,259,51,44947,-0.37935943940888983,0.03959229481559451,-0.718172424608011,1.5941969228756366e-08,898.0,9.459811682271122,0.6428597940016743,10.345871014668788,-0.057222691793770146,0.216,0.9999999999951574,6820997707.691636,1.2865153955022093,259,2026-10-07 20:17:01.031244,25.0,0.11450760408416791,0.26993970626154606,0.08462960379837822
0515,cdot_cos,P,T-P,260,52,45446,0.008680342852146711,-0.000250462058925342,0.3880397822610365,0.9999387811725219,779.0,9.55814564095566,0.6439993246621751,10.384199194378564,-0.3092769536897096,0.499,0.9999999999951427,-221.19129448008889,1.291483591346472,260,2026-10-07 20:17:01.530244,25.0,0.4426485664155852,0.1360882733191164,0.19706204145198036
0515,cdot_cos,Q,P-Q,261,52,45537,-0.037822623786535524,-0.028439295653564303,-0.04650296663868224,0.2381998604850565,779.0,9.5956277790436,0.644270537494074,10.40853212860037,-0.11868913220339486,0.091,0.999999999995041,702.7242042786438,1.29645084244628,261,2026-10-07 20:17:01.621243,25.0,0.20073429752015887,0.7485224443412518,0.41189162733999984
0515,cdot_cos,R,Q-R,262,52,45569,0.3017229003919424,0.4695757351783987,0.3395455241784779,0.9997942490038014,779.0,9.694376725825768,0.6454078854185035,10.446862430982392,-0.3144648019537482,0.032,0.9999999999950234,-172.13349191151607,1.301417956673941,262,2026-10-07 20:17:01.653243,25.0,0.5365648590885294,1.8330650410182947,3.085904586942745
0515,cdot_cos,S,R-S,263,52,45616,0.027232129449973875,-0.09126966501293533,-0.2744907709419685,0.0010454422653466044,779.0,9.71294394166877,0.6454090738375438,10.466799454534714,-0.05948666098249732,0.047,0.9999999999949124,214552.38626058138,1.306385107497516,263,2026-10-07 20:17:01.700243,25.0,0.013755619688860774,0.40915135983262474,0.39504714559580906
0515,cdot_cos,T,S-T,264,52,45846,-0.13295877895089736,-0.0025746194908001707,-0.16019090840087125,0.0179021046321116,779.0,9.732836953650034,0.6454294239912999,10.487010093424686,-0.06385896439257699,0.23,0.9999999999948043,-214.85358108237838,1.311352692828978,264,2026-10-07 20:17:01.930244,25.0,0.9338232273841385,0.2531186641939366,0.08649135644027695
0515,cdot_cos,P,T-P,265,53,46225,0.0011230792694536535,-2.9454382333043257e-06,0.134081858220351,0.9661717857656159,999.0,9.829378527197981,0.646526934035513,10.524719609273705,-0.3113287649710963,0.379,0.9999999999947843,-225.48294831866576,1.3163206376858425,265,2026-10-07 20:17:02.309243,25.0,0.451634279169347,0.19778324035970696,0.2547271069866679
0515,cdot_cos,Q,P-Q,266,53,46463,-0.010127761326357423,-0.05264570214522598,-0.011250840595811076,0.43014219740951654,999.0,9.882756649842692,0.6470150527134259,10.552520533053853,-0.1733450846983919,0.238,0.999999999994702,282.6846963994553,1.3212882484773818,266,2026-10-07 20:17:02.547244,25.0,0.4511272955151002,0.19569039912867456,0.2242778262382805
0515,cdot_cos,R,Q-R,267,53,46494,-0.051693068736833284,0.41011778711193037,-0.04156530741047586,0.26131737754393985,999.0,9.92252715718323,0.6473114419775851,10.577180937662371,-0.12971522231012325,0.031,0.9999999999946024,147.20459768351566,1.3262553581658012,267,2026-10-07 20:17:02.578244,25.0,0.714372219924508,2.211268853309929,1.2829195916302687
0515,cdot_cos,S,R-S,268,53,46553,0.0854982799540854,-0.07960686783087945,0.1371913486909187,0.9686224949463459,999.0,10.019855318747908,0.6484090750951704,10.61493884806267,-0.31918770339386227,0.059,0.9999999999945841,-172.61913662057674,1.3312225377582187,268,2026-10-07 20:17:02.637243,25.0,0.5523306906872704,0.993819221808284,1.6496298570284285
0515,cdot_cos,T,S-T,269,53,46765,-0.08044891543634244,-0.020776322933602338,-0.16594719539042785,0.015539939384248136,999.0,10.039797825356608,0.6484266720541292,10.635013045868693,-0.06578463103423317,0.212,0.9999999999944688,14400.39003066283,1.3361900961957558,269,2026-10-07 20:17:02.849244,25.0,0.021237002034688406,0.2729146676702623,0.09406842739952938
0515,cdot_cos,P,T-P,270,54,47224,0.03328824281419246,0.003205642426969624,0.1137371582505349,0.9449780215630686,858.0,10.135571137840099,0.6494959774846927,10.672333209201314,-0.31730674391897357,0.459,0.9999999999944444,-235.22008370629453,1.3411582719558637,270,2026-10-07 20:17:03.308243,25.0,0.45263097106563427,0.14444425623865173,0.20865645421239862
0515,cdot_cos,Q,P-Q,271,54,47311,-0.01710791940150978,-0.012606764031696176,-0.05039616221570224,0.22099040899221944,858.0,10.17239765258369,0.64974582677884,10.696192467791946,-0.1227716294238251,0.087,0.9999999999943308,778.6098222093433,1.3461255207217129,271,2026-10-07 20:17:03.395243,25.0,0.20504450109170885,0.7901594477995507,0.4232932729148429
0515,cdot_cos,R,Q-R,272,54,47343,0.3418529201635005,0.41033827550128904,0.3589608395650103,0.9998733581632749,858.0,10.27305888175722,0.6508752444681506,10.734535860022978,-0.3373504031813792,0.032,0.9999999999943101,-189.9906259556887,1.351092632353523,272,2026-10-07 20:17:03.427244,25.0,0.5293682854368866,1.8678731334297316,3.1456634116728277
0515,cdot_cos,S,R-S,273,54,47393,-0.0003892621914941462,-0.0011545363545858202,-0.34224218235499465,0.00019233980794811564,858.0,10.291941533123193,0.6508754615652638,10.754253921769479,-0.06365236039642759,0.05,0.9999999999941871,1260717.099281765,1.356059790894602,273,2026-10-07 20:17:03.477243,25.0,0.013570074054881366,0.3772051734681625,0.3776530273194467
0515,cdot_cos,T,S-T,274,54,47622,-0.38628040211400133,-0.06841813427412008,-0.3858911399225072,6.459696710503878e-05,858.0,10.310779399104037,0.6508755344769118,10.773933577417534,-0.0636178601346498,0.229,0.9999999999940644,473.1790145926572,1.361027405868127,274,2026-10-07 20:17:03.706244,25.0,0.9994578423642463,0.2620193497836259,0.082261423497135
0515,cdot_cos,P,T-P,275,55,48082,0.013615728128480418,0.00021751160291589552,0.3998961302424818,0.9999544840968365,936.0,10.411946395324094,0.6520033518325713,10.812279253217463,-0.3431266107577383,0.46,0.9999999999940451,-247.83157416446141,1.3659956174808114,275,2026-10-07 20:17:04.166244,25.0,0.4428192402690728,0.15618840272304438,0.2199282526522973
0515,cdot_cos,Q,P-Q,276,55,48179,-0.02296164024619952,-0.017225581937836437,-0.03657736837467994,0.28609331853894426,936.0,10.454472729609238,0.652325714889734,10.837276537289352,-0.14517336527054805,0.097,0.9999999999939335,614.0692647274229,1.3709628954830257,276,2026-10-07 20:17:04.263244,25.0,0.2557475412683423,0.7427617923184635,0.4384158173726193
0515,cdot_cos,R,Q-R,277,55,48211,0.3046143318130733,0.3622217479082907,0.3275759720592728,0.9997224964531839,936.0,10.556042183033876,0.6534510809031664,10.875621437997463,-0.34859501984737173,0.032,0.9999999999939115,-180.76043895833024,1.3759300058109838,277,2026-10-07 20:17:04.295244,25.0,0.5579158025138871,1.8851314359275562,3.174045419519933
0515,cdot_cos,S,R-S,278,55,48270,0.0011755143492226938,-0.06483211628389005,-0.3034388174638506,0.0005072645833308848,936.0,10.575121141508601,0.6534516514857844,10.895244325544647,-0.06585669076472056,0.059,0.9999999999937828,495525.6612139256,1.3808971882848748,278,2026-10-07 20:17:04.354244,25.0,0.013660645048594926,0.36128090165569793,0.3233721775377244
0515,cdot_cos,T,S-T,279,55,48482,-0.11270982090129532,0.058279221291776685,-0.11388533525051801,0.05482968568073296,936.0,10.598673329429248,0.6535133225484581,10.915852644446666,-0.08145453878433796,0.212,0.99999999999366,-252.92004618378417,1.3858647740935062,279,2026-10-07 20:17:04.566243,25.0,0.8257266822139653,0.2892616061792062,0.11109522604078594
0515,cdot_cos,P,T-P,280,56,49018,0.018681194765263948,-0.00266362626918075,0.13139101566655925,0.9639028080728252,898.0,10.697768062528585,0.6545966527456697,10.953525546671088,-0.3441927030195634,0.536,0.9999999999936359,-242.52823830765917,1.3908332233175213,280,2026-10-07 20:17:05.102243,25.0,0.4661041744246178,0.13056915296139557,0.18487823339428508
0515,cdot_cos,Q,P-Q,281,56,49103,-0.022820306599838313,-0.014715945052521828,-0.041501501365102264,0.2616254077461636,898.0,10.738643461403864,0.6548904173534316,10.977993529384882,-0.14285114451360265,0.085,0.9999999999935124,685.3839883570007,1.3958004727912128,281,2026-10-07 20:17:05.187244,25.0,0.24427757688256133,0.8433584221937471,0.4808870455915205
0515,cdot_cos,R,Q-R,282,56,49132,0.34562910281027653,0.3619061014454239,0.36844940941011484,0.9999000994274221,898.0,10.841138994301522,0.6560120585194407,11.0163455889428,-0.3600399696412855,0.029,0.9999999999934887,-193.63485552198463,1.4007675731577596,282,2026-10-07 20:17:05.216243,25.0,0.5470389258034526,2.0985170528085093,3.534328720608889
0515,cdot_cos,S,R-S,283,56,49189,-0.0028732174720895627,-0.034688543114979556,-0.3485023202823661,0.00016447984789918517,898.0,10.860357450466758,0.6560122428826314,11.035863897644147,-0.06789028821393192,0.057,0.9999999999933519,1584642.1419376717,1.4057347506941738,283,2026-10-07 20:17:05.273243,25.0,0.013524373673255659,0.35572849203995516,0.33716589763571514
0515,cdot_cos,T,S-T,284,56,49400,-0.1480509365489916,0.0798078314617721,-0.14517771907690202,0.025845259148192495,898.0,10.881692042394077,0.6560412118928817,11.055832924181829,-0.0755034485018196,0.211,0.9999999999932188,-262.8036036478449,1.4107023472795843,284,2026-10-07 20:17:05.484244,25.0,0.9040849474808637,0.2909045421765661,0.10111181008208116
0515,cdot_cos,P,T-P,285,57,49916,0.010293350390529072,-0.0005664746011090767,0.15834428693952066,0.9812679053725484,839.0,10.983119167265269,0.657140219303415,11.093834061857764,-0.3604276478578085,0.516,0.9999999999931947,-259.25594006478036,1.4156707828227686,285,2026-10-07 20:17:06.000243,25.0,0.45361019745822156,0.1403093368756974,0.19656419548680573
0515,cdot_cos,Q,P-Q,286,57,50003,-0.026091206060791995,-0.01850681742768939,-0.03638455645132107,0.2870788494379336,839.0,11.026491278049797,0.657461426262158,11.118713136845214,-0.1550767140298111,0.087,0.9999999999930689,639.310351904115,1.4206380407595145,286,2026-10-07 20:17:06.087244,25.0,0.26601851845712343,0.8435078310489277,0.49853000901756284
0515,cdot_cos,R,Q-R,287,57,50031,0.3308785497060512,0.3907060218358784,0.3569697557668432,0.999866895630899,839.0,11.129889529867782,0.6585790306462516,11.157067961311997,-0.3715811872540751,0.028,0.9999999999930435,-193.721925491422,1.425605136457889,287,2026-10-07 20:17:06.115244,25.0,0.5584125508340106,2.192768990227594,3.6927947077851946
0515,cdot_cos,S,R-S,288,57,50088,0.003987052825013616,-0.07299839574764734,-0.3268914968810376,0.00028229166356795617,839.0,11.149286341502542,0.6585793459307228,11.176493771096931,-0.07009255780155509,0.057,0.9999999999928998,956243.1930363749,1.4305723145745615,288,2026-10-07 20:17:06.172243,25.0,0.013551025965277148,0.3441516914307977,0.34029494096069846
0515,cdot_cos,T,S-T,289,57,50299,-0.20121029408866892,-0.02354869829696338,-0.20519734691368252,0.0058821485195065205,839.0,11.169122822690893,0.658585915522812,11.195992310096472,-0.07180691297388177,0.211,0.9999999999927567,-260.9530620841776,1.4355399250568182,289,2026-10-07 20:17:06.383244,25.0,0.9764082273175205,0.2923368834003597,0.09401175918649825
0515,cdot_cos,P,T-P,290,58,50755,0.016261233010245936,-0.001462447863750062,0.21747152709891485,0.9956654269904703,941.0,11.272652506297494,0.6596970649423208,11.234268382499119,-0.37624950421208847,0.456,0.9999999999927331,-273.9888856466994,1.4405082314122784,290,2026-10-07 20:17:06.839243,25.0,0.4452359955193497,0.16131152050650557,0.22703877983903648
0515,cdot_cos,Q,P-Q,291,58,50841,-0.020498259647621222,-0.012624373004003993,-0.036759492657867154,0.285164280480199,941.0,11.316238929392826,0.6600149818358749,11.259045435790467,-0.15936890725777073,0.086,0.9999999999926041,682.1927407812184,1.4454754902329463,291,2026-10-07 20:17:06.925244,25.0,0.25643720565973405,0.8597806479658257,0.5068188732015402
0515,cdot_cos,R,Q-R,292,58,50870,0.3404709971245836,0.3338131252063033,0.3609692567722048,0.9998795591584888,941.0,11.420534777747616,0.6611285630612443,11.297403223380648,-0.38323070187310704,0.029,0.999999999992579,-201.0287076643846,1.4504425874137648,292,2026-10-07 20:17:06.954243,25.0,0.5575831239153098,2.135336807832197,3.5964085639582604
0515,cdot_cos,S,R-S,293,58,50927,-0.005600990184157622,-0.028378655989192897,-0.3460719873087412,0.00017478140495114154,941.0,11.440088464247093,0.6611287575625785,11.316734849052919,-0.07224071235953337,0.057,0.9999999999924296,1598909.2870390997,1.4554097666763974,293,2026-10-07 20:17:07.011244,25.0,0.013502058721855068,0.3683438568100527,0.34304713156978706
0515,cdot_cos,T,S-T,294,58,51137,-0.13896273348450408,0.09656728982367578,-0.13336174330034645,0.03442158149405572,941.0,11.462525977423962,0.6611670617410821,11.336687048450944,-0.08304261144514608,0.21,0.9999999999922845,-282.0031523349434,1.4603773890293044,294,2026-10-07 20:17:07.221244,25.0,0.8780281868900709,0.29817773843045225,0.10684530084222929
0515,cdot_cos,P,T-P,295,59,51696,0.01030112546356097,-0.0006447584703263199,0.14926385894806504,0.9766058345333645,958.0,11.565323114387883,0.6622529432203177,11.37460177733039,-0.3819384641019127,0.559,0.9999999999922586,-275.25642381079274,1.465346032196086,295,2026-10-07 20:17:07.780244,25.0,0.45722670438055907,0.1326572015130018,0.18389469939878672
0515,cdot_cos,Q,P-Q,296,59,51783,-0.022958738637990424,-0.01392402105798319,-0.03325986410155139,0.3033287144641838,958.0,11.610836728715498,0.6625898651593402,11.399662426552938,-0.1701098720664725,0.087,0.9999999999921217,628.7171225775197,1.4703132966770625,296,2026-10-07 20:17:07.867244,25.0,0.2878701607422673,0.8661057832500321,0.5231449922714282
0515,cdot_cos,R,Q-R,297,59,51812,0.3382329373695243,0.3252300518395751,0.36119167600751473,0.9998802269289894,958.0,11.716025520673389,0.6636993106752836,11.43802227221736,-0.39506485082316883,0.029,0.999999999992094,-202.76343049202347,1.4752803915346226,297,2026-10-07 20:17:07.896243,25.0,0.5658576186723806,2.1536464494462515,3.6271997226859076
0515,cdot_cos,S,R-S,298,59,51865,-0.006470363213308196,-0.04718228634789008,-0.3447033005828325,0.0001808643246672433,958.0,11.73574822278338,0.6636995111956576,11.457265441780805,-0.07447073657374276,0.053,0.999999999991936,1598810.673943623,1.480247559065801,298,2026-10-07 20:17:07.949243,25.0,0.01350132186236273,0.40269989801513406,0.3721264549054958
0515,cdot_cos,T,S-T,299,59,52095,-0.13540775880452907,0.09637987947582925,-0.1289373955912209,0.03829328831059606,958.0,11.758711709862993,0.6637419648098495,11.477207057279355,-0.08685995640127168,0.23,0.9999999999917831,-291.82956653673716,1.4852152550410702,299,2026-10-07 20:17:08.179244,25.0,0.8670709915309847,0.2750468870106606,0.09984124817223014
0515,cdot_cos,P,T-P,300,60,52654,0.011637776613075844,-0.00013040621056312747,0.14704553541760493,0.9753047335406579,896.0,11.862269790808284,0.6648223375077109,11.515096750537689,-0.393193257592962,0.559,0.999999999991753,-283.54409714172596,1.4901839433913946,300,2026-10-07 20:17:08.738244,25.0,0.45882292338930436,0.13438417023330818,0.1852559587572289
0515,cdot_cos,Q,P-Q,301,60,52744,-0.019915987617753775,-0.014625201412216375,-0.03155376423082962,0.3124169161924169,896.0,11.908953212183832,0.6651680464333001,11.540271836792767,-0.17828557961212926,0.09,0.9999999999916095,621.6434175501389,1.4951512196909964,301,2026-10-07 20:17:08.828243,25.0,0.29956838231963845,0.848644164329018,0.5187046819505289
0515,cdot_cos,R,Q-R,302,60,52776,0.3301006788519009,0.3893356640998503,0.3500166664696547,0.9998416297710051,896.0,12.015025740387507,0.6662732417465658,11.578632140064784,-0.40702691692326387,0.032,0.9999999999915775,-206.96915247969756,1.5001183212075468,302,2026-10-07 20:17:08.860243,25.0,0.5700786978859601,1.9683037416637905,3.3147665063648635
0515,cdot_cos,S,R-S,303,60,52825,0.0009672901033823439,-0.04006738249635612,-0.32913338874851855,0.00026690929840169573,896.0,12.034924651650314,0.6662735365371069,11.597791315240048,-0.07675934357211413,0.049,0.9999999999914106,1120346.5760172738,1.5050854761014973,303,2026-10-07 20:17:08.909244,25.0,0.013532829100551763,0.4316919486620077,0.40610022985320327
0515,cdot_cos,T,S-T,304,60,53054,-0.13862898150667047,0.06059747706277143,-0.1395962716100528,0.02960078147218532,896.0,12.057331551356384,0.6663062285983341,11.617483839169825,-0.08658159830086805,0.229,0.9999999999912476,-300.4477038164796,1.5100531847304344,304,2026-10-07 20:17:09.138243,25.0,0.8927532417452115,0.27766588095288,0.09784672360729167
0515,cdot_cos,P,T-P,305,61,53550,0.015528132721382544,-0.0013636137470207203,0.154157114228053,0.9792436417008468,859.0,12.162095625126733,0.66738683427624,11.655448289012472,-0.40629052386082243,0.496,0.9999999999912149,-295.8608603459437,1.5150217236732817,305,2026-10-07 20:17:09.634243,25.0,0.4552551158730242,0.1496641719795588,0.2112178906660267
0515,cdot_cos,Q,P-Q,306,61,53636,-0.02352352125921577,-0.016004742608127186,-0.039051653980598316,0.2736282804603688,859.0,12.205798409960106,0.667688472050363,11.679817724498085,-0.17044730069819103,0.086,0.999999999991061,781.8756249888547,1.519988991088093,306,2026-10-07 20:17:09.720243,25.0,0.25065635399585373,0.8758837794322679,0.5081719166671289
0515,cdot_cos,R,Q-R,307,61,53665,0.33732791887571434,0.37807463542527364,0.3608514401349301,0.9998792039300766,859.0,12.312747635189083,0.6687895318841337,11.7181790075716,-0.4189953441303751,0.029,0.9999999999910286,-225.73527415035772,1.5249560815621193,307,2026-10-07 20:17:09.749243,25.0,0.5525562655725083,2.1897188770732217,3.6879043182405855
0515,cdot_cos,S,R-S,308,61,53722,-0.00288572280663023,-0.041013468374433294,-0.3402136416823446,0.00020234358166661308,859.0,12.332802104830353,0.6687897545170707,11.737252336149792,-0.07897463127399873,0.057,0.9999999999908542,1527270.4815231375,1.5299232617243244,308,2026-10-07 20:17:09.806243,25.0,0.013494916318917657,0.35384548172711805,0.35183280072403317
0515,cdot_cos,T,S-T,309,61,53933,-0.23257405960110097,-0.010474960710412056,-0.22968833679447073,0.0031974202608377154,859.0,12.353086020105975,0.6687932725383895,11.756352756359105,-0.08000849704585695,0.211,0.9999999999906793,-293.8770627479465,1.5348909293417452,309,2026-10-07 20:17:10.017244,25.0,0.9871611802711638,0.30239769536092875,0.09613229988446241
0515,cdot_cos,P,T-P,310,62,54409,0.037326207026269265,0.0021176298910077843,0.2699002666273702,0.998827573539626,901.0,12.460413932272665,0.6698913264687845,11.79469427526958,-0.4248203322015959,0.476,0.9999999999906497,-314.02085599903984,1.539859444621674,310,2026-10-07 20:17:10.493243,25.0,0.4441179517776122,0.15263665707856627,0.2254788070728789
0515,cdot_cos,Q,P-Q,311,62,54493,-0.0170613625286309,-0.010816908349524595,-0.054387569554900164,0.20429081375176011,901.0,12.49839611764477,0.6701156845731121,11.817660517622588,-0.15116772350193425,0.084,0.9999999999904801,1219.7135000750295,1.5448267090387633,311,2026-10-07 20:17:10.577244,25.0,0.1636118892973894,0.8678008013031778,0.45216887347743734
0515,cdot_cos,R,Q-R,312,62,54523,0.35952831669480756,0.3707072629233301,0.37658967922343844,0.9999184931498848,901.0,12.6062044668916,0.6712127054799925,11.85602202238834,-0.43084806991131597,0.03,0.9999999999904483,-254.9453202352553,1.5497938011204844,312,2026-10-07 20:17:10.607244,25.0,0.5224953775683215,2.1334174568013493,3.5936116415609716
0515,cdot_cos,S,R-S,313,62,54581,-0.0006096935112760677,-0.0015971954186218714,-0.3601380102060836,0.00012296961909454053,901.0,12.626401165052851,0.6712128402767705,11.875009198942378,-0.08112638456610816,0.058,0.9999999999902661,2594436.53138349,1.5547609853576527,313,2026-10-07 20:17:10.665244,25.0,0.013422465100085079,0.3485708477837935,0.3482189338146862
0515,cdot_cos,T,S-T,314,62,54791,-0.2790171350916195,0.0869725610711424,-0.2784074415803435,0.0009480204259410028,901.0,12.64663868523452,0.6712138794764011,11.893982191823032,-0.0814204911455504,0.21,0.9999999999900843,-283.0125904498656,1.5597286640123003,314,2026-10-07 20:17:10.875243,25.0,0.9963943224935244,0.30584361913661323,0.09636914372222974
0515,cdot_cos,P,T-P,315,63,55310,0.009175095647362401,-0.0006174858012978245,0.2881922307389819,0.9992575451513827,936.0,12.754855485090228,0.6723083109453907,11.932331262113536,-0.4368487296160715,0.519,0.9999999999900542,-324.76061639443446,1.5646973576213605,315,2026-10-07 20:17:11.394243,25.0,0.4432512253863605,0.14914943110867904,0.20851021166803335
0515,cdot_cos,Q,P-Q,316,63,55395,-0.024987575759627234,-0.015263546269462323,-0.034162671406989635,0.2985804529761281,936.0,12.801455794725328,0.6726349670397574,11.957064646696086,-0.1891656561976019,0.085,0.9999999999898925,758.2380298111581,1.5696646282320303,316,2026-10-07 20:17:11.479244,25.0,0.26999689308055924,0.9133392703800947,0.5482389368835239
0515,cdot_cos,R,Q-R,317,63,55425,0.3381005930199032,0.3309305413148803,0.36308816877953043,0.9998857724965033,936.0,12.910123161054845,0.673727653481907,11.995423884839973,-0.44303260506542963,0.03,0.9999999999898582,-232.3328441491568,1.57463171840323,317,2026-10-07 20:17:11.509243,25.0,0.5638196121183109,2.150507961378434,3.6222455443172192
0515,cdot_cos,S,R-S,318,63,55482,-0.005711633148166762,-0.06304941223753659,-0.34381222616806995,0.0001849378733199598,936.0,12.930486272408034,0.6737278554101026,12.014332769494798,-0.08343647182337882,0.057,0.9999999999896684,1780811.897801843,1.579598899972355,318,2026-10-07 20:17:11.566243,25.0,0.013435974574196721,0.39846510178026634,0.3572475675998152
0515,cdot_cos,T,S-T,319,63,55709,-0.12063140333049159,0.0776090355576362,-0.11491977018232483,0.05350481393970136,936.0,12.955548182657795,0.6737862730275281,12.034251810319923,-0.10286042336607407,0.227,0.9999999999894866,-332.501604801939,1.5845666503822708,319,2026-10-07 20:17:11.793243,25.0,0.8279206598998956,0.28826820965915223,0.11040489096810968
0515,cdot_cos,P,T-P,320,64,56246,0.00912351098821907,-0.0004969193484508961,0.12975491431871067,0.962452317206869,901.0,13.06136003959329,0.6748361747678965,12.07188122739749,-0.4357463350493597,0.537,0.9999999999894493,-317.063872631069,1.5895354482557944,320,2026-10-07 20:17:12.330244,25.0,0.46582546181691753,0.14381746946391635,0.19704256412568755
0515,cdot_cos,Q,P-Q,321,64,56331,-0.021502176592787914,-0.013745244997190195,-0.030625687581006984,0.31742254119940977,901.0,13.110008144862041,0.6751820544779221,12.096927295957268,-0.2014172970091179,0.085,0.9999999999892818,677.4870894360041,1.5945027217324834,321,2026-10-07 20:17:12.415244,25.0,0.312421897808216,0.9304532596734706,0.5723306502206112
0515,cdot_cos,R,Q-R,322,64,56360,0.3488411452694136,0.3615096365198742,0.37034332186220154,0.9999047188279868,901.0,13.21953709373778,0.6762703515572431,12.135284048494555,-0.45542636681943155,0.029,0.9999999999892456,-233.40048837472784,1.5994698062405484,322,2026-10-07 20:17:12.444243,25.0,0.5725019992641539,2.242315433954214,3.7768603060599326
0515,cdot_cos,S,R-S,323,64,56418,-0.000835729454899438,-0.046689684195586105,-0.3496768747243131,0.00015972106594907567,901.0,13.240062440031386,0.6762705252459164,12.154116120789407,-0.08576715494349096,0.058,0.9999999999890464,2128286.2320214114,1.6044369915635732,323,2026-10-07 20:17:12.502244,25.0,0.013433115103938376,0.39923824220152226,0.3538852809242476
0515,cdot_cos,T,S-T,324,64,56629,-0.11135988596463214,0.05923690023346011,-0.1105241565097327,0.05935084254748332,901.0,13.265848729833156,0.6763350629564064,12.174077720740458,-0.10792780012735652,0.211,0.9999999999888576,-343.3751370413038,1.6094047032952865,324,2026-10-07 20:17:12.713243,25.0,0.8143798100232197,0.3119444128330143,0.12220990427379254
0515,cdot_cos,P,T-P,325,65,57147,0.009599277513907475,-0.0005150002675761294,0.12095916347853962,0.9536457410331834,919.0,13.371702982246918,0.677371129734065,12.2115288262324,-0.4445039050694841,0.518,0.9999999999888164,-324.8594706441312,1.61437348115934,325,2026-10-07 20:17:13.231244,25.0,0.46898010394364675,0.14878154803134597,0.20435183863660575
0515,cdot_cos,Q,P-Q,326,65,57236,-0.022576061679112667,-0.015189644274723137,-0.03217533919302014,0.30908863172551393,919.0,13.41998641359363,0.6777065591471784,12.236359214789212,-0.20381438354802708,0.089,0.9999999999886413,717.5563981924986,1.6193407718328985,326,2026-10-07 20:17:13.320243,25.0,0.3069946061112252,0.8913327752003322,0.542510464569805
0515,cdot_cos,R,Q-R,327,65,57266,0.32420694634342556,0.3476992419586871,0.34678300802253825,0.9998282974464241,919.0,13.530360216232577,0.6787903390886136,12.274710470600828,-0.46784025635134796,0.03,0.9999999999886033,-243.61575879847575,1.6243078578104346,327,2026-10-07 20:17:13.350244,25.0,0.5687294284798624,2.1845296670864363,3.6791267546315494
0515,cdot_cos,S,R-S,328,65,57317,-0.0027211301615116786,-0.05348359435924449,-0.3269280765049372,0.00028203370127376394,919.0,13.551058193618816,0.6787906445326741,12.293470296475949,-0.0881592506564403,0.051,0.9999999999883958,1243045.9609765424,1.6292750191078316,328,2026-10-07 20:17:13.401243,25.0,0.01347710340107681,0.4112216138947779,0.405842693847837
0515,cdot_cos,T,S-T,329,65,57547,-0.20257800390105377,0.017923848837121316,-0.19985687373954208,0.006716680748867821,919.0,13.572304820849844,0.6787979186899087,12.312328043839392,-0.090635195535777,0.23,0.9999999999881901,-340.3754963631014,1.6342428128501953,329,2026-10-07 20:17:13.631244,25.0,0.9730520559409613,0.28632178660649393,0.09237664013490286
0515,cdot_cos,P,T-P,330,66,58066,0.015524113696876223,-0.0005776511496083552,0.21810211759793,0.9957329353957552,979.0,13.682766215457804,0.6798753348555991,12.350598364305688,-0.4726603930721983,0.519,0.9999999999881535,-354.575334677294,1.6392116376976753,330,2026-10-07 20:17:14.150244,25.0,0.44563966793935306,0.15172434256298734,0.21283505704809164
0515,cdot_cos,Q,P-Q,331,66,58155,-0.02008017632835155,-0.012368684325311333,-0.035604290025227775,0.29108769516451555,979.0,13.729794688430225,0.6801899399812076,12.375022542776412,-0.2022908416636653,0.089,0.9999999999879678,859.3933455014354,1.6441789317452467,331,2026-10-07 20:17:14.239244,25.0,0.2627535486220494,0.8890165916128352,0.528409808678891
0515,cdot_cos,R,Q-R,332,66,58184,0.33070876964776336,0.3170189581170999,0.35078894597611493,0.9998446576246581,979.0,13.841011168764888,0.6812693141651848,12.413369022759982,-0.4802907154790268,0.029,0.9999999999879283,-257.5565340936825,1.6491460119638421,332,2026-10-07 20:17:14.268243,25.0,0.5605617686516873,2.2769930741784288,3.8350510460228744
0515,cdot_cos,S,R-S,333,66,58236,-0.005747725724830015,-0.033524557204140576,-0.33645649537259337,0.00022226622669232912,979.0,13.861860286732574,0.6812695538953195,12.432054119248622,-0.09046894920195589,0.052,0.9999999999877113,1626085.7930700793,1.6541131767230723,333,2026-10-07 20:17:14.320243,25.0,0.013448318119751144,0.4411354195635448,0.40094457630164454
0515,cdot_cos,T,S-T,334,66,58465,-0.12647915090150882,0.10082855592569745,-0.12073142517667881,0.046606592389840606,979.0,13.886889252399497,0.6813198203424949,12.451625548465751,-0.10877687894034085,0.229,0.9999999999875037,-364.2176992237124,1.6590809836607046,334,2026-10-07 20:17:14.549243,25.0,0.8450941988141472,0.2921752045879534,0.10929679330534123
0515,cdot_cos,P,T-P,335,67,59045,0.009996427691069143,-0.00032872380887879164,0.13647557859257797,0.9680740512748763,978.0,13.995676530433856,0.6823629585755662,12.489344887867084,-0.4742423027255289,0.58,0.9999999999874603,-350.35186344304304,1.6640500754244623,335,2026-10-07 20:17:15.129244,25.0,0.4627213858037711,0.13580730896356552,0.18756427247303364
0515,cdot_cos,Q,P-Q,336,67,59134,-0.022746482049014242,-0.014344398371907008,-0.032742909740083384,0.3060667107936701,978.0,14.044425730797233,0.6826923776518319,12.514011988606171,-0.2135973973349676,0.089,0.9999999999872654,791.2259008956784,1.669017372260209,336,2026-10-07 20:17:15.218244,25.0,0.295152663526684,0.9033773204048418,0.547743824307601
0515,cdot_cos,R,Q-R,337,67,59165,0.3201491844590912,0.317077881918159,0.34289566650810543,0.9998107763490729,978.0,14.156477693465918,0.6837671962282609,12.552351295181609,-0.4928791425548782,0.031,0.9999999999872219,-259.8408246234485,1.673984457002507,337,2026-10-07 20:17:15.249243,25.0,0.5674325901039875,2.146211378887486,3.6145794409253336
0515,cdot_cos,S,R-S,338,67,59214,-0.007558810981312164,-0.06877484035793544,-0.32770799544040335,0.0002765893857007721,978.0,14.177490836288257,0.6837674932971111,12.57096657759332,-0.09286625263462277,0.049,0.9999999999869937,1346532.5956259456,1.678951609908853,338,2026-10-07 20:17:15.298244,25.0,0.013468407211876374,0.5049370935587878,0.4288396494354855
0515,cdot_cos,T,S-T,339,67,59443,-0.10409549257090125,0.07726296044177891,-0.09653668158958909,0.0821552853656211,978.0,14.20596152863468,0.6838557249532178,12.591173471655353,-0.12602509236791432,0.229,0.9999999999867827,-375.8156788214991,1.683919433279407,339,2026-10-07 20:17:15.527244,25.0,0.7686550367932404,0.2971799810732148,0.12432616745162624
