record_id,input,event,transition,event_index,k,peak,value_cos,value_sin,value_return,x_input,rr,knowledge,decision,decision_norm,entropy,delta_t,cosine_similarity,delta_h_over_delta_d,frobenius_norm,matrix_size,timestamp,scale,P,zdot,zdot_back
0082,cdot_cos,Q,P-Q,1,0,1347,-0.05092211584026942,-0.04463715913576702,-0.09513061774993518,0.08484515091841899,786.0,0.000421437872755527,0.5001053594666295,0.5001053594666295,,,1.0,,0.004967141530112327,1,2026-10-07 23:01:17.431243,25.0,,,
0082,cdot_cos,R,Q-R,2,0,1380,0.06632945145201992,0.2271928564989381,0.11725156729228933,0.9493716756512702,786.0,0.007264958401014147,0.5012842725132911,0.7089230167926268,-9.486019911318806e-06,,1.0,,0.009934283060224654,2,2026-10-07 23:01:17.464243,25.0,,,
0082,cdot_cos,S,R-S,3,0,1419,0.09829871426542983,-0.11480829830531558,0.03196926281340991,0.6898100825800845,786.0,0.014832392252087838,0.5021408583318685,0.869733479187042,-3.015542340359795e-05,0.039,1.0,-0.024129985629001684,0.014901424598233402,3,2026-10-07 23:01:17.503244,25.0,0.5038739914341539,0.12891039386995332,0.19403676541214593
0082,cdot_cos,T,S-T,4,0,1670,-0.05855926822489627,-0.027326711075866886,-0.1568579824903261,0.019427451125381946,786.0,0.017319969122870506,0.5021649826094122,1.004329965220153,-1.4423338433743707e-05,0.251,1.0,0.652126677838967,0.019868566222806965,4,2026-10-07 23:01:17.754244,25.0,0.3359684189598245,0.030404075216816172,0.009910664823835331
0082,cdot_cos,P,T-P,5,1,2006,0.07549869705143174,0.006023001991705668,0.13405796527632802,0.9661522574838277,803.0,0.030095238010929556,0.5033646990990457,1.125557684679852,-0.00010923267932821072,0.336,1.0,-0.07902645476135216,0.02483570795281277,5,2026-10-07 23:01:18.090244,25.0,0.4198080645318061,0.025517934417498583,0.038021633595413835
0082,cdot_cos,Q,P-Q,6,1,2145,-0.0029584270011279077,-0.005334782875085107,-0.07845712405255964,0.12331257733759973,803.0,0.034468021051429557,0.50351781960035,1.2333617344713523,-5.09103905395869e-05,0.139,0.9999999999999999,0.38089144361344596,0.029802849587064553,6,2026-10-07 23:01:18.229243,25.0,0.31803713005198353,0.06435168686649023,0.03145887079496403
0082,cdot_cos,R,Q-R,7,1,2179,0.057263825622069796,0.27438932534077565,0.060222252623197706,0.8184017191141716,803.0,0.04798500695981384,0.5045340326545085,1.3348715784485397,-0.0002009718863674136,0.034,1.0,-0.14766735697180858,0.03476999111186898,7,2026-10-07 23:01:18.263244,25.0,0.4739378693380099,0.2873478731085418,0.3975584090701261
0082,cdot_cos,S,R-S,8,1,2218,2.8494476442356685e-06,-3.187554676936116e-05,-0.05726097617442556,0.19286127549328116,803.0,0.0540076764228104,0.504773504215415,1.427715071256351,-0.00011076511763651926,0.039,0.9999999999999998,0.37669094563634614,0.03973713267575705,8,2026-10-07 23:01:18.302243,25.0,0.44290636245848924,0.11957190583692935,0.1544274221281169
0082,cdot_cos,T,S-T,9,1,2483,-0.25125458299104775,-0.4150350309625596,-0.251257432438692,0.001867219643781574,803.0,0.05731161561509433,0.5047758226900344,1.5143274681628418,-6.632044156898642e-05,0.265,1.0,19.169791938039555,0.0447042747676584,9,2026-10-07 23:01:18.567244,25.0,0.5116315792332543,0.04171070152594796,0.012467695065222379
0082,cdot_cos,P,T-P,10,2,2809,0.07180126226633506,0.005198722543203248,0.3230558452573828,0.9996893074973017,810.0,0.07611434823156282,0.5060170770147909,1.6001664985277806,-0.0004523587251769702,0.326,1.0,-0.31100659704344336,0.04967141716048227,10,2026-10-07 23:01:18.893243,25.0,0.42596856985670045,0.03807987413811392,0.05767709391554751
0082,cdot_cos,Q,P-Q,11,2,2950,-0.0007315256194294373,-0.001411081733632866,-0.07253278788576449,0.14023738874943162,810.0,0.08213969355314461,0.5061911957975959,1.678846269026759,-0.00017193120695496733,0.141,0.9999999999999998,1.6105529438266797,0.05463855906686878,11,2026-10-07 23:01:19.034244,25.0,0.195724954274455,0.04088547664567645,0.04273294554313327
0082,cdot_cos,R,Q-R,12,2,2984,-0.08533914217147828,0.3308973657751011,-0.08460761655204885,0.10762913671510366,810.0,0.08764405264564358,0.5063248271487647,1.7539606519925421,-0.00016850699108087052,0.034,1.0,0.02562434521649352,0.05960570055009842,12,2026-10-07 23:01:19.068243,25.0,0.9798841654609275,0.15344845571697197,0.16189291448526372
0082,cdot_cos,S,R-S,13,2,3022,-0.18556906900146203,0.29896147613990265,-0.10022992682998375,0.07545619305535663,810.0,0.09257418854189871,0.506418512329787,1.8259179135426569,-0.0001602029896529317,0.038,0.9999999999999999,0.08863729927538386,0.06457284207455842,13,2026-10-07 23:01:19.106244,25.0,0.9494862334461985,0.11811864480460849,0.12974041832250335
0082,cdot_cos,T,S-T,14,2,3266,-0.3250042980337387,-0.3967577480897222,-0.13943522903227668,0.029716647740814103,810.0,0.09662106965079383,0.5064554079125453,1.8949826185994942,-0.0001380520458105656,0.244,1.0,0.6003684502684631,0.06953998452154167,14,2026-10-07 23:01:19.350244,25.0,0.8517573682291917,0.05466117357927706,0.016585578315143925
0082,cdot_cos,P,T-P,15,3,3619,0.06487629540140745,0.0035063089394921886,0.38988059343514614,0.9999415344755515,821.0,0.11924884124858591,0.5076968713560678,1.966301528427106,-0.0008806747094975397,0.353,0.9999999999999999,-0.5981832711721875,0.07450712772075253,15,2026-10-07 23:01:19.703244,25.0,0.43031281272664307,0.04123895885173625,0.06410133597108239
0082,cdot_cos,Q,P-Q,16,3,3756,-0.011283483695999671,-0.011566432775581023,-0.07615977909740712,0.12965704596750832,821.0,0.12573577460011962,0.5078578386238047,2.031431355601268,-0.0002865203840145799,0.137,0.9999999999999998,3.691149970029287,0.0794742698431104,16,2026-10-07 23:01:19.840243,25.0,0.1257210710799991,0.10183031578387226,0.047349878478348206
0082,cdot_cos,R,Q-R,17,3,3792,0.06023635673893145,0.25197804469227486,0.07151984043493112,0.8566814058190728,821.0,0.1471503477733669,0.5089213531618241,2.0983364954950923,-0.0010535063067369345,0.036,1.0,-0.7211804778435552,0.08444141133053,17,2026-10-07 23:01:19.876243,25.0,0.48285849534420244,0.40988408365410955,0.594849254812425
0082,cdot_cos,S,R-S,18,3,3834,6.522938078060692e-05,-0.0009117391221168224,-0.06017112735815084,0.18178831455950623,821.0,0.1552474286232155,0.5091470215325732,2.1601278705812392,-0.0004414141497227369,0.042,0.9999999999999999,2.712352444351623,0.08940855293686088,18,2026-10-07 23:01:19.918243,25.0,0.249908147181983,0.14803769094546154,0.1927876392821092
0082,cdot_cos,T,S-T,19,3,4082,-0.22188652482127696,-0.17212995838403167,-0.22195175420205757,0.0038770588189854247,821.0,0.15958551381278568,0.5091518343954238,2.219341394406476,-0.0002462165677477074,0.248,1.0,40.557478580783254,0.09437569644148115,19,2026-10-07 23:01:20.166244,25.0,0.4525811616267432,0.06184125773554346,0.017492278990202358
0082,cdot_cos,P,T-P,20,4,4440,0.05074931768251758,-0.0026860296723635103,0.2726358425037945,0.9989049898788288,784.0,0.18592069246004506,0.5103917855893217,2.2825414573670906,-0.0016401706519734507,0.358,0.9999999999999999,-1.124200767808967,0.09934284132253159,20,2026-10-07 23:01:20.524243,25.0,0.4274647000389069,0.0458885448942107,0.07356195152865747
0082,cdot_cos,Q,P-Q,21,4,4567,-0.044417077365283456,-0.04119907144767748,-0.09516639504780103,0.0847757271966214,784.0,0.19244171195704055,0.5104970129126243,2.3393912064258395,-0.0004447506282148453,0.127,0.9999999999999996,11.360357616639908,0.10430998385940259,21,2026-10-07 23:01:20.651244,25.0,0.06802749196392288,0.12970527199160495,0.051346610212562906
0082,cdot_cos,R,Q-R,22,4,4600,0.06550383302052844,0.2293517146242203,0.10992091038581189,0.9398015855382201,784.0,0.21886583154591271,0.5116634711394416,2.399914411771705,-0.0019589139941826915,0.033,0.9999999999999998,-1.2980862333144205,0.10927712530042677,22,2026-10-07 23:01:20.684243,25.0,0.4616442920166257,0.7313604602360217,0.80073089663249
0082,cdot_cos,S,R-S,23,4,4648,0.10142858555871716,-0.11318577932463714,0.03592475253818872,0.7105627648546067,784.0,0.24071150233261798,0.5125453202403356,2.458081006986149,-0.0018094019162510663,0.048,0.9999999999999992,0.16954383440436996,0.11424426709837066,23,2026-10-07 23:01:20.732243,25.0,0.9206911307708595,0.28843076654007344,0.4551181413896931
0082,cdot_cos,T,S-T,24,4,4901,-0.041364087472044744,-0.019309700739251277,-0.1427926730307619,0.027389690196737492,784.0,0.24655518513375976,0.5125793108871909,2.511115531982349,-0.0005131719750596562,0.253,0.9999999999999993,38.13490065989247,0.11921141253959155,24,2026-10-07 23:01:20.985244,25.0,0.07998491340829174,0.06352467683417651,0.023097560478821267
0082,cdot_cos,P,T-P,25,5,5224,0.029365902201866047,0.0032461251945693735,0.0707299896739108,0.8542398743164399,797.0,0.2728549888107113,0.5136393638758509,2.568196823899407,-0.0024616381800607306,0.323,0.9999999999999996,-1.8380837805704136,0.1241785595691429,25,2026-10-07 23:01:21.308243,25.0,0.4531498877042763,0.05170346201030195,0.08142354079551559
0082,cdot_cos,Q,P-Q,26,5,5365,-0.07598041176376495,-0.08023739751353538,-0.105346313965631,0.06700342145286513,797.0,0.2799556215924148,0.5137225054525997,2.6194810861113695,-0.0007073440893925091,0.141,0.9999999999999996,21.100082044006122,0.12914570320414445,26,2026-10-07 23:01:21.449243,25.0,0.08373366618009281,0.13071920589523997,0.05035909774257824
0082,cdot_cos,R,Q-R,27,5,5399,0.0389439334393043,0.19474407492550153,0.11492434520306925,0.946500977975108,797.0,0.30971780487316897,0.5148968932946927,2.675482746548645,-0.003162097190177633,0.034,0.9999999999999994,-2.0902405600608396,0.1341128446387282,27,2026-10-07 23:01:21.483244,25.0,0.46010277403463673,0.9048658703971013,0.8753583317868864
0082,cdot_cos,S,R-S,28,5,5452,0.2341146019852193,-0.19441078263651873,0.195170668545915,0.9924547763608034,797.0,0.3414865007794177,0.5161281222398282,2.731093319296765,-0.003726911664918775,0.053,0.9999999999999993,-0.4587404129611191,0.13907998675267405,28,2026-10-07 23:01:21.536243,25.0,0.8593746791175495,0.35737241167125205,0.5994093567216746
0082,cdot_cos,T,S-T,29,5,5685,-0.004596350101507597,-0.0026072024804875368,-0.2387109520867269,0.0025533974707561036,797.0,0.3475992805103217,0.5161312897117573,2.7794520647275682,-0.000758829674693725,0.233,0.999999999999999,937.0507637267257,0.144047134211393,29,2026-10-07 23:01:21.769243,25.0,0.020012580014824876,0.07181201154217032,0.026235106141218715
0082,cdot_cos,P,T-P,30,6,6021,0.04766413514873081,0.0033481059252096464,0.05226048525023841,0.786928923947099,804.0,0.3749508981580691,0.5171074066171237,2.832313922501791,-0.0035598104634296302,0.336,0.9999999999999991,-2.8695136549082707,0.1490142850931642,30,2026-10-07 23:01:22.105243,25.0,0.45528383200122446,0.05476134411741212,0.08140362395162917
0082,cdot_cos,Q,P-Q,31,6,6159,-0.03298210869591792,-0.0373093695024114,-0.08064624384464872,0.11751704408363171,804.0,0.38439890375722263,0.5172531652704135,2.879943753665542,-0.0012922577965165526,0.138,0.9999999999999988,15.556899132462345,0.15398142990890656,31,2026-10-07 23:01:22.243244,25.0,0.1729553865570817,0.14751870275947687,0.06846380868951842
0082,cdot_cos,R,Q-R,32,6,6194,0.052254695155751416,0.23608090377829233,0.08523680385166933,0.8938723245213888,804.0,0.4156660601196847,0.5183617544539012,2.932296908455453,-0.004505179485420025,0.035,0.9999999999999983,-2.8982076830260075,0.15894857135200932,32,2026-10-07 23:01:22.278244,25.0,0.4900921959042609,0.8142681572670117,0.8933473246417736
0082,cdot_cos,S,R-S,33,6,6250,0.08165842902279523,-0.09096075135177126,0.029403733867043813,0.6759219757872571,804.0,0.44139767476591346,0.5191999200638392,2.9825764821071084,-0.0039712191055434444,0.056,0.999999999999998,0.6370583254019264,0.16391571380868236,33,2026-10-07 23:01:22.334244,25.0,0.8741899900003804,0.29645907203839894,0.45949311868265624
0082,cdot_cos,T,S-T,34,6,6483,-0.05908123552212542,-0.027180664960181285,-0.14073966454492065,0.028790643072424887,804.0,0.4488694761879854,0.5192356190477447,3.02763793266559,-0.0011978073522649093,0.233,0.999999999999998,77.68881491464684,0.16888286371039085,34,2026-10-07 23:01:22.567244,25.0,0.09872597578348592,0.08779520896927745,0.032067817262111296
0082,cdot_cos,P,T-P,35,7,6825,0.0359586657902884,0.003262342620476051,0.09503990131241383,0.9149785879650897,813.0,0.48231024214559676,0.5203700433291354,3.07855071279015,-0.00560625509641745,0.342,0.9999999999999979,-3.8860661010784785,0.17385001880291898,35,2026-10-07 23:01:22.909244,25.0,0.4555068703877733,0.0637742258265297,0.09778001741991625
0082,cdot_cos,Q,P-Q,36,7,6968,-0.04684349745415976,-0.051134304475834655,-0.08280216324444817,0.11204165800493993,813.0,0.4924910466533317,0.5205089425195919,3.1230536806374207,-0.001786699201403823,0.143,0.9999999999999968,27.498762825472046,0.1788171652300917,36,2026-10-07 23:01:23.052243,25.0,0.11791724583962461,0.15548021345335775,0.07119443711702765
0082,cdot_cos,R,Q-R,37,7,7001,0.04567830037633978,0.21703092769849855,0.09252179783049955,0.9099516686684357,813.0,0.5267775831932571,0.521636899593295,3.1729934152277113,-0.006290465648706337,0.033,0.9999999999999968,-3.9928527000737315,0.18378430651080732,37,2026-10-07 23:01:23.085243,25.0,0.4887192428638186,0.9256420467987518,1.0389859557553138
0082,cdot_cos,S,R-S,38,7,7058,0.0694785857566051,-0.08938838890951999,0.023800285380265317,0.6445131883371621,813.0,0.5535834217420493,0.5224356918890923,3.220509922991318,-0.0052120376174741995,0.057,0.9999999999999967,1.350073150312019,0.18875144931512747,38,2026-10-07 23:01:23.142244,25.0,0.8130919938971481,0.3015562971831885,0.47027786927705717
0082,cdot_cos,T,S-T,39,7,7300,-0.1112309791956835,-0.050722707764266246,-0.1807095649522886,0.010795847929456783,813.0,0.5611550010721406,0.5224490710066984,3.2626934319946734,-0.0015190345308846525,0.242,0.9999999999999959,276.0274029528635,0.19371860274392116,39,2026-10-07 23:01:23.384243,25.0,0.08793551603439709,0.09467867265143709,0.03128751789293895
0082,cdot_cos,P,T-P,40,8,7638,0.07300109131330919,0.0015803840821700097,0.1842320705089927,0.990105199306745,794.0,0.5994078993053449,0.5236759527689543,3.3120175683827004,-0.007988085604618576,0.338,0.9999999999999956,-5.272758364130303,0.19868576244428884,40,2026-10-07 23:01:23.722244,25.0,0.4449303727891533,0.07300978160517976,0.11317425512782343
0082,cdot_cos,Q,P-Q,41,8,7771,-0.008653127317116557,-0.013340177921948826,-0.08165421863042574,0.11492878187352029,794.0,0.6105096134372421,0.5238183477216496,3.3540740019101025,-0.0024168166824016894,0.133,0.9999999999999946,39.12546629471026,0.2036529099624079,41,2026-10-07 23:01:23.855244,25.0,0.09973789734110021,0.17112694040273743,0.08347153482629473
0082,cdot_cos,R,Q-R,42,8,7808,0.05746759260999422,0.2629933121053558,0.06612071992711077,0.8392985244338454,794.0,0.644927665452473,0.524858106528099,3.4014693387443224,-0.007773043232680348,0.037,0.9999999999999937,-5.151412536306311,0.20862005141178067,42,2026-10-07 23:01:23.892244,25.0,0.5020391574973002,0.6530182462570335,0.9302176220332692
0082,cdot_cos,S,R-S,43,8,7848,0.0001350075100820504,-0.0013249760279647525,-0.05733258509991217,0.1925827521890073,794.0,0.6588329636602626,0.5250966561853405,3.4432890896783315,-0.00326112309672485,0.04,0.9999999999999936,18.913966123994584,0.2135871932676806,43,2026-10-07 23:01:23.932243,25.0,0.2506875495050492,0.27846695938772564,0.34763245519473795
0082,cdot_cos,T,S-T,44,8,8100,-0.14996387714178053,-0.06931812144022068,-0.15009888465186258,0.02292193775367308,794.0,0.6672050222034911,0.5251250485197942,3.48328555609034,-0.001996984811516759,0.252,0.9999999999999929,44.52392906501516,0.21855435030585013,44,2026-10-07 23:01:24.184243,25.0,0.5309839494799662,0.0968515337969569,0.03322245453662116
0082,cdot_cos,P,T-P,45,9,8432,0.024592462172737087,0.0011962912331095158,0.1745563393145176,0.9874314384351889,807.0,0.7076461366939288,0.5263479771039911,3.5308496258180453,-0.009998979935087589,0.332,0.9999999999999917,-6.543305330316015,0.2235215139511246,45,2026-10-07 23:01:24.516243,25.0,0.44920265472999804,0.07627947216860145,0.12181058581457152
0082,cdot_cos,Q,P-Q,46,9,8569,-0.07831910143554119,-0.07634756565184354,-0.10291156360827827,0.07091033303060233,807.0,0.7178545917234425,0.5264357871853286,3.570461290101378,-0.0026169551941953076,0.137,0.9999999999999905,84.06807770190015,0.22848866311918728,46,2026-10-07 23:01:24.653243,25.0,0.05955560228391499,0.18478566743375743,0.07451427028842057
0082,cdot_cos,R,Q-R,47,9,8603,0.04792792414642342,0.1995094843034301,0.1262470255819646,0.9591513707456621,807.0,0.7582774095707784,0.527623366025939,3.6172036272706145,-0.010727752613858844,0.034,0.9999999999999898,-6.8296917579761,0.23345580420966588,47,2026-10-07 23:01:24.687244,25.0,0.46951385882306856,1.1871742224814221,1.1889064072745859
0082,cdot_cos,S,R-S,48,9,8662,0.15661193511050997,-0.17049698255900533,0.10868401096408656,0.9380281828191118,807.0,0.7985824388521792,0.5287844888728159,3.663526475123728,-0.011278506308946893,0.059,0.9999999999999898,-0.4743285317047979,0.2384229478792078,48,2026-10-07 23:01:24.746243,25.0,0.9523409681308013,0.41424295650655635,0.6831360895152676
0082,cdot_cos,T,S-T,49,9,8899,-0.03315752483357822,-0.01633078433183265,-0.1897694599440882,0.00862663679943571,807.0,0.807158078438552,0.5287951657881199,3.701566233642166,-0.002475048098411614,0.237,0.9999999999999887,824.531988864637,0.2433901085075778,49,2026-10-07 23:01:24.983244,25.0,0.02852758717259659,0.10684242778360588,0.03618413327583487
0082,cdot_cos,P,T-P,50,10,9239,0.09881909851320098,0.020628972781507427,0.1319766233467792,0.9644087563684165,820.0,0.8492257496216084,0.5299886156008833,3.74758552406665,-0.01252070873441379,0.34,0.9999999999999881,-8.417329768347763,0.24835727984391057,50,2026-10-07 23:01:25.323244,25.0,0.44828609642348655,0.07835251751660897,0.123728444656048
0082,cdot_cos,Q,P-Q,51,10,9380,-5.420044477783365e-05,-0.00010173447714642328,-0.0988732989579788,0.07785657098480576,820.0,0.8604377903498461,0.5300849478462292,3.785563815264061,-0.0034443294768845504,0.141,0.999999999999986,94.21953391556406,0.253324431808577,51,2026-10-07 23:01:25.464243,25.0,0.07170707905375592,0.07096150938889888,0.07951801934920413
0082,cdot_cos,R,Q-R,52,10,9415,-0.17895572573556465,0.44471569654686915,-0.17890152529078682,0.011289392246367005,820.0,0.8692368952692778,0.5300989160703047,3.822597751351369,-0.002734707186119012,0.035,0.9999999999999838,50.802613627141874,0.25829157282200355,52,2026-10-07 23:01:25.499244,25.0,0.7714468623574537,0.2684839381645955,0.2514029976980485
0082,cdot_cos,S,R-S,53,10,9452,-0.29990754214254867,0.4114711744549681,-0.12095181640698402,0.04636237917534362,820.0,0.8792316660213678,0.5301562791685454,3.8595960770873132,-0.003140020943624681,0.037,0.9999999999999822,-7.065757776979735,0.2632587141385882,53,2026-10-07 23:01:25.536243,25.0,0.8789036912782136,0.26714332027666077,0.2701289392456753
0082,cdot_cos,T,S-T,54,10,9715,-0.4254073200569011,-0.5886651839465836,-0.1254997779143524,0.04158686947698699,820.0,0.8890055009697507,0.5302077329614019,3.8962153174990317,-0.003105288679618206,0.263,0.9999999999999805,0.6750185375704888,0.2682258789141904,54,2026-10-07 23:01:25.799244,25.0,0.988877443703531,0.104191744983273,0.03716287052617075
0082,cdot_cos,P,T-P,55,11,10059,0.08529931058559372,0.0073407038461454485,0.5107066306424948,0.9999971485092138,816.0,0.9340365238825694,0.5314447941047643,3.9413001981597255,-0.01474592290650782,0.344,0.9999999999999796,-9.409910164383284,0.27319305325414345,55,2026-10-07 23:01:26.143244,25.0,0.4541109420152562,0.08337227153361827,0.13090413637447293
0082,cdot_cos,Q,P-Q,56,11,10198,-0.0007239615536411607,-0.001318331897809238,-0.08602327213923487,0.10427686829760502,816.0,0.9463656237848801,0.5315737693481138,3.9779339790331276,-0.004164198292313541,0.139,0.9999999999999767,82.04461832660814,0.2781602056527383,56,2026-10-07 23:01:26.282243,25.0,0.07877817468443297,0.18563330002124842,0.08869856044827827
0082,cdot_cos,R,Q-R,57,11,10233,0.06075729446030255,0.29243756567112206,0.06148125601394371,0.8230327637245879,816.0,0.9856425812884765,0.5325915911491963,4.0209784791884955,-0.013626432631182132,0.035,0.9999999999999757,-9.296553020190288,0.28312734636374,57,2026-10-07 23:01:26.317244,25.0,0.49937253420846806,0.954280896479842,1.1221987858170395
0082,cdot_cos,S,R-S,58,11,10290,0.06075729446030255,0.29243756567112206,0.0,0.5,816.0,1.013165286538469,0.53320979540486,4.060804964815632,-0.009877034352184871,0.057,0.9999999999999741,6.064982964201352,0.2880944900931189,58,2026-10-07 23:01:26.374244,25.0,0.6841297416604455,0.3178242853233962,0.48285447807004495
0082,cdot_cos,T,S-T,59,11,10518,-0.26049305788902416,-0.23512394249303456,-0.3212503523493267,0.0003250329830257427,816.0,1.0218745498153436,0.5332101972454457,4.095665386953751,-0.0031821356135085096,0.228,0.999999999999972,16660.58376629909,0.29306165544100116,59,2026-10-07 23:01:26.602243,25.0,0.12197963943596081,0.12235964921273985,0.03819852314418685
0082,cdot_cos,P,T-P,60,12,10875,0.06176670285241006,0.003600067137703619,0.3222597607414342,0.9996830640974448,800.0,1.0689612865794784,0.5344459061353717,4.13980034944756,-0.01767001730557651,0.357,0.9999999999999711,-11.724348517826051,0.2980288383351344,60,2026-10-07 23:01:26.959244,25.0,0.4404698542491234,0.08480831523246123,0.1318956211880526
0082,cdot_cos,Q,P-Q,61,12,11014,-0.018521996292300072,-0.022064058330582337,-0.08028869914471012,0.11844721333080827,800.0,1.082427686891321,0.5345922911003469,4.175299452685701,-0.0051996159299384,0.139,0.9999999999999679,85.18908603591856,0.3029959930242445,61,2026-10-07 23:01:27.098243,25.0,0.09086946520646205,0.2001022086183102,0.09688057778303985
0082,cdot_cos,R,Q-R,62,12,11048,0.05151615291460459,0.2539727554965441,0.07003814920690465,0.8520730548418622,800.0,1.1245897005753687,0.5356451626814603,4.217674421421951,-0.016695475850137725,0.034,0.9999999999999667,-10.918577466059137,0.3079631335237437,62,2026-10-07 23:01:27.132244,25.0,0.5022981648426869,0.9263082506781218,1.240059226001403
0082,cdot_cos,S,R-S,63,12,11105,0.01746137072892744,-0.030540531831958845,-0.034054782185677146,0.2991456411244786,800.0,1.1454166479374333,0.5360147297740143,4.254485215884194,-0.008481607103997,0.057,0.999999999999965,22.225649717286434,0.3129302776889338,63,2026-10-07 23:01:27.189243,25.0,0.37967750299811553,0.26801527503884315,0.36538504143972955
0082,cdot_cos,T,S-T,64,12,11348,-0.14504952317624153,-0.07309225343071175,-0.16251089390516898,0.01691038504854099,800.0,1.1551434419297968,0.5360356198315002,4.288285155365336,-0.00401445072806127,0.243,0.9999999999999615,213.84126774005497,0.31789744947313886,64,2026-10-07 23:01:27.432243,25.0,0.3286476701724103,0.12050495575004108,0.04002795881631085
0082,cdot_cos,P,T-P,65,13,11675,0.06725408357724882,0.0022632391847249595,0.21230360675349036,0.9950705693735146,800.0,1.2039820564319532,0.5372646441484917,4.331566254837284,-0.020662357217088437,0.327,0.999999999999961,-13.545628234417917,0.32286463498784795,65,2026-10-07 23:01:27.759244,25.0,0.446769770964672,0.09631901507495182,0.1493535611686741
0082,cdot_cos,Q,P-Q,66,13,11809,-0.011646720786917395,-0.013494045540178662,-0.07890080436416622,0.122118459776465,800.0,1.2181360777888153,0.5374154433243848,4.365983940413504,-0.006147817712140219,0.134,0.9999999999999567,96.25078797006299,0.3278317911968897,66,2026-10-07 23:01:27.893243,25.0,0.09433287925477904,0.21768449417463726,0.10562702505120937
0082,cdot_cos,R,Q-R,67,13,11845,0.06117829676745792,0.2678838420616825,0.07282501755437532,0.8606411578177231,800.0,1.262321500870756,0.5384780188230911,4.407632793215203,-0.019647881573938975,0.036,0.9999999999999547,-12.70503966846202,0.33279893191231874,67,2026-10-07 23:01:27.929244,25.0,0.5030326373553944,0.8454944079542683,1.2273728633872427
0082,cdot_cos,S,R-S,68,13,11886,7.245816793470973e-05,-0.0008548261356432528,-0.061105838599523205,0.17833837031719346,800.0,1.2790116751615226,0.5386981577611669,4.4422190601146605,-0.0076032224816099,0.041,0.9999999999999525,54.71389658553119,0.3377660737895273,68,2026-10-07 23:01:27.970243,25.0,0.20512168975932835,0.3202946973520854,0.40707742172601413
0082,cdot_cos,T,S-T,69,13,12137,-0.21214685919062057,-0.2574798931182626,-0.2122193173585553,0.004939777680832362,800.0,1.288585666053627,0.5387042551544098,4.474813873476034,-0.004406505586273564,0.251,0.9999999999999492,524.2759927083324,0.3427332516426633,69,2026-10-07 23:01:28.221244,25.0,0.4841047583854546,0.12030667781641728,0.038143390008384154
0082,cdot_cos,P,T-P,70,14,12475,0.06351405523027359,0.0039599934620750555,0.27566091442089413,0.9989846670688156,817.0,1.339405627425364,0.5399371070879158,4.5174382177234325,-0.023931128211207887,0.338,0.9999999999999482,-15.836956648484435,0.34770044579148995,70,2026-10-07 23:01:28.559244,25.0,0.4422556358493484,0.0969319103044291,0.1503549153009972
0082,cdot_cos,Q,P-Q,71,14,12617,-0.014841233760059922,-0.017881136144025346,-0.07835528899033352,0.12358806740549842,817.0,1.354111637419421,0.5400895940794177,4.550876115096276,-0.007097382440884576,0.142,0.9999999999999433,110.3946350079887,0.3526676056527052,71,2026-10-07 23:01:28.701244,25.0,0.09331032341151853,0.21021920671588049,0.10356345066237341
0082,cdot_cos,R,Q-R,72,14,12651,0.05212381861820602,0.2530337906756162,0.06696505237826594,0.8421251902316395,817.0,1.3991078821326741,0.5411284343669429,4.591627341648633,-0.02218978790943783,0.034,0.9999999999999414,-14.528128769926033,0.35763474583960325,72,2026-10-07 23:01:28.735244,25.0,0.5065405210686152,0.9507547684144477,1.3234189621545007
0082,cdot_cos,S,R-S,73,14,12708,0.004908694351387998,-0.014076001465429885,-0.04721512426681802,0.2349842184613638,817.0,1.4187629616716035,0.5414182460144739,4.625879839453858,-0.009919507001764727,0.057,0.9999999999999384,42.33881216372736,0.362601890831008,73,2026-10-07 23:01:28.792243,25.0,0.29025804144951195,0.26208597035556547,0.3448259568233232
0082,cdot_cos,T,S-T,74,14,12932,-0.1695594311732293,-0.12737437807573077,-0.1744681255246173,0.012595960642164077,817.0,1.4289856827532086,0.541433780123992,4.6575898089310055,-0.005213869007125644,0.224,0.999999999999934,302.9229315744943,0.3675690686496937,74,2026-10-07 23:01:29.016243,25.0,0.4055450765554257,0.13986171390285007,0.04563714768573681
0082,cdot_cos,P,T-P,75,15,13292,0.04422646988532295,0.003765264630119098,0.21378590105855225,0.9952490458256301,801.0,1.4814210095000804,0.5426609251187917,4.699581811994253,-0.027320526041808464,0.36,0.9999999999999333,-18.014706598131998,0.3725362748476456,75,2026-10-07 23:01:29.376243,25.0,0.44523222694344833,0.09402776433509545,0.1456536854079772
0082,cdot_cos,Q,P-Q,76,15,13433,-0.03354016233539388,-0.03908883978719772,-0.07776663222071684,0.12519091240730326,801.0,1.4966856730744773,0.5428152495425951,4.732154017182796,-0.008137964763770213,0.141,0.9999999999999271,124.30022938222702,0.37750343707606454,76,2026-10-07 23:01:29.517244,25.0,0.09468787050739944,0.2234953609746122,0.10826002535033286
0082,cdot_cos,R,Q-R,77,15,13468,0.042712001012001274,0.22894585648292406,0.07625216334739515,0.8706033612278734,801.0,1.544446701294921,0.5438882244630527,4.772600195812655,-0.025991687152883643,0.035,0.9999999999999256,-16.639459179062857,0.38247057727087463,77,2026-10-07 23:01:29.552243,25.0,0.5031327386416876,1.2773319046137463,1.3646008062983914
0082,cdot_cos,S,R-S,78,15,13524,0.08080893430834485,-0.08452128984732009,0.038096933296343574,0.7216022685072435,801.0,1.5860989063974396,0.5447772548135089,4.811342836851946,-0.023326280393225506,0.056,0.9999999999999243,2.998105473328858,0.3874377226510543,78,2026-10-07 23:01:29.608243,25.0,0.8920204172212194,0.47294069138592176,0.7437893768306884
0082,cdot_cos,T,S-T,79,15,13752,-0.0629122275003282,-0.0315799468714269,-0.14372116180867306,0.026778065579778968,801.0,1.5974160587301443,0.5448102405411374,4.842379740224717,-0.006445050805986116,0.228,0.9999999999999193,511.7737518902895,0.3924049077451131,79,2026-10-07 23:01:29.836244,25.0,0.07285714334351405,0.13982997267452443,0.04963663303817848
0082,cdot_cos,P,T-P,80,16,14093,0.05802075993348602,0.003757204256981488,0.12093298743381423,0.9536168042879937,793.0,1.6498613739370227,0.5459846652832852,4.883435734823183,-0.03045240508143554,0.341,0.9999999999999182,-20.441798792100236,0.3973721204146564,80,2026-10-07 23:01:30.177243,25.0,0.4545912608456596,0.09841862364705327,0.15379857831929164
0082,cdot_cos,Q,P-Q,81,16,14236,-0.030609565909969265,-0.03735490798471595,-0.08863032584345529,0.09834430061303387,793.0,1.6645375600574346,0.546105752119931,4.9149522427274155,-0.008697490481181893,0.143,0.9999999999999112,179.6637454811907,0.40233928670457214,81,2026-10-07 23:01:30.320243,25.0,0.08197947288399114,0.22150530637558483,0.10263067217071248
0082,cdot_cos,R,Q-R,82,16,14269,0.04017536381500303,0.23468545874284033,0.0707849297249723,0.854410811411324,793.0,1.71321189156044,0.5471575179981524,4.954722547581095,-0.029385392561391485,0.033,0.999999999999909,-19.669683632629013,0.40730642639451775,82,2026-10-07 23:01:30.353244,25.0,0.4945930715160721,1.3479994929886738,1.4749797425153144
0082,cdot_cos,S,R-S,83,16,14309,0.06675450991363674,-0.07496383016878187,0.02657914609863371,0.6602657368357215,793.0,1.753505526594687,0.5479700065995124,4.992244841019672,-0.02495878659329423,0.04,0.9999999999999066,5.448206855686709,0.4122735683673955,83,2026-10-07 23:01:30.393243,25.0,0.8374810708233489,0.6468072281056114,1.0073408758561775
0082,cdot_cos,T,S-T,84,16,14554,-0.08852610099148502,-0.04939764000734054,-0.15528061090512174,0.020193085693415876,793.0,1.7649564698088889,0.5479948511516992,5.02245626757051,-0.007198773809409264,0.245,0.9999999999999012,714.8453572588929,0.41724076453153525,84,2026-10-07 23:01:30.638243,25.0,0.08483147836955993,0.1360244059461838,0.046738543731435975
0082,cdot_cos,P,T-P,85,17,14886,0.060845615839404274,0.0006482000313322867,0.1493717168308893,0.9766673608246131,787.0,1.8201574855083171,0.5491962054600716,5.063339364167671,-0.035343508530405646,0.332,0.9999999999998997,-23.427505545076347,0.42220798530302645,85,2026-10-07 23:01:30.970243,25.0,0.450985642914674,0.11057605567595426,0.16626811957659113
0082,cdot_cos,Q,P-Q,86,17,15022,-0.004359384260776405,-0.008268885450249935,-0.06520500010018068,0.16381323785310095,787.0,1.8383789707777225,0.5493976489382636,5.094904781475957,-0.011904631318373007,0.136,0.9999999999998921,116.35460935448069,0.4271751534745352,86,2026-10-07 23:01:31.106244,25.0,0.13961211858957123,0.2440788543147273,0.133981509333863
0082,cdot_cos,R,Q-R,87,17,15056,0.05354519103043422,0.25699282191403605,0.057904575291210625,0.8096310135543325,787.0,1.886546933881923,0.5503930247179453,5.133724972125013,-0.03202774896721142,0.034,0.9999999999998901,-20.21660367833533,0.43214229338792864,87,2026-10-07 23:01:31.140243,25.0,0.5334965949944468,1.017794686703942,1.4167047971823665
0082,cdot_cos,S,R-S,88,17,15115,0.002817071085230818,-0.009164645348298315,-0.0507281199452034,0.21956502427568028,787.0,1.9075890094735906,0.5506628929385924,5.1656764275884415,-0.014249646760082422,0.059,0.9999999999998844,65.87697567538264,0.4371094409859752,88,2026-10-07 23:01:31.199244,25.0,0.2871883385158919,0.27584212059667085,0.3566453490113152
0082,cdot_cos,T,S-T,89,17,15352,-0.16477370168975972,-0.22744124678621475,-0.16759077277499054,0.014923688642300195,787.0,1.9190963041123301,0.5506812346214547,5.1951169892782865,-0.007859507987139186,0.237,0.9999999999998775,348.3943551372739,0.44207664095403176,89,2026-10-07 23:01:31.436243,25.0,0.4435052458115686,0.14601701494402908,0.04855398581746651
0082,cdot_cos,P,T-P,90,18,15673,0.060272782988944805,0.005294257686198656,0.22504648467870453,0.9964105561979657,797.0,1.9768010745570603,0.5519055403426646,5.235836333995051,-0.04010495999335054,0.321,0.9999999999998754,-26.337745097152006,0.4470438673783557,90,2026-10-07 23:01:31.757244,25.0,0.4475233630656917,0.11604351000273587,0.17976564001473586
0082,cdot_cos,Q,P-Q,91,18,15816,-0.018183719376383474,-0.022375337058408627,-0.07845650236532828,0.12331425755953407,797.0,1.9935962375340865,0.5520570151239919,5.266288988757285,-0.011895135725813875,0.143,0.9999999999998663,186.2344610789605,0.45201104064360526,91,2026-10-07 23:01:31.900243,25.0,0.09333660927352251,0.23378836070197698,0.11744869214703646
0082,cdot_cos,R,Q-R,92,18,15850,0.04290943020699644,0.26080118892585114,0.06109314958337991,0.8216151406969243,797.0,2.0436645457178257,0.5530660095866287,5.304823537104307,-0.03604247496935438,0.034,0.9999999999998636,-23.93208301702302,0.4569781802842481,92,2026-10-07 23:01:31.934243,25.0,0.5117244646973689,1.131450313011242,1.472597299521741
0082,cdot_cos,S,R-S,93,18,15909,0.01452917732905905,-0.022971749231894996,-0.02838025287793739,0.32970793416912686,797.0,2.070534858818851,0.5534707890290713,5.3374797289901945,-0.01970820986791524,0.059,0.9999999999998581,40.35349473992374,0.46194532847799724,93,2026-10-07 23:01:31.993243,25.0,0.43657062746934044,0.32577189882463914,0.45542903561059794
0082,cdot_cos,T,S-T,94,18,16129,-0.1703786941791809,-0.10908273592607373,-0.18490787150823995,0.00973064509971477,797.0,2.082105629779133,0.5534827341795379,5.366214945181656,-0.008565910021011197,0.22,0.9999999999998507,932.7885720748279,0.4669125295000985,94,2026-10-07 23:01:32.213243,25.0,0.2723213545171475,0.16093781287733352,0.05259441345582791
0082,cdot_cos,P,T-P,95,19,16470,0.04561338834339811,0.0014624511611947128,0.215992082522579,0.9955028407752138,793.0,2.1413474964848778,0.5547044653350401,5.406591128495705,-0.044581117023985914,0.341,0.9999999999998482,-29.47883160773456,0.4718797721795748,95,2026-10-07 23:01:32.554244,25.0,0.445812023808708,0.11106652088502345,0.1737298143863478
0082,cdot_cos,Q,P-Q,96,19,16609,-0.03876863952653049,-0.04658808817328618,-0.0843820278699286,0.10817200378555872,793.0,2.157852997022719,0.5548371799147068,5.436272774309344,-0.012642861390774404,0.139,0.999999999999838,240.65370747830252,0.4768469475455302,96,2026-10-07 23:01:32.693243,25.0,0.07996319102990163,0.2547108823621083,0.11874460818590926
0082,cdot_cos,R,Q-R,97,19,16645,0.04127150763752633,0.22735352614957038,0.08004014716405683,0.8809024175759013,793.0,2.212157121781544,0.5559176528448999,5.475154787544224,-0.04226041573971365,0.036,0.999999999999835,-27.411657915063522,0.48181408766819894,97,2026-10-07 23:01:32.729243,25.0,0.4961711112715136,1.458611019446258,1.5084479099673538
0082,cdot_cos,S,R-S,98,19,16702,0.09674609112702785,-0.10161993860908991,0.055474583489501524,0.8000912205714462,793.0,2.2628729904228497,0.5568985487963427,5.513015242238281,-0.04039834915185951,0.057,0.9999999999998324,1.8983324226338494,0.4867812360603529,98,2026-10-07 23:01:32.786243,25.0,0.9549534906387073,0.5523836367649549,0.8897520814264182
0082,cdot_cos,T,S-T,99,19,16937,-0.07071746200627547,-0.041253698960134956,-0.16746355313330333,0.014970517159230354,793.0,2.2751288563727488,0.5569168981494823,5.541254059107897,-0.009899854132795963,0.235,0.9999999999998237,1662.1019164561958,0.49174845077567547,99,2026-10-07 23:01:33.021244,25.0,0.045927029659171364,0.15028768729394565,0.05215262106340011
0082,cdot_cos,P,T-P,100,20,17263,0.042696780317973644,0.0006891188198634794,0.11341424232424913,0.9445567637922825,805.0,2.333508203451004,0.5580743246587189,5.5807441865390075,-0.047864942966714105,0.326,0.9999999999998209,-32.80129540056932,0.49671570111249913,100,2026-10-07 23:01:33.347244,25.0,0.45240789350386307,0.11601457069445216,0.17907775177378965
0082,cdot_cos,Q,P-Q,101,20,17398,-0.03986172857371246,-0.040204686674957676,-0.0825585088916861,0.1126491107401289,805.0,2.3507703564655316,0.5582123190564798,5.609965392183988,-0.01438451521760653,0.135,0.9999999999998092,242.6216447359155,0.5016828794821374,101,2026-10-07 23:01:33.482244,25.0,0.09753611343853387,0.27784669064532413,0.12786780010761023
0082,cdot_cos,R,Q-R,102,20,17431,0.05777936571657338,0.22720084468664953,0.09764109429028583,0.9199028178404055,805.0,2.4085268099252417,0.5593388554967719,5.64904657761186,-0.04887284416276414,0.033,0.9999999999998058,-30.614481442089055,0.506650018506807,102,2026-10-07 23:01:33.515244,25.0,0.4937753186873868,1.4245185917438685,1.7501955593851557
0082,cdot_cos,S,R-S,103,20,17490,0.05548902473468923,-0.07938642416381841,-0.002290340981884152,0.4856892785040385,805.0,2.444788583520627,0.5599333973349421,5.682704380675634,-0.03128144942269334,0.059,0.9999999999997998,29.58815277695357,0.5116171686605542,103,2026-10-07 23:01:33.574244,25.0,0.5698633496841891,0.41474806097460826,0.6146063321251726
0082,cdot_cos,T,S-T,104,20,17724,-0.10785495004937559,-0.04401014879164498,-0.16334397478406482,0.01656760897549829,805.0,2.4574670811202455,0.5599536750497486,5.710430490126477,-0.011047367190879363,0.234,0.9999999999997902,997.8482499084769,0.5165843910037945,104,2026-10-07 23:01:33.808243,25.0,0.1601611055629262,0.15958212640007746,0.054181613673583706
0082,cdot_cos,P,T-P,105,21,18068,0.0642969049469772,0.0012530409329768225,0.1721518549963528,0.9866631310658521,812.0,2.519473018675863,0.5611609257745489,5.750189496120425,-0.05481922984074253,0.344,0.999999999999787,-36.25747473218781,0.5215516608436119,105,2026-10-07 23:01:34.152243,25.0,0.45001407238809227,0.11727799968562524,0.1802498184756328
0082,cdot_cos,Q,P-Q,106,21,18201,-0.011302441315972538,-0.01231056156189369,-0.07559934626294974,0.13124633291673438,812.0,2.5381543449039556,0.5613214605387653,5.779159356709034,-0.01678251725012893,0.133,0.999999999999774,236.9375429445286,0.5265188424117213,106,2026-10-07 23:01:34.285243,25.0,0.10367973607741156,0.2821861355393847,0.14046109945934201
0082,cdot_cos,R,Q-R,107,21,18239,0.06293985172824883,0.25533284520345034,0.07424229304422136,0.8648367350891456,812.0,2.5945345307293395,0.562378968493774,5.817294524798602,-0.051373981078009084,0.038,0.9999999999997694,-32.71035802997406,0.5314859833637043,107,2026-10-07 23:01:34.323244,25.0,0.5100091977415846,1.0177400938102938,1.483689100667996
0082,cdot_cos,S,R-S,108,21,18277,4.436306907636318e-05,-0.0007432767634739098,-0.06289548865917247,0.1718763413986789,812.0,2.615502592033538,0.5625890688251639,5.846598352199998,-0.019392086922017403,0.038,0.9999999999997589,152.22200719255105,0.536453124820012,108,2026-10-07 23:01:34.361243,25.0,0.19219900715826738,0.4377578197845596,0.5517910869525916
0082,cdot_cos,T,S-T,109,21,18525,-0.21817745277649353,-0.21058447684310713,-0.2182218158455699,0.00425436892950512,812.0,2.627804125032966,0.5625942690489103,5.8736578611073025,-0.011449560463272827,0.248,0.9999999999997475,1527.3432156170718,0.5414203605425588,109,2026-10-07 23:01:34.609244,25.0,0.4997251346760417,0.15395454297622765,0.049602955642855016
0082,cdot_cos,P,T-P,110,22,18880,0.050617347882251716,0.0013014079386370185,0.2687948006587452,0.9987947593037385,806.0,2.691864045349747,0.5638147382575763,5.913340183616244,-0.060453697483062084,0.355,0.999999999999744,-40.15188312153376,0.5463876466491246,110,2026-10-07 23:01:34.964243,25.0,0.4445885115562895,0.1172013411194228,0.18045047976557993
0082,cdot_cos,Q,P-Q,111,22,19013,-0.0244737063863757,-0.024686825974870305,-0.07509105426862742,0.1327020301714497,806.0,2.711017077227756,0.5639768346053597,5.94186607861457,-0.018356010811757147,0.133,0.9999999999997288,259.707804938049,0.5513548315299882,111,2026-10-07 23:01:35.097243,25.0,0.10092267744711436,0.2958642889288895,0.14400775848127306
0082,cdot_cos,R,Q-R,112,22,19047,0.06385503511452524,0.24568056035155145,0.08832874150090095,0.9009851143711857,806.0,2.7705639462048315,0.5650770302640336,5.980214634346698,-0.057866775853162265,0.034,0.9999999999997244,-35.912489501214694,0.5563219703030454,112,2026-10-07 23:01:35.131244,25.0,0.5052062940111861,1.2220760233050083,1.7513784993257435
0082,cdot_cos,S,R-S,113,22,19098,0.011426030449270427,-0.02375543273686276,-0.05242900466525481,0.21236553116833193,806.0,2.7941182468124968,0.5653362575480898,6.0096083149160755,-0.02323353870056627,0.051,0.9999999999997133,133.60182080633416,0.5612891178710262,113,2026-10-07 23:01:35.182244,25.0,0.2252246338132533,0.35951838184831647,0.4618490315228486
0082,cdot_cos,T,S-T,114,22,19344,-0.1567348973436596,-0.05935052984986708,-0.16816092779293004,0.014715585211913238,806.0,2.8072348211533598,0.5653542190336227,6.036332711291659,-0.013023089359804476,0.246,0.9999999999996996,568.4635228003806,0.566256360841642,114,2026-10-07 23:01:35.428244,25.0,0.45656387441408575,0.15916538220633022,0.053319407889686976
0082,cdot_cos,P,T-P,115,23,19686,0.04290585737656273,0.0036271142684378066,0.19964075472022236,0.9932471766993538,806.0,2.8724276148580112,0.5665661533740038,6.075746665451315,-0.06559037002104427,0.342,0.999999999999696,-43.37469358670706,0.5712236531493304,115,2026-10-07 23:01:35.770243,25.0,0.44867873964463334,0.12135536554173078,0.19062220381477038
0082,cdot_cos,Q,P-Q,116,23,19830,-0.044964019133755334,-0.04961328434771515,-0.08786987651031807,0.10004299802668028,806.0,2.8902418911839036,0.5666881793546237,6.103420139328891,-0.01818365238506193,0.144,0.9999999999996786,388.49692004259316,0.5761908472612283,116,2026-10-07 23:01:35.914243,25.0,0.0737476268926345,0.27354630856539497,0.12371025226314158
0082,cdot_cos,R,Q-R,117,23,19861,0.04444212019145442,0.2179486020093844,0.08940613932520976,0.9033621888032423,806.0,2.951208951724845,0.5677896741949277,6.141586053263426,-0.06304390769687823,0.031,0.9999999999996733,-40.726704901710164,0.5811579840487977,117,2026-10-07 23:01:35.945244,25.0,0.49087212817396847,2.0115623501611606,1.966679372288431
0082,cdot_cos,S,R-S,118,23,19919,0.16076918494083986,-0.13003182985544215,0.11632706474938544,0.9482491594065228,806.0,3.0149587568938956,0.5689451801307578,6.180328307212112,-0.06728554270681296,0.058,0.9999999999996705,-3.670803306507862,0.5861251360214045,118,2026-10-07 23:01:36.003244,25.0,0.9389065530384196,0.6663500963372709,1.0991345718801826
0082,cdot_cos,T,S-T,119,23,20141,-0.007335178317044226,-0.003481924980940691,-0.16810436325788408,0.014736102570302487,806.0,3.0285055628999684,0.5689631311828289,6.206656720806312,-0.014483247733771278,0.222,0.9999999999996556,2941.4596294291073,0.5910923777264522,119,2026-10-07 23:01:36.225244,25.0,0.026101835967618017,0.13521103927560774,0.061021648676003744
0082,cdot_cos,P,T-P,120,24,20492,0.012411508169024007,9.863474299408456e-05,0.019746686486068234,0.6209699407315971,812.0,3.0749924583322654,0.5697194117516332,6.240965262915943,-0.05017260333621604,0.351,0.9999999999996458,-47.19062881500653,0.5960596910544402,120,2026-10-07 23:01:36.576244,25.0,0.4909899852270902,0.08737850975374027,0.1324412975279117
0082,cdot_cos,Q,P-Q,121,24,20630,-0.11704301461792024,-0.11466575558872358,-0.12945452278694425,0.03782001493598708,812.0,3.089845276747094,0.5697654623536657,6.267422013697694,-0.01619110352926066,0.138,0.9999999999996263,737.916515901675,0.6010268869278618,121,2026-10-07 23:01:36.714243,25.0,0.12260640437034577,0.29512474737090033,0.10762911894803377
0082,cdot_cos,R,Q-R,122,24,20663,0.042248537166298034,0.1706088012953168,0.15929155178421828,0.9816982769182138,812.0,3.156446888606634,0.5709603783508199,6.3064654789579215,-0.07351143716659234,0.033,0.9999999999996213,-47.970178467642924,0.6059940244985244,122,2026-10-07 23:01:36.747243,25.0,0.45852193383102796,2.0390060512600954,2.0182306624102977
0082,cdot_cos,S,R-S,123,24,20714,0.34963031451437615,-0.29701974336764664,0.30738177734807814,0.999540331145038,812.0,3.2244196761302604,0.5721761621704639,6.345742592013726,-0.07658681151060055,0.051,0.9999999999996185,-2.529540444870289,0.6109611734670124,123,2026-10-07 23:01:36.798244,25.0,0.9606401403979166,0.8325819065952107,1.3327997553652247
0082,cdot_cos,T,S-T,124,24,20963,0.24613891147542347,0.40504191054304783,-0.10349140303895268,0.06996122778809953,812.0,3.2413702430793454,0.5722612265619835,6.3724333184786435,-0.019351885796939975,0.249,0.9999999999996027,672.8423573149682,0.6159284410965682,124,2026-10-07 23:01:37.047244,25.0,0.05194400022227786,0.06153013836750171,0.06807456606058246
0082,cdot_cos,P,T-P,125,25,21304,0.06852728278559723,0.0036926322530404974,-0.17761162868982622,0.01165506724151018,836.0,3.255061685037276,0.5722753972991264,6.398235545903607,-0.01570499960855875,0.341,0.9999999999995826,257.35331561260904,0.6208957630127185,125,2026-10-07 23:01:37.388243,25.0,0.7927781971071074,0.050484204050129225,0.0401508561816153
0082,cdot_cos,Q,P-Q,126,25,21442,-0.004454539443884867,-0.006024487547786458,-0.0729818222294821,0.1388893357480327,836.0,3.2758004702415335,0.5724442558552313,6.4256730748770075,-0.023912462519550773,0.138,0.9999999999995605,-48.6055495221199,0.6258629627421255,126,2026-10-07 23:01:37.526243,25.0,0.7094753576963018,0.16108452241005697,0.15028105220476315
0082,cdot_cos,R,Q-R,127,25,21477,-0.06194048143331274,0.3277965576001047,-0.05748594198942787,0.19198730038424333,836.0,3.299521013222452,0.5726776419347982,6.453751556480319,-0.027532901514530948,0.035,0.9999999999995411,-15.512660402447917,0.6308301006883857,127,2026-10-07 23:01:37.561243,25.0,0.8767836555317775,0.5792890582156929,0.6777297994548117
0082,cdot_cos,S,R-S,128,25,21516,-0.1661669491147196,0.3078653620915142,-0.10422646768140686,0.06877493114205242,836.0,3.316350704316632,0.572761239139628,6.480055998686408,-0.019654048266423682,0.039,0.9999999999995217,94.24780725805935,0.6357972413645884,128,2026-10-07 23:01:37.600243,25.0,0.6697325236623621,0.3860348165216347,0.4315305408764125
0082,cdot_cos,T,S-T,129,25,21763,-0.36902211750691266,-0.36567621820158375,-0.20285516839219306,0.006234646652745142,836.0,3.3296317289111395,0.5727688172629378,6.505405541623779,-0.015580364774255602,0.247,0.9999999999995012,537.5583539083041,0.6407645081388007,129,2026-10-07 23:01:37.847244,25.0,0.7699246300737771,0.16760198677080554,0.053769330342135296
0082,cdot_cos,P,T-P,130,26,22140,0.07779636742410857,-1.8413659049554613e-05,0.4468184849310212,0.999985916071133,789.0,3.39914608578141,0.5739838413523406,6.544425114817041,-0.08250512632647414,0.377,0.9999999999994958,-55.08101620035736,0.6457318567143512,130,2026-10-07 23:01:38.224244,25.0,0.444342850943006,0.1184037209880468,0.18438821451000137
0082,cdot_cos,Q,P-Q,131,26,22270,-0.002634620380833647,-0.004449689990293921,-0.08043098780494222,0.11807628162361374,789.0,3.4189081345361267,0.574127250245706,6.571189305930235,-0.023764295968193773,0.13,0.9999999999994708,409.60381870191213,0.6506990533283247,131,2026-10-07 23:01:38.354244,25.0,0.08443187776923942,0.31298531779951644,0.15201575965166741
0082,cdot_cos,R,Q-R,132,26,22305,0.06719982253136537,0.2768863333411722,0.06983444291219902,0.8514300014672652,789.0,3.4805222684092842,0.5751609792943069,6.608099181801162,-0.07492933781801905,0.035,0.9999999999994617,-49.495602275156486,0.6556661905366696,132,2026-10-07 23:01:38.389244,25.0,0.5051782670842886,1.4773568313705163,1.7604038249473573
0082,cdot_cos,S,R-S,133,26,22349,0.06719982253136537,0.2768863333411722,0.0,0.5,789.0,3.522323112732063,0.5757677282928758,6.640079999474113,-0.051576885592377976,0.044,0.9999999999994483,38.48782986163879,0.6606333343231556,133,2026-10-07 23:01:38.433243,25.0,0.635864541466825,0.6255257571138924,0.95001918915406
0082,cdot_cos,T,S-T,134,26,22595,-0.23731413474428056,-0.27206288816431295,-0.30451395727564595,0.0004938183246994764,789.0,3.5355685350353068,0.5757683274278574,6.6650028972694875,-0.016471615642056472,0.246,0.999999999999425,58593.25699025301,0.665600611019277,134,2026-10-07 23:01:38.679244,25.0,0.1186878376401373,0.17091843614395025,0.053843180094487325
0082,cdot_cos,P,T-P,135,27,22929,0.05914886812232667,0.0056347831696304425,0.2964630028666072,0.9993961466016514,809.0,3.6064149833148864,0.5769804062293715,6.703909271348788,-0.08908466796824124,0.334,0.9999999999994197,-59.90786427044126,0.6705679482126417,135,2026-10-07 23:01:39.013243,25.0,0.4425943727436891,0.1365304427622164,0.21211511460951987
0082,cdot_cos,Q,P-Q,136,27,23073,-0.0200817722014528,-0.024426653450778164,-0.07923064032377947,0.12123720467009393,809.0,3.6267708708004673,0.5771273813591866,6.730406913505082,-0.025920622681550945,0.144,0.9999999999993926,429.76009183427385,0.6755351591782786,136,2026-10-07 23:01:39.157243,25.0,0.08743794625689784,0.2851013909523606,0.14136032976097865
0082,cdot_cos,R,Q-R,137,27,23108,0.044269557789966336,0.25385580343492203,0.06435132999141914,0.8332423881225732,809.0,3.6885241839091663,0.5781371454036228,6.766924774552776,-0.0794765046618542,0.035,0.9999999999993833,-53.0380164310624,0.6805022962649933,137,2026-10-07 23:01:39.192243,25.0,0.5097381869180744,1.3073544947756524,1.7643803745342546
0082,cdot_cos,S,R-S,138,27,23167,0.006443568742904209,-0.014127141348474613,-0.03782598904706213,0.27976053816521823,809.0,3.718285685434763,0.578476026955387,6.795557629882158,-0.038773783764594075,0.059,0.9999999999993631,120.10898995641246,0.6854694508177751,138,2026-10-07 23:01:39.251244,25.0,0.35002577357597464,0.3701453906729777,0.5044322292474027
0082,cdot_cos,T,S-T,139,27,23398,-0.18642059507812936,-0.26033115279264396,-0.19286416382103358,0.007989511228960381,809.0,3.7322013400085776,0.5784857037837543,6.820248870698549,-0.018236344295807845,0.231,0.9999999999993374,2122.3316865093784,0.6904367266794996,139,2026-10-07 23:01:39.482244,25.0,0.32426901215135767,0.1860920123333901,0.06024092889097232
0082,cdot_cos,P,T-P,140,28,23738,0.06306098172388737,0.0014801374470843843,0.2494815768020167,0.9980481802707255,817.0,3.8042601951327892,0.5796940548955094,6.859035679303385,-0.09544731288864089,0.34,0.999999999999332,-63.897792489043965,0.6954040822678578,140,2026-10-07 23:01:39.822243,25.0,0.44533070885613946,0.13932197720776382,0.21193780918885768
0082,cdot_cos,Q,P-Q,141,28,23875,-0.004906077365396402,-0.008424418118289995,-0.06796705908928377,0.15457285249831473,817.0,3.826940284509857,0.5798811134360159,6.885710008604883,-0.030415384157315747,0.137,0.9999999999993032,347.65549092407593,0.7003712931473474,141,2026-10-07 23:01:39.959244,25.0,0.11787551529342702,0.3128108488074172,0.1655480976428305
0082,cdot_cos,R,Q-R,142,28,23912,0.06024449632300562,0.25879844412200975,0.06515057368840202,0.8360002957261964,817.0,3.8899703677060216,0.5808924121997816,6.922135347073792,-0.08541950666435363,0.037,0.9999999999992933,-54.389587407604864,0.7053384314471997,142,2026-10-07 23:01:39.996243,25.0,0.5252246029811499,1.1825192402262734,1.7035157620585013
0082,cdot_cos,S,R-S,143,28,23951,9.768343223590406e-05,-0.0012943705754069695,-0.060146812890769716,0.18187874620010477,817.0,3.9144467082866012,0.5811123388944515,6.9490962399149305,-0.033542013560390126,0.039,0.9999999999992691,235.88538527275665,0.7103055718934137,143,2026-10-07 23:01:40.035244,25.0,0.21296186138065107,0.49156222984016207,0.62759847642512
0082,cdot_cos,T,S-T,144,28,24199,-0.2271600197547195,-0.23939349738781995,-0.2272577031869554,0.0033970583225876485,817.0,3.928312221633554,0.5811164462907578,6.97340073702074,-0.01909439213297969,0.248,0.9999999999992412,3517.4646783566063,0.7152728696784151,144,2026-10-07 23:01:40.283243,25.0,0.469239432199214,0.17590530014061884,0.05590932801190711
0082,cdot_cos,P,T-P,145,29,24555,0.05991156545757305,0.0018721741665847474,0.28707158521229253,0.9992364664222264,819.0,4.001695737156348,0.5823241365920527,7.012114679701185,-0.10209883351463316,0.356,0.9999999999992353,-68.72990641114707,0.7202402518311654,145,2026-10-07 23:01:40.639244,25.0,0.44353379030988616,0.13287428551157138,0.20613347056964604
0082,cdot_cos,Q,P-Q,146,29,24693,-0.0182629226228297,-0.020547522656002383,-0.07817448808040275,0.1240784829605063,819.0,4.022918712917793,0.5824740308967058,7.038064205533474,-0.02987686503736556,0.138,0.9999999999992029,481.8192969000918,0.7252074679541275,146,2026-10-07 23:01:40.777244,25.0,0.08916017215446896,0.3172177169991863,0.1537896794307596
0082,cdot_cos,R,Q-R,147,29,24728,0.05884848795399769,0.24277046677827904,0.07711141057682738,0.8730040794468545,819.0,4.089247827048124,0.5835282403263041,7.074907699438855,-0.09432633516340094,0.035,0.9999999999991928,-61.13535727961725,0.7301746043387917,147,2026-10-07 23:01:40.812243,25.0,0.5049677976713415,1.307574023832674,1.895117546580874
0082,cdot_cos,S,R-S,148,29,24767,0.00013164302137683856,-0.0020549491822161128,-0.05871684493262085,0.18725879864311676,819.0,4.11444889458608,0.583754268425414,7.1016809700074495,-0.03623705528483087,0.039,0.9999999999991666,257.00025840739323,0.735141744590814,148,2026-10-07 23:01:40.851244,25.0,0.2012846245456134,0.5082482422378868,0.6461812189219638
0082,cdot_cos,T,S-T,149,29,25018,-0.1864855211210545,-0.15024743029661486,-0.18661716414243132,0.00932738796673691,819.0,4.128891189942679,0.5837655259979224,7.125770159640543,-0.020867021854367427,0.251,0.9999999999991364,1365.3061900309872,0.7401090549565079,149,2026-10-07 23:01:41.102243,25.0,0.47875297040285814,0.1771398976805962,0.05753902532509394
0082,cdot_cos,P,T-P,150,30,25374,0.04508594111385621,0.0021046662946506314,0.2315714622349107,0.9969491713836046,801.0,4.2033731232217395,0.5849682751107584,7.164372891440854,-0.10868561095839788,0.356,0.9999999999991299,-73.01488578691085,0.7450764527407876,150,2026-10-07 23:01:41.458244,25.0,0.4457461485489969,0.1350908149657472,0.20921891370522674
0082,cdot_cos,Q,P-Q,151,30,25514,-0.0322478713108127,-0.03646480011738302,-0.07733381242466891,0.12638076695618153,801.0,4.225075850198291,0.5851206726489426,7.190087355993038,-0.032031237163822786,0.14,0.9999999999990951,502.9895804611314,0.750043675262275,151,2026-10-07 23:01:41.598243,25.0,0.09134487355031028,0.31913874412557836,0.15501947840393776
0082,cdot_cos,R,Q-R,152,30,25548,0.04621612945342931,0.23385189160763653,0.07846400076424201,0.8767060069043573,801.0,4.2927319715769015,0.5861774077057477,7.226884669798481,-0.10083763841497659,0.034,0.9999999999990844,-65.11225383132941,0.7550108103725538,152,2026-10-07 23:01:41.632244,25.0,0.5054286488249208,1.6979929513925278,1.9898859229003132
0082,cdot_cos,S,R-S,153,30,25607,0.054026424361820514,-0.07044048212755218,0.007810294908391205,0.54865984315638,801.0,4.340539370892983,0.5868383304976466,7.258793501118895,-0.07218608267985632,0.059,0.9999999999990671,43.35083626455351,0.7599779676737236,153,2026-10-07 23:01:41.691243,25.0,0.6723928835759538,0.5356517011354157,0.810294903662394
0082,cdot_cos,T,S-T,154,30,25836,-0.10148216822052131,-0.051246195483005026,-0.15550859258234181,0.020080626249049452,801.0,4.3559388723108805,0.5868625139623972,7.282776535539978,-0.023422086566524548,0.229,0.999999999999034,2016.4189298824797,0.7649452718114481,154,2026-10-07 23:01:41.920243,25.0,0.12468479685441401,0.19638447988475513,0.06724673108252319
0082,cdot_cos,P,T-P,155,31,26175,0.04865618041031951,0.004106147160173801,0.1501383486308408,0.9771001482463384,804.0,4.4304834626802005,0.588038745130867,7.3210277396334815,-0.1144550539240493,0.339,0.9999999999990267,-77.39377241291383,0.7699126739357964,155,2026-10-07 23:01:42.259244,25.0,0.4514187120207386,0.14175427043063166,0.2198955468121535
0082,cdot_cos,Q,P-Q,156,31,26316,-0.031963100357813426,-0.03645086884375273,-0.08061928076813293,0.11758696846088533,804.0,4.452048267662849,0.5881802285997983,7.346373324297536,-0.03346912983148191,0.141,0.9999999999989896,572.4055587853819,0.7748799035816099,156,2026-10-07 23:01:42.400243,25.0,0.08894651565847066,0.32152644713648454,0.15294187930956196
0082,cdot_cos,R,Q-R,157,31,26349,0.048280048544793425,0.2287302263099671,0.08024314890260685,0.8814338289683763,804.0,4.521153920772689,0.589240325426285,7.383164821029268,-0.10826441632343632,0.033,0.9999999999989783,-70.55514611796181,0.7798470376464851,157,2026-10-07 23:01:42.433243,25.0,0.5011461404058916,1.8248239871163774,2.094110700298194
0082,cdot_cos,S,R-S,158,31,26408,0.0631561500610996,-0.08547138217712813,0.014876101516306181,0.5919186185478027,804.0,4.57248665081253,0.5899517593162389,7.415583338665621,-0.08145693338482896,0.059,0.9999999999989617,37.680919221244174,0.7848141963912951,158,2026-10-07 23:01:42.492243,25.0,0.7195710016128666,0.5632007895434336,0.8700462718617037
0082,cdot_cos,T,S-T,159,31,26641,-0.11745465303337241,-0.05946733068381372,-0.18061080309447203,0.010822247484988981,804.0,4.587611613938814,0.589964763208099,7.439177347298773,-0.024176100265715803,0.233,0.9999999999989257,4404.89922058495,0.7897815162784226,159,2026-10-07 23:01:42.725244,25.0,0.09354464276055748,0.19677053871530759,0.06491400483383966
0082,cdot_cos,P,T-P,160,32,26979,0.06410082174617246,0.0063624637780100345,0.18155547477954487,0.9894276743455815,814.0,4.664181721853863,0.5911531149020002,7.477566053318142,-0.12350663747402572,0.338,0.9999999999989186,-83.58681837884356,0.7947489364675178,160,2026-10-07 23:01:43.063244,25.0,0.4474221944649457,0.1482175863832754,0.22653878081375353
0082,cdot_cos,Q,P-Q,161,32,27119,-0.007220916346082646,-0.010898787779790064,-0.0713217380922551,0.14392773606785556,814.0,4.6878067023339085,0.5913258908901611,7.50308955550055,-0.038514470403733625,0.14,0.999999999998879,491.92117478235355,0.7997161718202958,161,2026-10-07 23:01:43.203244,25.0,0.11005672829704974,0.32392404240260125,0.1687498605717533
0082,cdot_cos,R,Q-R,162,32,27154,0.05649098273370016,0.2570399928554196,0.06371189907978281,0.8310093245320851,814.0,4.754880453726591,0.5923230217321325,7.539046481580995,-0.1103233483870534,0.035,0.9999999999988658,-72.01550183860408,0.8046833075931451,162,2026-10-07 23:01:43.238244,25.0,0.5215789338300898,1.3461760862406484,1.9163928969337969
0082,cdot_cos,S,R-S,163,32,27192,0.00033524538167216546,-0.00260430960489467,-0.056155737352027994,0.19719900911861965,814.0,4.782039028370754,0.5925595302333768,7.565298878215247,-0.045108223211218025,0.038,0.9999999999988332,275.74114601681316,0.8096504470068088,163,2026-10-07 23:01:43.276243,25.0,0.2355697956267361,0.5555396649868284,0.7146993327411182
0082,cdot_cos,T,S-T,164,32,27452,-0.20059187521883287,-0.1857456988160425,-0.20092712060050505,0.006540510825407581,814.0,4.79710146826559,0.592567373790228,7.588570277410886,-0.025128117186301174,0.26,0.9999999999987947,2547.3272399425655,0.8146178036117873,164,2026-10-07 23:01:43.536243,25.0,0.4515227810293751,0.17953527119695367,0.0579324611339864
0082,cdot_cos,P,T-P,165,33,27793,0.05313978003726211,0.0005821309360630131,0.253731655256095,0.9982445821194539,801.0,4.87539736939317,0.5937639403348072,7.627041348994639,-0.13176935801552636,0.341,0.9999999999987875,-89.12269970470032,0.8195852427218061,165,2026-10-07 23:01:43.877243,25.0,0.4451685644362426,0.14733079302225205,0.22960674817471977
0082,cdot_cos,Q,P-Q,166,33,27925,-0.028049724329396838,-0.027646821133039706,-0.08118950436665895,0.11611584930414084,801.0,4.897581069106766,0.5939030530508741,7.651911265945963,-0.037718176973282724,0.132,0.9999999999987437,676.0789646073563,0.8245524752168827,166,2026-10-07 23:01:44.009243,25.0,0.08261830272437298,0.3600992774208532,0.16805833116360955
0082,cdot_cos,R,Q-R,167,33,27960,0.06255671710851825,0.24276338202636774,0.09060644143791509,0.9059502960696084,801.0,4.970463578632275,0.5949879087578948,7.688944079749146,-0.12501869858908865,0.035,0.9999999999987326,-80.47201213105052,0.8295196105365716,167,2026-10-07 23:01:44.044243,25.0,0.49743035846299877,1.4419944011019123,2.0823574150145365
0082,cdot_cos,S,R-S,168,33,28006,0.008341506993123096,-0.02318505981189529,-0.05421521011539515,0.20499215818310768,801.0,4.9985206771839,0.5952332541305552,7.71511054383305,-0.048610506934121556,0.046,0.9999999999986979,311.43115040822823,0.8344867579690065,168,2026-10-07 23:01:44.090244,25.0,0.20766165278925497,0.475267531301888,0.6099369250353278
0082,cdot_cos,T,S-T,169,33,28257,-0.16614353753547265,-0.06726813076864288,-0.17448504452859576,0.012590701057330152,801.0,5.014188191512049,0.5952483217926371,7.738233998792455,-0.027263591274461253,0.251,0.9999999999986561,1416.7370852621157,0.8394541176259894,169,2026-10-07 23:01:44.341243,25.0,0.4570408386937952,0.1892329106835675,0.062420375809357026
0082,cdot_cos,P,T-P,170,34,28594,0.05599315944674588,0.002270261647992129,0.22213669698221852,0.9961407566344831,794.0,5.093515598347051,0.5964398616316108,7.776630368054011,-0.13921790681407192,0.337,0.9999999999986483,-93.95767718185621,0.8444215696712202,170,2026-10-07 23:01:44.678244,25.0,0.44746092678036764,0.1495484192386372,0.23539289862018478
0082,cdot_cos,Q,P-Q,171,34,28737,-0.0318080945912001,-0.03835036943075648,-0.08780125403794597,0.1001975636163819,794.0,5.11498382607889,0.5965596508594726,7.801035973161811,-0.038048347690888,0.143,0.9999999999986009,844.5630790765606,0.8493888189925456,171,2026-10-07 23:01:44.821243,25.0,0.07002004041045204,0.32246334418712724,0.15012746665621823
0082,cdot_cos,R,Q-R,172,34,28771,0.039784048684209136,0.23135417452020135,0.07159214327540923,0.8569031933973322,794.0,5.185740114784569,0.5975836330241157,7.837242252209299,-0.1264304057110982,0.034,0.999999999998587,-86.31210686273897,0.854355952743334,172,2026-10-07 23:01:44.855244,25.0,0.49705381287187567,1.9941603360861846,2.081067314872917
0082,cdot_cos,S,R-S,173,34,28809,0.08636574542539004,-0.08637636354655437,0.0465816967411809,0.7621571159158356,794.0,5.250586728932751,0.5984936813285998,7.871961719530182,-0.11730900232890114,0.038,0.9999999999985728,10.022988161455185,0.859323091896362,173,2026-10-07 23:01:44.893243,25.0,0.9251907400862892,1.0693675146834911,1.7064898460047733
0082,cdot_cos,T,S-T,174,34,29062,-0.07051862109689849,-0.0387177422029366,-0.15688436652228854,0.019414889695746163,794.0,5.267012045900515,0.5985168547036582,7.8949859468096735,-0.029944605171858568,0.253,0.9999999999985287,3770.033365308743,0.8642904692537909,174,2026-10-07 23:01:45.146244,25.0,0.054066863721305515,0.185087717141294,0.06492220145361244
0082,cdot_cos,P,T-P,175,35,29388,0.04346709590446455,0.004049522475398616,0.11398571700136303,0.9453002221900502,801.0,5.344241113806246,0.5996446190238532,7.932559297638436,-0.14191603803967356,0.326,0.9999999999985189,-99.28619913108523,0.8692579305066283,175,2026-10-07 23:01:45.472243,25.0,0.45429989512156127,0.15410439416932653,0.2368989813059227
0082,cdot_cos,Q,P-Q,176,35,29531,-0.03571080744807033,-0.03953593809888539,-0.07917790335253488,0.12137773809604459,801.0,5.367488110898916,0.5997893491973089,7.957111795580985,-0.043117971147881844,0.143,0.9999999999984692,682.6362777910076,0.8742251875401204,176,2026-10-07 23:01:45.615244,25.0,0.10113053931399354,0.338085685860254,0.16256641323545515
0082,cdot_cos,R,Q-R,177,35,29564,0.044358343032667454,0.2326747390879235,0.08006915048073779,0.8809784674452816,801.0,5.440933619962278,0.600839299938004,7.993653984557137,-0.1373339859069198,0.033,0.9999999999984555,-89.73374760101662,0.8791923201158736,177,2026-10-07 23:01:45.648243,25.0,0.5035684223801102,1.8503123075548287,2.225621486768562
0082,cdot_cos,S,R-S,178,35,29605,0.044821780938651405,-0.060045339449603836,0.0004634379059839516,0.5028964545122051,801.0,5.489608723197534,0.6014382375794676,8.0241939372322,-0.09199827185175474,0.041,0.9999999999984289,75.69354623359824,0.8841594629300441,178,2026-10-07 23:01:45.689243,25.0,0.6109203079207497,0.7889467570687644,1.1871976398842963
0082,cdot_cos,T,S-T,179,35,29854,-0.14179447518598498,-0.07610862927644939,-0.1866162561246364,0.009327597729987218,801.0,5.505627254041917,0.6014493436638257,8.046850829857338,-0.03045470212807801,0.249,0.9999999999983816,5541.428260303363,0.8891268498568775,179,2026-10-07 23:01:45.938244,25.0,0.13254630318734276,0.1958487342723297,0.06433144917422706
0082,cdot_cos,P,T-P,180,36,30189,0.054800604690916764,0.004273454093933002,0.19659507987690175,0.9927168137083464,816.0,5.5871413928651545,0.6026307421721613,8.085147087927202,-0.15619345353616532,0.335,0.9999999999983726,-106.4321230481654,0.8940943411497674,180,2026-10-07 23:01:46.273243,25.0,0.4470792784451907,0.15822283752040797,0.2433257875320527
0082,cdot_cos,Q,P-Q,181,36,30329,-0.01963065743497823,-0.021891498430188543,-0.07443126212589499,0.13461198157619186,816.0,5.61163655518059,0.6027908475730357,8.109729015611077,-0.047378501175262044,0.14,0.9999999999983208,679.6457319154367,0.8990616017338737,181,2026-10-07 23:01:46.413243,25.0,0.10058865482529356,0.35049892271311134,0.17496544511025494
0082,cdot_cos,R,Q-R,182,36,30363,0.05569804389978122,0.24890360895589705,0.07532870133475944,0.8679802620354521,816.0,5.685281091224826,0.6038226800287396,8.14602099964509,-0.1435634537895572,0.034,0.9999999999983056,-93.21760726035367,0.9040287351901742,182,2026-10-07 23:01:46.447244,25.0,0.5117177076496979,1.510339465150491,2.166015766006926
0082,cdot_cos,S,R-S,183,36,30405,0.00032888884153013946,-0.0035688410402760235,-0.05536915505825108,0.20033068233440143,816.0,5.714339638810824,0.604060697115462,8.171589348521302,-0.05715022479394316,0.042,0.9999999999982631,363.05472932883663,0.9089958792808855,183,2026-10-07 23:01:46.489243,25.0,0.22046054052109396,0.5392253405129938,0.6918701806189977
0082,cdot_cos,T,S-T,184,36,30648,-0.18525825763381373,-0.14950500435713876,-0.18558714647534388,0.0095683634524594,816.0,5.730576019827917,0.6040720642563763,8.194039870894981,-0.032059095348238593,0.243,0.9999999999982122,2207.338646967525,0.9139632713160596,184,2026-10-07 23:01:46.732243,25.0,0.45719172445786116,0.20409073545088738,0.06681638278639329
0082,cdot_cos,P,T-P,185,37,31005,0.056289207152056556,0.00010888775218648437,0.2415474647858703,0.9976209843508593,788.0,5.813527736239955,0.6052566110104922,8.232387896470042,-0.16503815754473916,0.357,0.9999999999982031,-112.2615563585297,0.9189308078973945,185,2026-10-07 23:01:47.089243,25.0,0.4467539091081234,0.14671197733327962,0.23235774905332687
0082,cdot_cos,Q,P-Q,186,37,31140,-0.03617463254036166,-0.0383284261861998,-0.09246383969241823,0.09016712858526771,788.0,5.835328371643879,0.605363612223551,8.256067243487605,-0.04376332893381303,0.135,0.9999999999981448,1133.3967638699442,0.9238980679173014,186,2026-10-07 23:01:47.224244,25.0,0.06258987096137907,0.3639172307626691,0.16148618817721452
0082,cdot_cos,R,Q-R,187,37,31175,0.049531780675045926,0.23295828297227067,0.08570641321540759,0.8949809179988127,788.0,5.9117853885458755,0.6064251358433909,8.292747432343404,-0.15463130659010965,0.035,0.9999999999981296,-104.44230875712098,0.9288652019826557,187,2026-10-07 23:01:47.259244,25.0,0.4882231326975231,2.018306982096783,2.184486197199905
0082,cdot_cos,S,R-S,188,37,31220,0.08731704678852466,-0.08675364496681856,0.03778526611347873,0.7200342795871463,788.0,5.976609860390654,0.6072784295033421,8.326590749375132,-0.13258036031032214,0.045,0.9999999999981098,25.842154131377985,0.9338323501417118,188,2026-10-07 23:01:47.304243,25.0,0.8467740683113223,0.9148525642703298,1.4405438187728474
0082,cdot_cos,T,S-T,189,37,31460,-0.06091955527205175,-0.031177191911737352,-0.1482366020605764,0.02398814339305209,788.0,5.994122119330205,0.6073068459800748,8.349097234949213,-0.03606358568886239,0.24,0.9999999999980568,3396.5074393070977,0.9387997541029403,189,2026-10-07 23:01:47.544243,25.0,0.06881768890167027,0.20202888278484749,0.0729677455814648
0082,cdot_cos,P,T-P,190,38,31793,0.04209693456657324,0.003068828898023914,0.10301648983862499,0.9292622914686711,801.0,6.0735837241273805,0.6084070938346633,8.386321744670902,-0.16479934280069886,0.333,0.9999999999980432,-117.00614236597022,0.943767283358682,190,2026-10-07 23:01:47.877243,25.0,0.45787150550773814,0.15385436866258842,0.23862343782935505
0082,cdot_cos,Q,P-Q,191,38,31940,-0.04465815713109568,-0.053400103508392624,-0.08675509169766893,0.10258034111866172,801.0,6.096589128859489,0.608528481835995,8.410039999463224,-0.04811186238567881,0.147,0.9999999999979831,961.2768900956347,0.9487345669759795,191,2026-10-07 23:01:48.024243,25.0,0.08844830614517785,0.3403078568650959,0.15649935191910652
0082,cdot_cos,R,Q-R,192,38,31971,0.03808850603541301,0.21880181075269628,0.0827466631665087,0.8878202274265008,801.0,6.173634234045719,0.6095785177220187,8.446576908253478,-0.16229502717436212,0.031,0.9999999999979664,-108.74215472870586,0.9537016955363284,192,2026-10-07 23:01:48.055244,25.0,0.49482403172767586,2.45461020024757,2.48532597374934
0082,cdot_cos,S,R-S,193,38,32022,0.10946007113315599,-0.11028008611307573,0.07137156509774298,0.8562256786663743,801.0,6.2487749612748384,0.6105902256149396,8.482599710699903,-0.1600966533501851,0.051,0.9999999999979521,2.172933353153959,0.958668852767706,193,2026-10-07 23:01:48.106244,25.0,0.9863623061619757,0.9066402593498117,1.4733475927278392
0082,cdot_cos,T,S-T,194,38,32268,-0.053086863786896574,-0.03127243854878058,-0.16254693492005257,0.016895412538974277,801.0,6.2661115404993994,0.610610179524541,8.504824905545414,-0.03721204034612317,0.246,0.9999999999978951,6158.422858414235,0.9636362816640295,194,2026-10-07 23:01:48.352243,25.0,0.036799133567598535,0.20166282333793253,0.07047389928683333
0082,cdot_cos,P,T-P,195,39,32594,0.06298991952320673,0.003162376478383572,0.11607678331010331,0.9479412472124493,799.0,6.347993070357101,0.6117291268940656,8.54234187874964,-0.1769622648968488,0.326,0.9999999999978815,-124.89436800776926,0.9686038253141477,195,2026-10-07 23:01:48.678244,25.0,0.4539729549705714,0.16315185718426198,0.25117033698681535
0082,cdot_cos,Q,P-Q,196,39,32734,-0.017303847513243733,-0.02022109989587821,-0.08029376703645047,0.11843398455935852,799.0,6.372486551383538,0.611868843584758,8.566173696913822,-0.05337468068751798,0.14,0.9999999999978187,884.5584847222603,0.973571108204766,196,2026-10-07 23:01:48.818244,25.0,0.09871956706415731,0.3567314392114852,0.17495343590312143
0082,cdot_cos,R,Q-R,197,39,32768,0.051612096722904205,0.25812224350891577,0.06891594423614794,0.8485018184504962,799.0,6.447877873336317,0.6128692830140466,8.602040331418303,-0.16542133722385252,0.034,0.9999999999977985,-111.9974415802532,0.9785382407745761,197,2026-10-07 23:01:48.852243,25.0,0.5079658716385245,1.5729770976431858,2.217391822140555
0082,cdot_cos,S,R-S,198,39,32822,0.0004835645109364526,-0.0021590611584784637,-0.05112853221196775,0.2178545120221166,799.0,6.479448994023275,0.6131259946166661,8.62745752711871,-0.06983327472139209,0.054,0.9999999999977477,372.35583248713476,0.9835054031842447,198,2026-10-07 23:01:48.906244,25.0,0.2544110651986128,0.4479467618733314,0.5846503830918107
0082,cdot_cos,T,S-T,199,39,33062,-0.19982304789262587,-0.2565439071802182,-0.20030661240356232,0.0066420837256522735,799.0,6.496256123618637,0.6131338204129511,8.64932701245,-0.037315141117150605,0.24,0.9999999999976851,4155.249181041598,0.9884728360705868,199,2026-10-07 23:01:49.146244,25.0,0.4183461479090337,0.21509809847465683,0.07002970664734173
0082,cdot_cos,P,T-P,200,40,33393,0.05887822032257705,0.0037652955333532865,0.2587012682152029,0.9984493538361839,810.0,6.58269608129111,0.6143095409832575,8.687659205183841,-0.1932226118427164,0.331,0.9999999999976745,-132.60588839142912,0.9934404051670319,200,2026-10-07 23:01:49.477243,25.0,0.4462481684959057,0.16903555843693197,0.2611479083760521
0082,cdot_cos,Q,P-Q,201,40,33534,-0.017822148283755192,-0.020362142490778844,-0.07670036860633224,0.12813957872533321,810.0,6.608157663303886,0.6144603350908314,8.711489523674727,-0.05739388702451978,0.141,0.9999999999976075,900.756183404761,0.9984076957824526,201,2026-10-07 23:01:49.618243,25.0,0.09379852675517007,0.36019203782984877,0.18057859583528874
0082,cdot_cos,R,Q-R,202,40,33569,0.05018888011624625,0.2548219737840116,0.06801102840000144,0.845570740796552,810.0,6.6842702359591275,0.6154548470936092,8.747267802751542,-0.17272235097012395,0.035,0.9999999999975857,-115.9648788787658,1.0033748291611504,202,2026-10-07 23:01:49.653243,25.0,0.5128816649450668,1.5552864886679045,2.1746449330069035
0082,cdot_cos,S,R-S,203,40,33627,0.0017140035245771946,-0.0055823910277776135,-0.048474876591669054,0.2293700047972104,810.0,6.717027717510639,0.6157244530769702,8.77273400899412,-0.07492571581586066,0.058,0.9999999999975321,362.7391125934728,1.0083419982810198,203,2026-10-07 23:01:49.711244,25.0,0.2711053127238828,0.42737180762430665,0.5647841646812363
0082,cdot_cos,T,S-T,204,40,33851,-0.21763626388016116,-0.20504465892759358,-0.21935026740473837,0.004136514398251871,810.0,6.733845365643547,0.615729314564693,8.794384643765778,-0.03860889390670861,0.224,0.9999999999974649,7470.310320565154,1.0133094198498735,204,2026-10-07 23:01:49.935244,25.0,0.3903804216439043,0.2329034801784888,0.07507878630762442
0082,cdot_cos,P,T-P,205,41,34203,0.053454292929325756,0.0035370232575866554,0.2710905568094869,0.9988619086336449,801.0,6.821368476630602,0.6169025600340744,8.8327117140178,-0.20225497394220282,0.352,0.9999999999974537,-139.48153588164595,1.018277040395569,205,2026-10-07 23:01:50.287244,25.0,0.4452551390298978,0.159153644584043,0.24864520166777024
0082,cdot_cos,Q,P-Q,206,41,34340,-0.029833170103731103,-0.03135510038395195,-0.08328746303305685,0.11084028590705984,801.0,6.845889531430713,0.6170326674442728,8.856096520884828,-0.05712613716868533,0.137,0.9999999999973802,1115.4540433342702,1.0232443311654542,206,2026-10-07 23:01:50.424243,25.0,0.07882713472422202,0.38107475517729283,0.17898580146066517
0082,cdot_cos,R,Q-R,207,41,34374,0.05207133739990357,0.23489885465783705,0.08190450750363468,0.8857061717360617,801.0,6.92578295954918,0.6180717303528928,8.89251550997227,-0.18735387825752037,0.034,0.9999999999973602,-125.3319120608338,1.0282114623182352,207,2026-10-07 23:01:50.458244,25.0,0.4990297094987988,1.9491278740015359,2.3498067093666797
0082,cdot_cos,S,R-S,208,41,34433,0.05233924996454542,-0.06527055561261158,0.00026791256464184926,0.5016744472692746,801.0,6.978430226862818,0.6186597897795988,8.922450234013171,-0.12457504160836672,0.059,0.9999999999973204,106.75593961787865,1.033178634240178,208,2026-10-07 23:01:50.517244,25.0,0.6041432533033817,0.6015923541640908,0.892326564637921
0082,cdot_cos,T,S-T,209,41,34670,-0.09929073697639629,-0.0448417553257523,-0.1516299869409417,0.022080128954196313,801.0,6.996770857340543,0.6186856639824767,8.944246800681912,-0.04361842952029686,0.237,0.99999999999725,3128.8543446167882,1.0381460907884257,209,2026-10-07 23:01:50.754244,25.0,0.15629367662537688,0.22170401787479121,0.07738662648829277
0082,cdot_cos,P,T-P,210,42,35004,0.04387835614136919,0.002949126751470511,0.1431690931177655,0.9728598889842052,820.0,7.083517931335469,0.6198250218750619,8.982130121309346,-0.20761717320013492,0.334,0.9999999999972357,-143.9396213842169,1.0431137063561424,210,2026-10-07 23:01:51.088243,25.0,0.45388594397448434,0.16863286685727813,0.2597217784279211
0082,cdot_cos,Q,P-Q,211,42,35141,-0.033789011198250556,-0.036556950738755735,-0.07766736733961974,0.12546294794545682,820.0,7.109417612401205,0.6199718611438025,9.0056241327625,-0.06247392446294696,0.137,0.9999999999971603,988.4498198747963,1.0480810046751798,211,2026-10-07 23:01:51.225244,25.0,0.09795361150596484,0.3950845656460666,0.18904876690318353
0082,cdot_cos,R,Q-R,212,42,35176,0.056850522398601486,0.22420059377853652,0.09063953359685203,0.906020762303106,820.0,7.191771102322491,0.6210315961173835,9.042369350788658,-0.1999470838338873,0.035,0.9999999999971402,-129.72409404061577,1.0530481370780902,212,2026-10-07 23:01:51.260243,25.0,0.5028075890527298,1.9231356351776718,2.3529568548938884
0082,cdot_cos,S,R-S,213,42,35218,0.05481457676049562,-0.07633871924431833,-0.002035945638105864,0.48727808616838225,820.0,7.244037106863642,0.6216010685400051,9.071981764002253,-0.128016613718746,0.042,0.9999999999970968,126.31071717924921,1.0580152822556483,213,2026-10-07 23:01:51.302243,25.0,0.5701339941983588,0.8437640780576511,1.2444286795512127
0082,cdot_cos,T,S-T,214,42,35470,-0.09628635326222187,-0.03637132508593255,-0.1511009300227175,0.022367534321419993,820.0,7.262647284879334,0.6216272010083467,9.093634847710359,-0.04580502414138553,0.252,0.9999999999970228,3145.9557705266384,1.0629827796265015,214,2026-10-07 23:01:51.554244,25.0,0.16615802490297088,0.21247600780161321,0.07384991276068158
0082,cdot_cos,P,T-P,215,43,35824,0.06386043252836908,0.000702542556309517,0.16014678579059094,0.9820784913777048,805.0,7.351125014795655,0.6227738861768423,9.131670909540672,-0.21911527948559034,0.354,0.9999999999970083,-151.14022584907252,1.0679504523769225,215,2026-10-07 23:01:51.908243,25.0,0.4534117263658916,0.16089308436962083,0.24993709015909973
0082,cdot_cos,Q,P-Q,216,43,35956,-0.01797339889859148,-0.019097611848856704,-0.08183383142696056,0.11447281500232757,805.0,7.376559588613025,0.6229074567261463,9.154846274664022,-0.06347092362310355,0.132,0.9999999999969265,1165.2595326845717,1.0729177497564988,216,2026-10-07 23:01:52.040244,25.0,0.08610265110324197,0.40609963583963665,0.1926861652831079
0082,cdot_cos,R,Q-R,217,43,35993,0.06345726917853849,0.2535510399706664,0.08143066807712997,0.8845015036083439,805.0,7.458335318657319,0.6239388907094582,9.191207675818147,-0.20533055642536696,0.037,0.9999999999969039,-137.5363184629269,1.0778848851360503,217,2026-10-07 23:01:52.077244,25.0,0.5011327822777495,1.53635507239683,2.2101548660619956
0082,cdot_cos,S,R-S,218,43,36038,0.008282486133937155,-0.018383297815389273,-0.05517478304460133,0.20111026767357243,805.0,7.490249863970391,0.6241732528500441,9.215821537440103,-0.08072832365982922,0.045,0.9999999999968371,531.6653639279131,1.0828520354094728,218,2026-10-07 23:01:52.122243,25.0,0.21363719927442032,0.5524612292506288,0.7092121180682575
0082,cdot_cos,T,S-T,219,43,36286,-0.18066826127807528,-0.17821636348000056,-0.18895074741201243,0.00880345413845743,805.0,7.508056829289876,0.6241835105530797,9.237086366286523,-0.04519233627549504,0.248,0.9999999999967565,3464.322106114263,1.0878195401691617,219,2026-10-07 23:01:52.370244,25.0,0.455514497946119,0.2186126106314627,0.07180227951405242
0082,cdot_cos,P,T-P,220,44,36629,0.06133261307257256,0.0030308498874265194,0.24200087435064785,0.9976477357262269,826.0,7.598681718843596,0.6253452368333312,9.275383085229272,-0.23137343152182294,0.343,0.999999999996742,-160.2624459920351,1.0927872151947209,220,2026-10-07 23:01:52.713243,25.0,0.4472319408216631,0.16938526420985647,0.2642125059875233
0082,cdot_cos,Q,P-Q,221,44,36773,-0.021209832804061773,-0.023721029265347113,-0.08254244587663434,0.11268925817347532,826.0,7.624255120537837,0.6254763691332473,9.29838950422494,-0.06578418062336298,0.144,0.9999999999966562,1262.7647879612682,1.097754540057143,221,2026-10-07 23:01:52.857243,25.0,0.08068850697634167,0.3730481065330749,0.1775930673211184
0082,cdot_cos,R,Q-R,222,44,36805,0.05601787171814133,0.24089655085145892,0.0772277045222031,0.873326061847861,826.0,7.706119573525122,0.626492000441912,9.3345355569033,-0.211839889693436,0.032,0.9999999999966313,-143.80780488355018,1.102721665781853,222,2026-10-07 23:01:52.889244,25.0,0.501845622300334,1.9020573381502563,2.558264155852641
0082,cdot_cos,S,R-S,223,44,36863,0.022837535794215862,-0.037539037315986755,-0.03318033592392547,0.30374902684592625,826.0,7.745986790179454,0.6268449835390709,9.360806804334993,-0.10394349606133138,0.058,0.9999999999965674,305.6701425664222,1.1076888396545739,223,2026-10-07 23:01:52.947244,25.0,0.35415192470770995,0.5006775076177076,0.6873658043850328
0082,cdot_cos,T,S-T,224,44,37105,-0.15493610258181684,-0.06653170166487343,-0.1777736383760327,0.01160850374644138,826.0,7.764198164408776,0.6268584709640811,9.381973573952088,-0.04765926080837069,0.242,0.999999999996482,4173.089764021694,1.112656348597069,224,2026-10-07 23:01:53.189243,25.0,0.30698032022364163,0.22657876103649624,0.07525361251786022
0082,cdot_cos,P,T-P,225,45,37455,0.05736283118968845,0.0028538187933531225,0.21229893377150527,0.995069996300611,850.0,7.855650910521118,0.6280138650586228,9.420223388233637,-0.2407208538534929,0.35,0.9999999999964666,-167.09588006134385,1.1176240587744186,225,2026-10-07 23:01:53.539244,25.0,0.4484247433936907,0.16770887619741437,0.26129356032097717
0082,cdot_cos,Q,P-Q,226,45,37596,-0.02470600262613676,-0.02434356187209758,-0.0820688338158252,0.11387861487893808,850.0,7.881594377746966,0.6281459986494079,9.443120928707515,-0.06879140269101408,0.141,0.999999999996375,1301.1789821263078,1.1225913854475063,226,2026-10-07 23:01:53.680243,25.0,0.08214355480846885,0.39105022638703874,0.18399622145991534
0082,cdot_cos,R,Q-R,227,45,37631,0.0606371944684996,0.22656492435774142,0.08534319709463636,0.8941243840962196,850.0,7.965927074362263,0.629182786067532,9.479610657863924,-0.22492523787267213,0.035,0.9999999999963497,-150.5938753232181,1.1275585158054984,227,2026-10-07 23:01:53.715244,25.0,0.4994944416618364,1.7583778947852122,2.4095056175799097
0082,cdot_cos,S,R-S,228,45,37675,0.023455637531512894,-0.039983654376195804,-0.0371815569369867,0.283018266310006,850.0,8.00468083038193,0.6295107142829969,9.505419502669533,-0.10412578475439707,0.044,0.9999999999962805,368.37163568562926,1.1325256642103787,228,2026-10-07 23:01:53.759244,25.0,0.31344541090829237,0.6558759392209462,0.8807671822651822
0082,cdot_cos,T,S-T,229,45,37925,-0.13430343453526247,-0.03399333770336131,-0.15775907206677536,0.019002920554934126,850.0,8.023644157013706,0.629532728353713,9.52657505303848,-0.05113465493830847,0.25,0.9999999999961912,2407.1481598948058,1.137493203336449,229,2026-10-07 23:01:54.009243,25.0,0.35476289617621165,0.22195764615740288,0.07585330652710098
0082,cdot_cos,P,T-P,230,46,38305,0.04625523908449896,0.0005987787798411885,0.18055867361976144,0.9891637923016925,818.0,8.115659653460632,0.6306778871680696,9.564720315476405,-0.24951852654277118,0.38,0.9999999999961742,-173.236994831953,1.1424609941148904,230,2026-10-07 23:01:54.389244,25.0,0.45155111524655156,0.15451962801283506,0.24214604328138473
0082,cdot_cos,Q,P-Q,231,46,38438,-0.04021823281764767,-0.03858042950247871,-0.08647347190214663,0.10323028817191782,818.0,8.14107907430346,0.6307973127815143,9.587306337331686,-0.06942216266619594,0.133,0.9999999999960755,1508.02125843786,1.147428312402143,231,2026-10-07 23:01:54.522244,25.0,0.07470412144679398,0.4262688782947576,0.1911234649836725
0082,cdot_cos,R,Q-R,232,46,38473,0.06328032402869588,0.22440043453724628,0.10349855684634354,0.930050408174771,818.0,8.229047175087038,0.6318725507658145,9.624413350273466,-0.24162898448957104,0.035,0.9999999999960516,-160.15693673196668,1.1523954418439661,232,2026-10-07 23:01:54.557244,25.0,0.4903229224064144,2.0283590251805705,2.513374308102202
0082,cdot_cos,S,R-S,233,46,38514,0.05988303920777962,-0.08316863402810494,-0.003397284820916259,0.47877972431245774,818.0,8.2830642060661,0.6324255615386953,9.653574636695483,-0.1495657662633467,0.041,0.9999999999959946,166.4763558703086,1.157362584314308,233,2026-10-07 23:01:54.598243,25.0,0.5403508110924428,0.89880155840695,1.3174885604649476
0082,cdot_cos,T,S-T,234,46,38762,-0.08603040613640696,-0.03048704385670776,-0.14591344534418657,0.025386186072052324,818.0,8.302748902876408,0.6324548739440996,9.674716675844708,-0.05474572318708958,0.248,0.9999999999959006,3234.809350120643,1.1623301370127967,234,2026-10-07 23:01:54.846244,25.0,0.1769287394857561,0.22442747917246353,0.0793737774609155
0082,cdot_cos,P,T-P,235,47,39123,0.05387412129877997,0.0015319627897920816,0.13990452743518694,0.9706197808205522,836.0,8.394380235735643,0.6335748733569535,9.712536733659633,-0.2562200287683538,0.361,0.9999999999958813,-179.88786714439624,1.1672979183857155,235,2026-10-07 23:01:55.207244,25.0,0.4555120251457023,0.16464060983379472,0.25382640681228497
0082,cdot_cos,Q,P-Q,236,47,39262,-0.024652635224209827,-0.026565430479993952,-0.0785267565229898,0.123124507494728,836.0,8.421619423176407,0.6337168440632234,9.735361350601773,-0.07669611610704678,0.139,0.999999999995779,1264.5137675095891,1.172265256568883,236,2026-10-07 23:01:55.346244,25.0,0.09625858369907794,0.4104664847743823,0.19596537727169008
0082,cdot_cos,R,Q-R,237,47,39296,0.06456036114225497,0.2396028749917246,0.08921299636646479,0.9029398376139677,836.0,8.50848991850292,0.6347572826271342,9.77198282049443,-0.24596050415001297,0.034,0.9999999999957518,-162.6856153877437,1.177232383427211,237,2026-10-07 23:01:55.380243,25.0,0.5024912227157255,1.7781646465375982,2.5550145684268633
0082,cdot_cos,S,R-S,238,47,39335,0.01162970093895566,-0.028371050295816384,-0.05293066020329931,0.21027534551390026,836.0,8.542534619140964,0.6349993983456816,9.796312276414858,-0.09705348757429579,0.039,0.9999999999956676,615.0241606329738,1.1821995215664376,238,2026-10-07 23:01:55.419244,25.0,0.21561133796827403,0.6700123654275705,0.8729410420011109
0082,cdot_cos,T,S-T,239,47,39585,-0.211572528031498,-0.17436641631899139,-0.22320222897045366,0.003758178118075811,836.0,8.560750883006271,0.6350037249750498,9.816938075650793,-0.05208924859148619,0.25,0.9999999999955661,10392.440663903977,1.1871670935903462,239,2026-10-07 23:01:55.669244,25.0,0.4218036529670575,0.22596874141981615,0.07286505546122868
0082,cdot_cos,P,T-P,240,48,39959,0.06568540304258366,0.0010325432394322214,0.2772579310740817,0.9990243673111526,837.0,8.655518989850872,0.6361530836596859,9.855260328615273,-0.272411622457592,0.374,0.9999999999955486,-191.69157271026222,1.1921349257846448,240,2026-10-07 23:01:56.043243,25.0,0.44539899569536573,0.1635639458812494,0.25339066001230187
0082,cdot_cos,Q,P-Q,241,48,40094,-0.01251967199720425,-0.01317033954725053,-0.07820507503978791,0.123995399774799,837.0,8.683096714525446,0.6362956299804164,9.877984326922245,-0.07982237195615888,0.135,0.9999999999954405,1351.0643383459853,1.1971022625815355,241,2026-10-07 23:01:56.178244,25.0,0.08957108514804268,0.4238429442586772,0.20427944203387885
0082,cdot_cos,R,Q-R,242,48,40129,0.07159978378249289,0.24601830317348877,0.08411945577969714,0.8911931018664201,837.0,8.769956584800715,0.6373194489095502,9.914383896407994,-0.2527644815649216,0.035,0.9999999999954109,-168.91864829564432,1.2020693905212168,242,2026-10-07 23:01:56.213243,25.0,0.5044923631357263,1.6583427313193764,2.4817105792934053
0082,cdot_cos,S,R-S,243,48,40186,0.0001890122620025621,-0.001258723385245846,-0.07141077152049033,0.14365370249128914,837.0,8.799180705717802,0.6374843646948422,9.937417807557718,-0.0855918597588474,0.057,0.9999999999953151,1013.6847816604859,1.2070365662381877,243,2026-10-07 23:01:56.270243,25.0,0.14182846772033855,0.41809354560169976,0.5127038757383711
0082,cdot_cos,T,S-T,244,48,40423,-0.21548674327304987,-0.14490276912341413,-0.21567575553505244,0.0045327026998101825,837.0,8.817619248999309,0.6374895677532938,9.9579254810552,-0.05414916346014109,0.237,0.999999999995207,6043.118022013753,1.2120041254197809,244,2026-10-07 23:01:56.507244,25.0,0.5595243775619738,0.24084387297521692,0.07779976068146256
0082,cdot_cos,P,T-P,245,49,40796,0.060291049219409705,0.0015911286920020542,0.2757777924924596,0.9989876264934738,845.0,8.913340701508055,0.6386355111144508,9.996247413086163,-0.282542675394301,0.373,0.9999999999951885,-199.30610855283152,1.2169719797376004,245,2026-10-07 23:01:56.880243,25.0,0.44559246669687796,0.16504740853645364,0.256625878039534
0082,cdot_cos,Q,P-Q,246,49,40934,-0.01999137434884736,-0.02056902299462243,-0.08028242356825707,0.11846359630704072,845.0,8.940744615767503,0.6387712969734782,10.018757516808463,-0.08143707296991153,0.138,0.9999999999950745,1481.0496753112013,1.2219393294263199,246,2026-10-07 23:01:57.018244,25.0,0.08463053863013385,0.41829873233225007,0.19857908883658124
0082,cdot_cos,R,Q-R,247,49,40968,0.0658538078476285,0.23129912532111455,0.08584518219647586,0.8953065441454783,845.0,9.028791151631756,0.6397968008084367,10.05521741623163,-0.2630163423499463,0.034,0.999999999995044,-177.06347181762362,1.2269064540769363,247,2026-10-07 23:01:57.052243,25.0,0.5013892294660405,1.7493739768483523,2.5896039960074355
0082,cdot_cos,S,R-S,248,49,41010,4.329735342863554e-05,-0.0018609355446725063,-0.06581051049419986,0.1617502290892213,845.0,9.059702046193191,0.6399819374023012,10.078467058645371,-0.09292877685726939,0.042,0.9999999999949448,918.7139178822902,1.231873597369146,248,2026-10-07 23:01:57.094244,25.0,0.16036540741690022,0.6048609922672875,0.73597368003417
0082,cdot_cos,T,S-T,249,49,41261,-0.15353065442849426,-0.03680718710695252,-0.1535739517819229,0.02105476513142045,845.0,9.079599474982208,0.6400060332708241,10.099146332322324,-0.059984810755088,0.251,0.9999999999948325,1367.2039283827485,1.2368412019285353,249,2026-10-07 23:01:57.345243,25.0,0.5774085897714574,0.23136102844930276,0.0792726246574383
0082,cdot_cos,P,T-P,250,50,41641,0.04789713836058535,0.0020004753844881417,0.2014277927890796,0.9935403197158633,836.0,9.175845282474741,0.6411422743165752,10.13737137175329,-0.2916049530403019,0.38,0.9999999999948121,-203.8477162494082,1.2418090967375728,250,2026-10-07 23:01:57.725244,25.0,0.4519000434081669,0.16244215617692584,0.25327844076982364
0082,cdot_cos,Q,P-Q,251,50,41780,-0.034615719108264865,-0.036133122964085065,-0.08251285746885022,0.11276324327696628,836.0,9.203055513676672,0.641271133823044,10.159668092000064,-0.08298585552602891,0.139,0.9999999999946917,1618.9655170283986,1.2467764554518745,251,2026-10-07 23:01:57.864243,25.0,0.08095097846225591,0.4225424854981941,0.19575705900669543
0082,cdot_cos,R,Q-R,252,50,41814,0.05910073203841276,0.219696448256646,0.09371645114667762,0.912369126466069,836.0,9.29331209344324,0.6423129867895881,10.196425431177872,-0.27666812087949255,0.034,0.9999999999946609,-185.90172660919268,1.2517435789100553,252,2026-10-07 23:01:57.898243,25.0,0.49655913384705147,2.1495404392337005,2.6546052872519796
0082,cdot_cos,S,R-S,253,50,41854,0.05502220735586538,-0.08106814362343862,-0.00407852468254738,0.4745312823236231,836.0,9.349224263544563,0.6428543333736627,10.225247013317901,-0.17262883104761262,0.04,0.9999999999945901,192.1861020139912,1.2567107173411518,253,2026-10-07 23:01:57.938244,25.0,0.5473448638431169,0.9539930737725966,1.397804252533108
0082,cdot_cos,T,S-T,254,50,42120,-0.09215292528311231,-0.02920412480153805,-0.1471751326389777,0.024617351456865954,836.0,9.369631539345047,0.6428824069818786,10.245882496906637,-0.06326326304467125,0.266,0.9999999999944729,3895.671947899555,1.2616783748438523,254,2026-10-07 23:01:58.204243,25.0,0.1775083930718161,0.21882330764512323,0.07671908195670453
0082,cdot_cos,P,T-P,255,51,42477,0.059736088268153395,0.0004833821139454483,0.15188901355126572,0.9780592655829442,841.0,9.465638263211769,0.643996989637757,10.283830654090385,-0.29905763840194416,0.357,0.9999999999944494,-211.5539606808682,1.266646246339833,255,2026-10-07 23:01:58.561243,25.0,0.4545451821959337,0.17386901526824777,0.26892639738577634
0082,cdot_cos,Q,P-Q,256,51,42611,-0.01970457334010551,-0.018819202266163588,-0.07944066160825891,0.12067893109364074,841.0,9.493774016246576,0.6441344058581266,10.306174633702561,-0.08820438466423587,0.134,0.9999999999943242,1534.4131367496825,1.2716136019989295,256,2026-10-07 23:01:58.695244,25.0,0.09158318253733472,0.44665497750855077,0.20996830622990115
0082,cdot_cos,R,Q-R,257,51,42645,0.07653386776409518,0.24368395605903362,0.09623844110420068,0.9172807336711956,841.0,9.58534179718406,0.6451781293067045,10.343016588942461,-0.28849269924548027,0.034,0.9999999999942932,-191.89787759789655,1.2765807247551688,257,2026-10-07 23:01:58.729243,25.0,0.4994449848805521,1.771426408050104,2.6931700275730837
0082,cdot_cos,S,R-S,258,51,42685,-7.96561266150698e-06,-0.0020667864903433134,-0.07654183337675668,0.12858301991020082,841.0,9.614231011993983,0.6453243267884387,10.365467907824467,-0.09157585632432656,0.04,0.9999999999941807,1346.9236308680765,1.2815478627740078,258,2026-10-07 23:01:58.769243,25.0,0.11644759129826786,0.596508938303808,0.7222303702480559
0082,cdot_cos,T,S-T,259,51,42935,-0.23620631161126915,-0.17509762722101502,-0.23619834599860765,0.002718484193141365,841.0,9.633062512248365,0.6453274173822688,10.385586329467518,-0.05984210444077596,0.25,0.9999999999940544,10267.849360714416,1.2865154991602767,259,2026-10-07 23:01:59.019244,25.0,0.5884334895275458,0.2349036464600971,0.07532600101752962
0082,cdot_cos,P,T-P,260,52,43318,0.056451874416343924,0.0034273379149659918,0.29265818602761307,0.9993359273115836,885.0,9.731682835224031,0.6464627201573807,10.423923044205594,-0.3148478683066155,0.383,0.9999999999940342,-224.61476308882646,1.2914834569149454,260,2026-10-07 23:01:59.402244,25.0,0.4448877521177758,0.16786258796237843,0.2574943158633581
0082,cdot_cos,Q,P-Q,261,52,43459,-0.016044963832986602,-0.01521346518155564,-0.07249683824933052,0.14034578575823156,885.0,9.761645254627547,0.6466220291365936,10.446524282991712,-0.09627134726642902,0.141,0.9999999999939043,1372.0288844992135,1.2964508360873626,261,2026-10-07 23:01:59.543243,25.0,0.10326865993857773,0.4309753081344007,0.21249942839372865
0082,cdot_cos,R,Q-R,262,52,43493,0.07485702504997056,0.22634907966010553,0.09090198888295717,0.9065779588291064,885.0,9.853217872117932,0.6476503159726414,10.483162112476746,-0.29567132264529433,0.034,0.999999999993871,-193.91474089588567,1.301417957584383,262,2026-10-07 23:01:59.577244,25.0,0.5094633236090539,1.8022628211381366,2.693312279128978
0082,cdot_cos,S,R-S,263,52,43551,0.005908997151994443,-0.0157722671996629,-0.06894802789797612,0.15139510432137215,885.0,9.88419912646494,0.6478219030573014,10.505931741453812,-0.10063556104388492,0.058,0.9999999999937549,1136.6575869504707,1.3063851389105325,263,2026-10-07 23:01:59.635243,25.0,0.1439858587192296,0.43390460542479486,0.5341595577070353
0082,cdot_cos,T,S-T,264,52,43777,-0.19135649967623133,-0.06252090668371094,-0.19726549682822578,0.007163001373907669,885.0,9.903550806347209,0.6478300204630515,10.526017972964029,-0.06301921692794453,0.226,0.9999999999936223,4634.035216896553,1.3113527323457075,264,2026-10-07 23:01:59.861243,25.0,0.5505140760183371,0.26284019265688174,0.0856269021339299
0082,cdot_cos,P,T-P,265,53,44203,0.06070705506796136,0.0047750249921725595,0.2520635547441927,0.9981699657188665,871.0,10.003002893545851,0.6489603507020122,10.564335598813374,-0.3253329943818186,0.426,0.9999999999936015,-232.0682650187818,1.316320823165329,265,2026-10-07 23:02:00.287244,25.0,0.44651013115102967,0.15464406881788548,0.2334556037526817
0082,cdot_cos,Q,P-Q,266,53,44345,-0.003873399571822641,-0.006303795220880788,-0.064580454639784,0.1659632114967716,871.0,10.035307552980047,0.6491481263844064,10.58731294683788,-0.10635012890748426,0.142,0.9999999999934672,1166.193953775966,1.3212882119082754,266,2026-10-07 23:02:00.429244,25.0,0.1275719507953218,0.42189842223401186,0.2274976016492678
0082,cdot_cos,R,Q-R,267,53,44378,0.06428165778365774,0.21025608191119785,0.06815505735548039,0.846040341595606,871.0,10.12282204546031,0.6501046428575418,10.622825045715814,-0.2894645873538356,0.033,0.9999999999934235,-191.43889686094775,1.3262553293000838,267,2026-10-07 23:02:00.462244,25.0,0.5312104015551921,1.8785817184629814,2.651954317583737
0082,cdot_cos,S,R-S,268,53,44437,0.012626215321735659,-0.0318162674664437,-0.05165544246192208,0.21561829792467374,871.0,10.159293946398604,0.6503482240437328,10.646686946485273,-0.12133816839951272,0.059,0.999999999993309,690.227441549822,1.33122251353614,268,2026-10-07 23:02:00.521244,25.0,0.25017312930033414,0.4776235887957725,0.6181678125134482
0082,cdot_cos,T,S-T,269,53,44670,-0.16491084273607892,-0.026802106940438546,-0.17753705805781458,0.011676561704233715,871.0,10.179181628938212,0.6503614126657973,10.66674802082167,-0.06634698566675634,0.233,0.9999999999931688,4169.592734101742,1.336190138912303,269,2026-10-07 23:02:00.754244,25.0,0.43655442886608964,0.25769912745525797,0.08535486068501162
0082,cdot_cos,P,T-P,270,54,45074,0.05618960412618452,-0.0003189842402742119,0.22110044686226343,0.996039872909672,855.0,10.279381739792754,0.6514855866766976,10.705028775783994,-0.33574737521286313,0.404,0.9999999999931457,-239.64296179586964,1.3411582042241232,270,2026-10-07 23:02:01.158243,25.0,0.44825627921790706,0.15798485642137267,0.24802007637262993
0082,cdot_cos,Q,P-Q,271,54,45209,-0.030344913565825023,-0.028551103889721246,-0.08653451769200954,0.10308909268505165,855.0,10.30683339292668,0.6516018415350648,10.72674923931139,-0.0925438133624297,0.135,0.9999999999929974,2091.9862211888885,1.3461255822696783,271,2026-10-07 23:02:01.293243,25.0,0.07222399622503763,0.45273179916883194,0.20334557876982676
0082,cdot_cos,R,Q-R,272,54,45243,0.07021768672208309,0.21479980804964988,0.10056260028790812,0.9251219659809536,855.0,10.401619325568339,0.6526443041160483,10.76371497860496,-0.3209860991947772,0.034,0.9999999999929625,-219.1371565747952,1.3510927008114109,272,2026-10-07 23:02:01.327244,25.0,0.4908144961674827,2.0574399346526175,2.787821548284059
0082,cdot_cos,S,R-S,273,54,45283,0.03951534880487027,-0.07031805773798536,-0.030702337917212816,0.31700749950428225,855.0,10.446739308483059,0.65300118442415,10.789379658268182,-0.15375409747896118,0.04,0.999999999992855,468.59408580251267,1.3560598362756744,273,2026-10-07 23:02:01.367244,25.0,0.33700455593145767,0.832944545969938,1.1279995728679992
0082,cdot_cos,T,S-T,274,54,45528,-0.10065926421020488,-0.021602087768753622,-0.14017461301507517,0.029188278925470365,855.0,10.468254889245934,0.6530340353299905,10.809666133679462,-0.07354919784111863,0.245,0.9999999999927122,2441.482132252029,1.3610275095400775,274,2026-10-07 23:02:01.612243,25.0,0.33605071477978815,0.24782092846567413,0.08781869699132684
0082,cdot_cos,P,T-P,275,55,45929,0.05772336077041538,0.0032920406313189468,0.15838262498062025,0.9812855147316503,879.0,10.568171563431239,0.6541376054393755,10.84767493453062,-0.3430252384666464,0.401,0.9999999999926863,-244.1857008755902,1.3659955983343925,275,2026-10-07 23:02:02.013243,25.0,0.4558522073728062,0.1625869872815962,0.24916876355437717
0082,cdot_cos,Q,P-Q,276,55,46069,-0.016011200257715897,-0.01639560580557976,-0.07373456102813128,0.13665392074376234,879.0,10.598649653045774,0.6542911574966528,10.869931965380259,-0.10526137955302127,0.14,0.9999999999925359,1548.42509523825,1.3709629975157913,276,2026-10-07 23:02:02.153243,25.0,0.1044763216518673,0.44657872491776296,0.21770064010382076
0082,cdot_cos,R,Q-R,277,55,46103,0.07743068008344776,0.23327871018702012,0.09344188034116366,0.9118187606633845,879.0,10.693213606408213,0.6553149041006905,10.906644803599727,-0.3280616695861347,0.034,0.9999999999924978,-217.63226286112155,1.3759301149261414,277,2026-10-07 23:02:02.187244,25.0,0.5070521165121487,1.8282028516817326,2.78129274595408
0082,cdot_cos,S,R-S,278,55,46162,0.00010916516320210498,-0.0013467918695211061,-0.07732151492024567,0.12641471463259307,879.0,10.722967446960132,0.655456723077201,10.928678714787466,-0.10380469893195911,0.059,0.9999999999923596,1581.2902911302938,1.380897300930149,278,2026-10-07 23:02:02.246243,25.0,0.11528199972437249,0.4170222277738501,0.504302382235917
0082,cdot_cos,T,S-T,279,55,46393,-0.2438177879617863,-0.13302935891385473,-0.2439269531249884,0.002241929780627815,879.0,10.742422229285527,0.6554592379474959,10.9483590132013,-0.0680292971628733,0.231,0.9999999999922048,14225.545485039878,1.3858649519742254,279,2026-10-07 23:02:02.477243,25.0,0.591033678197945,0.2635750420458615,0.08421983690647279
0082,cdot_cos,P,T-P,280,56,46808,0.0661050278139212,0.002135118643748067,0.3099228157757075,0.9995686116699836,867.0,10.84473911638532,0.6565796285793811,10.9867103322897,-0.35925260588368035,0.415,0.9999999999921815,-259.93015331696535,1.3908331073757276,280,2026-10-07 23:02:02.892244,25.0,0.4445749624895258,0.16108448539027373,0.24654671590311522
0082,cdot_cos,Q,P-Q,281,56,46944,-0.00503533850469169,-0.006675000273332685,-0.0711403663186129,0.1444873205144251,867.0,10.876122352159454,0.6567414369219916,11.009025320687787,-0.11084973386505387,0.136,0.9999999999920243,1535.1672726578952,1.3958005027178146,281,2026-10-07 23:02:03.028243,25.0,0.10636301942220704,0.4599785314043369,0.23075908657451746
0082,cdot_cos,R,Q-R,282,56,46979,0.07937121345622775,0.24090631176622554,0.08440655196091944,0.8918871284872442,867.0,10.9698532769273,0.6577394358097898,11.04535637958564,-0.33251304142184757,0.035,0.9999999999919819,-222.1077701257139,1.400767621353498,282,2026-10-07 23:02:03.063244,25.0,0.5134357304214072,1.7615459321017568,2.678026421938436
0082,cdot_cos,S,R-S,283,56,47038,0.00020303136065393405,-0.0015153300732440949,-0.07916818209557382,0.12140365861168709,867.0,10.999430567406577,0.6578751757741682,11.067206481972438,-0.10549855364753505,0.059,0.9999999999918361,1672.421889999994,1.4057348078549206,283,2026-10-07 23:02:03.122243,25.0,0.11627169908880128,0.4174909997946742,0.501310008123351
0082,cdot_cos,T,S-T,284,56,47273,-0.22913635353270367,-0.11826735131893525,-0.22933938489335762,0.0032253455714280756,867.0,11.019117214903071,0.6578787816417607,11.086803413940885,-0.07037701673351054,0.235,0.9999999999916737,9740.107203859805,1.4107024845932254,284,2026-10-07 23:02:03.357243,25.0,0.607108114892354,0.261441189744999,0.0837729680701866
0082,cdot_cos,P,T-P,285,57,47675,0.06836028611975883,0.004235280708709024,0.29749663965246254,0.9994115417770031,857.0,11.122307926586727,0.6589952223171235,11.125153423240425,-0.3703671473256903,0.402,0.9999999999916491,-268.70225817838894,1.4156706332073221,285,2026-10-07 23:02:03.759244,25.0,0.44486678498061516,0.1673254288427088,0.2566933126459096
0082,cdot_cos,Q,P-Q,286,57,47819,-0.003940912667246639,-0.006958963414991824,-0.07230119878700547,0.14093691630115077,857.0,11.153646859692609,0.6591525212133003,11.147315251197845,-0.11313854917050897,0.144,0.9999999999914851,1635.2854623093408,1.420638058031329,286,2026-10-07 23:02:03.903244,25.0,0.10294384309423713,0.4178023223797505,0.21763147990195977
0082,cdot_cos,R,Q-R,287,57,47853,0.05835322316864838,0.2168700299918195,0.06229413583589502,0.8259732544443843,857.0,11.242634995432095,0.6600736798537066,11.182392195685193,-0.3225735744458204,0.034,0.9999999999914314,-227.36043075374198,1.4256051722991516,287,2026-10-07 23:02:03.937243,25.0,0.522430765738484,1.8306969565981315,2.61729810998488
0082,cdot_cos,S,R-S,288,57,47890,8.668307455316016e-05,-0.002664285657090887,-0.05826654009409522,0.18897816433584863,857.0,11.278134252741282,0.6602842661401378,11.20543050221252,-0.12935793305646187,0.037,0.9999999999912889,917.5129333621674,1.4305722962922032,288,2026-10-07 23:02:03.974244,25.0,0.22455125891949315,0.7620215962986847,0.9594393867347842
0082,cdot_cos,T,S-T,289,57,48151,-0.16539589707121702,-0.041219570795787974,-0.1654825801457702,0.01571864028207974,857.0,11.299024593558197,0.6603017792263273,11.225165218160303,-0.07631238304220139,0.261,0.9999999999911218,3028.909321885134,1.435540062876769,289,2026-10-07 23:02:04.235244,25.0,0.49901922953316064,0.23872553231034424,0.08003961998818258
0082,cdot_cos,P,T-P,290,58,48532,0.04885670536110742,0.0020716201119690674,0.21425260243232444,0.9953038968224194,842.0,11.402748980607281,0.6614098131367361,11.263438821794296,-0.38039004880788224,0.381,0.9999999999910951,-274.4299275583457,1.440508179885989,290,2026-10-07 23:02:04.616243,25.0,0.4496058986832779,0.17471793076007452,0.272242485693134
0082,cdot_cos,Q,P-Q,291,58,48673,-0.03268020200342692,-0.03482060513285667,-0.08153690736453434,0.115227441954703,842.0,11.432159656797374,0.6615379775120466,11.285029064866457,-0.10847086699800568,0.141,0.9999999999909212,2121.6440305749943,1.4454756036844858,291,2026-10-07 23:02:04.757244,25.0,0.0815253977553768,0.447869960087722,0.2085863559581046
0082,cdot_cos,R,Q-R,292,58,48707,0.05999166050749382,0.22576821831131808,0.09267186251092074,0.9102586023573833,842.0,11.529048309352019,0.6625495994330288,11.321689333020494,-0.3587892724275664,0.034,0.9999999999908794,-247.44264654378927,1.450442716644195,292,2026-10-07 23:02:04.791244,25.0,0.4977410694056851,2.2476460909614167,2.8496662516072013
0082,cdot_cos,S,R-S,293,58,48746,0.04807685172314428,-0.07422525105153759,-0.011914808784349543,0.426078208069186,842.0,11.58499959098275,0.6630226141566593,11.349155868721008,-0.20842931731983044,0.039,0.9999999999907694,317.8758452880562,1.455409845745565,293,2026-10-07 23:02:04.830244,25.0,0.48607350534265553,0.9971045083751334,1.434648246941833
0082,cdot_cos,T,S-T,294,58,48989,-0.09961933362560496,-0.03125621050973204,-0.14769618534874923,0.024306501475110643,842.0,11.60682246100528,0.6630495884165976,11.368969027665726,-0.08156487048828062,0.243,0.9999999999905972,4703.166912529496,1.460377579687107,294,2026-10-07 23:02:05.073244,25.0,0.2111089425600428,0.25765981385159326,0.08980604947542764
0082,cdot_cos,P,T-P,295,59,49374,0.05769651441001135,0.004212743680401957,0.15731584803561632,0.9807894123091085,851.0,11.710222260514625,0.664137136855454,11.406967358200706,-0.38793268185247104,0.385,0.9999999999905693,-281.7049801352768,1.4653457409076456,295,2026-10-07 23:02:05.458244,25.0,0.453960639303819,0.17572267973199054,0.2685709078164816
0082,cdot_cos,Q,P-Q,296,59,49516,-0.014499983191080803,-0.016751354242883053,-0.07219649760109215,0.14125412825867842,851.0,11.742128924398912,0.6642936235458624,11.428978101262311,-0.12037365894661106,0.142,0.9999999999903938,1709.787728320367,1.470313177097603,296,2026-10-07 23:02:05.600243,25.0,0.10831221852941186,0.4467871256568161,0.22469481608653039
0082,cdot_cos,R,Q-R,297,59,49551,0.06445802450233981,0.24493842407383984,0.07895800769342061,0.8780347702388965,851.0,11.83710980420116,0.6652655337868967,11.465017349773102,-0.3597533272395257,0.035,0.9999999999903463,-246.29812320752612,1.4752802922120174,297,2026-10-07 23:02:05.635243,25.0,0.5140681390084263,1.8453424763253066,2.713739422921384
0082,cdot_cos,S,R-S,298,59,49595,5.077671348335348e-05,-0.0007511578793497111,-0.06440724778885645,0.1665634585913143,851.0,11.871302897741684,0.6654497476535456,11.48748249068419,-0.13018514665549213,0.044,0.999999999990189,1246.2046683030987,1.4802474358983841,298,2026-10-07 23:02:05.679244,25.0,0.17146130895267622,0.6196360325820626,0.7771157622846142
0082,cdot_cos,T,S-T,299,59,49849,-0.21132509354636436,-0.13645443201478047,-0.21137587025984772,0.00504451362764006,851.0,11.891637775068382,0.6654553259380482,11.506837103215288,-0.07759956352042532,0.254,0.9999999999900075,9426.837786794149,1.4852152197961337,299,2026-10-07 23:02:05.933243,25.0,0.5078073788379723,0.24831558550335867,0.0800585721523562
0082,cdot_cos,P,T-P,300,60,50225,0.06063450903407076,0.0017601853844424712,0.2719596025804351,0.9988863410618773,827.0,11.99744721517739,0.6665589937272082,11.545179878747954,-0.4052517236258133,0.376,0.9999999999899812,-296.8757114446396,1.4901833819084056,300,2026-10-07 23:02:06.309243,25.0,0.44551910218429736,0.18078496574810207,0.28140808539629714
0082,cdot_cos,Q,P-Q,301,60,50361,-0.019876933762511536,-0.020717485249819565,-0.0805114427965823,0.11786698941843822,827.0,12.027588069310955,0.666689104712576,11.566664138792827,-0.11607441076571945,0.136,0.9999999999897962,2222.5434081719554,1.4951508074187967,301,2026-10-07 23:02:06.445244,25.0,0.08280144519211789,0.46745482208088157,0.2216239274526841
0082,cdot_cos,R,Q-R,302,60,50396,0.0647965204079415,0.24501865964753597,0.08467345417045304,0.8925288457465186,827.0,12.12459492678339,0.66767352404492,11.602969526164966,-0.3749999793034533,0.035,0.9999999999897499,-263.0236526554401,1.5001179213405338,302,2026-10-07 23:02:06.480243,25.0,0.5013412756521082,1.9290780434920811,2.7716244992124213
0082,cdot_cos,S,R-S,303,60,50455,0.011279911496271432,-0.02459905378937206,-0.053516608911670066,0.20785310846830538,827.0,12.1626235323554,0.6679025670019945,11.626150746164656,-0.14777828647682234,0.059,0.9999999999895947,992.0483726235485,1.5050851116077617,303,2026-10-07 23:02:06.539244,25.0,0.21489943387122204,0.5001387818516317,0.6445526368137446
0082,cdot_cos,T,S-T,304,60,50687,-0.16948161788083171,-0.06496696719673382,-0.18076152937710316,0.010781983153965582,827.0,12.183611303041882,0.6679144460027389,11.645527169692564,-0.08175482858947435,0.232,0.9999999999894059,5557.997621852972,1.5100528444457144,304,2026-10-07 23:02:06.771244,25.0,0.4459365078014434,0.2747255813499802,0.09046452882104142
0082,cdot_cos,P,T-P,305,61,51052,0.05877754550840312,0.0031877587823234167,0.22825916338923483,0.9966866579891436,828.0,12.290096202101791,0.6690116167964604,11.683827030701503,-0.4162722536538599,0.365,0.9999999999893807,-304.8909312739995,1.5150210007045475,305,2026-10-07 23:02:07.136243,25.0,0.44771316727363986,0.18598053409247609,0.2917394494792033
0082,cdot_cos,Q,P-Q,306,61,51195,-0.026829663531941977,-0.03045524852950549,-0.08560720904034509,0.10525241564871901,828.0,12.31937709292939,0.6691273736290417,11.704991044842329,-0.11508011293868961,0.143,0.9999999999891875,2601.9383391773235,1.5199884563080304,306,2026-10-07 23:02:07.279244,25.0,0.07300416132810127,0.4393053207890622,0.20476147431886943
0082,cdot_cos,R,Q-R,307,61,51229,0.051400580953068924,0.22921562175599328,0.0782302444850109,0.8760729320246119,828.0,12.415737523847463,0.670090085300787,11.740969551353972,-0.3800882742096583,0.034,0.9999999999891385,-275.27261697217966,1.5249555659806204,307,2026-10-07 23:02:07.313244,25.0,0.49796378193105834,2.4528700768006235,2.8341303211198072
0082,cdot_cos,S,R-S,308,61,51267,0.06369054795348676,-0.07849607710708678,0.012289967000417838,0.5762136743400464,828.0,12.486172258151832,0.6707225073255334,11.771174989595005,-0.27942665894717233,0.038,0.9999999999890435,159.1684212814115,1.529922690064365,308,2026-10-07 23:02:07.351244,25.0,0.6975065183574313,1.2208199244159401,1.8535456395886571
0082,cdot_cos,T,S-T,309,61,51524,-0.08454941634561206,-0.03297185703084383,-0.1482399642990988,0.023986175493706057,828.0,12.508519838103075,0.6707488199176515,11.790731065498223,-0.08898359307808226,0.257,0.9999999999888537,7237.71588198839,1.5348905235447423,309,2026-10-07 23:02:07.608243,25.0,0.11763081211693256,0.24695529668172703,0.08695556401261666
0082,cdot_cos,P,T-P,310,62,51880,0.0476617774419371,3.2956425888216194e-05,0.13221119378754914,0.9646094969618132,806.0,12.61310728064624,0.6718060982613857,11.828410407508093,-0.4178736163889598,0.356,0.9999999999888213,-311.07231625425453,1.5398586834383337,310,2026-10-07 23:02:07.964243,25.0,0.4551827890638806,0.18882864671656963,0.29378495096394724
0082,cdot_cos,Q,P-Q,311,62,52015,-0.03647797459757306,-0.0388370503894082,-0.08413975203951016,0.10875770572778223,806.0,12.642965834565272,0.6719251952291574,11.84957439186106,-0.11991469275297527,0.135,0.9999999999886245,2501.817881771736,1.5448261232086784,311,2026-10-07 23:02:08.099244,25.0,0.08334576934644766,0.48380486946265167,0.22117447347431377
0082,cdot_cos,R,Q-R,312,62,52048,0.05962738962817659,0.23176416074629333,0.09610536422574964,0.9170279468136686,806.0,12.743734595401156,0.6729285215116637,11.88633235383838,-0.4061504574877172,0.033,0.9999999999885822,-285.2868201755077,1.5497932290404002,312,2026-10-07 23:02:08.132244,25.0,0.49423062031333176,2.553759440113806,3.053598813208594
0082,cdot_cos,S,R-S,313,62,52097,0.06589317395910221,-0.0848146021948512,0.006265784330925624,0.5390812715635337,806.0,12.811513957612783,0.6735175971684046,11.915787456456199,-0.2747449016748211,0.049,0.999999999988479,223.07076231922147,1.5547603896112225,313,2026-10-07 23:02:08.181243,25.0,0.6198473420960892,0.919674285721096,1.3832522900332165
0082,cdot_cos,T,S-T,314,62,52347,-0.08667666700367052,-0.03992779870389987,-0.15256984096277273,0.021578438479404445,806.0,12.833862675401823,0.6735411654108051,11.935224725565464,-0.09090727894866106,0.25,0.9999999999882825,7800.226236749549,1.559728221803188,314,2026-10-07 23:02:08.431243,25.0,0.1323567756505819,0.2572283159591251,0.08939487115615918
0082,cdot_cos,P,T-P,315,63,52686,0.057839574186962214,0.0015042736021408261,0.14451624119063272,0.9737351046397553,796.0,12.940128115592346,0.6746037773912805,11.973074837044933,-0.43368869416827993,0.339,0.999999999988252,-322.58380435938426,1.5646963569517385,315,2026-10-07 23:02:08.770243,25.0,0.45366970463336875,0.20199676313533654,0.31346737519328244
0082,cdot_cos,Q,P-Q,316,63,52820,-0.023759305202416543,-0.025145627975256605,-0.08159887938937876,0.11506958476936538,796.0,12.970816480807581,0.6747292315334186,11.994295727629124,-0.1258854405247022,0.134,0.9999999999880508,2453.5120833624956,1.5696638032730748,316,2026-10-07 23:02:08.904243,25.0,0.0867169371117054,0.4836965307560356,0.22901765085996592
0082,cdot_cos,R,Q-R,317,63,52855,0.05861266080192479,0.2555248141067112,0.08237196600434132,0.8868838791232774,796.0,13.069758785834964,0.6756953113163899,12.030459834370799,-0.40726756159295663,0.035,0.9999999999880039,-291.2617839934606,1.5746309153471871,317,2026-10-07 23:02:08.939244,25.0,0.501123669044237,2.0105208553574068,2.8269230007823456
0082,cdot_cos,S,R-S,318,63,52914,0.012350179965217386,-0.02171793542879409,-0.0462624808367074,0.239292545028491,796.0,13.1115529406826,0.675955716185381,12.05406401378527,-0.17289131258380933,0.059,0.9999999999878417,900.0455710266071,1.5795981108482953,318,2026-10-07 23:02:08.998244,25.0,0.25778543683857874,0.5372701951923089,0.708375505892142
0082,cdot_cos,T,S-T,319,63,53145,-0.16645103007905326,-0.16910589414746818,-0.17880121004427066,0.01131741940630777,796.0,13.133156668867656,0.6759680294229595,12.073222037655237,-0.08958369096992135,0.231,0.9999999999876362,6765.6959497789085,1.5845658963201772,319,2026-10-07 23:02:09.229243,25.0,0.3945766618093225,0.28285369880504574,0.09352263283574055
0082,cdot_cos,P,T-P,320,64,53482,0.05464963753045642,0.0032355203379694965,0.2211006676095097,0.996039894677744,799.0,13.242231349530531,0.6770507551849329,12.111499703986944,-0.4537549034473178,0.337,0.9999999999876114,-336.3466773097514,1.5895340513384426,320,2026-10-07 23:02:09.566243,25.0,0.44817454569162113,0.2088827378302439,0.32366374083939187
0082,cdot_cos,Q,P-Q,321,64,53621,-0.023563020218066378,-0.026605321163701717,-0.0782126577485228,0.1239748102943928,799.0,13.27394363416524,0.6771853871317448,12.13282225631584,-0.13259985475230424,0.139,0.9999999999874076,2385.4297312032018,1.5945015233272382,321,2026-10-07 23:02:09.705244,25.0,0.0887451563031756,0.46499436730731836,0.22814593262380803
0082,cdot_cos,R,Q-R,322,64,53655,0.04995493521792785,0.25352738291469146,0.07351795543599422,0.8627059451394532,799.0,13.371499783641966,0.6781214387593573,12.16850312636403,-0.40927964513917126,0.034,0.9999999999873552,-295.5817630407648,1.5994686311459543,322,2026-10-07 23:02:09.739244,25.0,0.5086391295966394,2.1716482699023487,2.869298514021329
0082,cdot_cos,S,R-S,323,64,53713,0.021444481814411786,-0.031284702753670915,-0.028510453403516062,0.32898897342903183,799.0,13.4216157165186,0.6784780219878432,12.19379219013343,-0.21129484023630324,0.058,0.9999999999872061,555.2274731021337,1.604435824670343,323,2026-10-07 23:02:09.797244,25.0,0.39179862359496437,0.6169531907056415,0.8640678082178365
0082,cdot_cos,T,S-T,324,64,53945,-0.17281791922433698,-0.09163652501942354,-0.19426240103874876,0.007717173331431303,799.0,13.44306635376382,0.6784863839513383,12.212804004256242,-0.09067903528476792,0.232,0.9999999999869945,14424.340051543239,1.6094036314853968,324,2026-10-07 23:02:10.029243,25.0,0.26444025761146284,0.28319756978863136,0.09245964329836161
0082,cdot_cos,P,T-P,325,65,54281,0.05168114526377001,0.002577763445834603,0.224499064488107,0.9963612751451878,801.0,13.553019388900525,0.6795650314343761,12.251082556105644,-0.4662532658300758,0.336,0.9999999999869702,-348.1899660930824,1.6143718107971474,325,2026-10-07 23:02:10.365243,25.0,0.4468575140506097,0.20793562621480258,0.3272411760020984
0082,cdot_cos,Q,P-Q,326,65,54422,-0.036347232860812914,-0.03830893143386389,-0.08802837812458292,0.099686798084825,801.0,13.582799094580167,0.6796728457639936,12.271863531004042,-0.12691148873013927,0.141,0.9999999999867565,3147.464518899228,1.6193392989861126,326,2026-10-07 23:02:10.506243,25.0,0.06898639244568629,0.4621903664009583,0.2112035863804417
0082,cdot_cos,R,Q-R,327,65,54454,0.0463749297260612,0.22559893392496055,0.08272216258687412,0.8877592092644844,801.0,13.683357072225595,0.680632137584894,12.308018257434304,-0.42991939212953617,0.032,0.9999999999867089,-315.86624299054614,1.6243063988410715,327,2026-10-07 23:02:10.538244,25.0,0.4942065829868639,2.8981688491915567,3.1424368014196236
0082,cdot_cos,S,R-S,328,65,54495,0.08250984136233265,-0.09061938711271832,0.03613491163627145,0.7116421187479152,801.0,13.768281900928427,0.6814000190408543,12.340730305502198,-0.3650848772081359,0.041,0.9999999999866335,84.43297388959557,1.6292735328987569,328,2026-10-07 23:02:10.579243,25.0,0.8372877236145712,1.310765379850266,2.071337285434919
0082,cdot_cos,T,S-T,329,65,54742,-0.07837336574726704,-0.03836714383110698,-0.1608832071095997,0.01760033677569476,801.0,13.790839833373317,0.6814189978304867,12.35987231026498,-0.09735161837817054,0.247,0.9999999999864203,14106.972257820598,1.6342414160692518,329,2026-10-07 23:02:10.826244,25.0,0.06391715294322305,0.262221758949742,0.09132766172020294
0082,cdot_cos,P,T-P,330,66,55082,0.04242070605067552,-0.0009131749151816973,0.12079407179794256,0.9534629498685302,781.0,13.8978194498496,0.6824462348739168,12.397303383690994,-0.46305388776658574,0.34,0.9999999999863868,-356.0057259688353,1.6392096430062375,330,2026-10-07 23:02:11.166244,25.0,0.45395291645078617,0.20080663888293193,0.3146459308125953
0082,cdot_cos,Q,P-Q,331,66,55211,-0.04806408666165591,-0.04490652458188857,-0.09048479271233142,0.09430914907354077,781.0,13.92738834781371,0.682547744901435,12.417920829633415,-0.1285964369109144,0.129,0.9999999999861672,3294.821792808443,1.6441770984532125,331,2026-10-07 23:02:11.295244,25.0,0.07421196835235812,0.5255265699964144,0.2292162632876847
0082,cdot_cos,R,Q-R,332,66,55244,0.06135753481478256,0.2316448725189481,0.10942162147643847,0.9390915203860352,781.0,14.033405304908674,0.6835575916460921,12.455065368731546,-0.46252736770894554,0.033,0.9999999999861295,-330.6748598881916,1.6491442016012003,332,2026-10-07 23:02:11.328243,25.0,0.485794248410032,2.7787343847758406,3.212635063483746
0082,cdot_cos,S,R-S,333,66,55286,0.08105753557857631,-0.09999922865043881,0.019700000763793753,0.6206951958599056,781.0,14.110784817208916,0.6842241046993961,12.485971514110119,-0.3394181478303342,0.042,0.9999999999860343,184.7063898723964,1.6541113399273453,333,2026-10-07 23:02:11.370244,25.0,0.6957905126251643,1.189180316725002,1.8423693404819492
0082,cdot_cos,T,S-T,334,66,55538,-0.08697210279959147,-0.044929325569258785,-0.16802963837816778,0.014763250342266823,781.0,14.133296451513575,0.6842399485229343,12.504994715261457,-0.0990933481539091,0.252,0.9999999999858155,15168.3587674522,1.6590792644892358,334,2026-10-07 23:02:11.622243,25.0,0.08845720105946069,0.26253794723619783,0.08933188216134247
0082,cdot_cos,P,T-P,335,67,55863,0.0599569765217843,0.0019837226373770004,0.14692907932137578,0.9752345140989451,793.0,14.24310394261596,0.6852856143912694,12.542840279916433,-0.4847527072362314,0.325,0.9999999999857861,-368.81701006112587,1.6640474678796433,335,2026-10-07 23:02:11.947244,25.0,0.4513195797122538,0.21734235706017666,0.3378692033919551
0082,cdot_cos,Q,P-Q,336,67,55999,-0.02277288423827308,-0.02344580398590518,-0.08272986076005738,0.11222161547911565,793.0,14.27456898360269,0.6854058204609039,12.563751430813376,-0.13956761872164855,0.136,0.999999999985566,2871.6111388070867,1.6690149600089976,336,2026-10-07 23:02:12.083244,25.0,0.08431072127529236,0.48744583143355735,0.2313605954906575
0082,cdot_cos,R,Q-R,337,67,56033,0.05549025159173451,0.2553228979666189,0.07826313583000759,0.8761621790550057,793.0,14.375689208765888,0.6863434656652527,12.599646730793921,-0.4498887728690449,0.034,0.9999999999855145,-330.9579707848187,1.6739820665338043,337,2026-10-07 23:02:12.117243,25.0,0.5016899111885225,2.1964366920041867,2.974124269505829
0082,cdot_cos,S,R-S,338,67,56072,0.020610156885054166,-0.030029901378547035,-0.03488009470668035,0.29483782182745194,793.0,14.423926678658974,0.686658651717835,12.624121278756522,-0.2156120810423079,0.039,0.9999999999853474,743.296506642113,1.678949193546103,338,2026-10-07 23:02:12.156243,25.0,0.3373731469267363,0.9048187253984844,1.236858202386834
0082,cdot_cos,T,S-T,339,67,56319,-0.15889979996295767,-0.13718845058886003,-0.17950995684801183,0.011120866320597991,793.0,14.44626506934697,0.6866705367204378,12.643001030561539,-0.10009114057191602,0.247,0.999999999985122,9719.89189499659,1.6839171186558541,339,2026-10-07 23:02:12.403244,25.0,0.31532308505295814,0.2727543621271581,0.09043882869633707
