record_id,input,event,transition,event_index,k,peak,value_cos,value_sin,value_return,x_input,rr,knowledge,decision,decision_norm,entropy,delta_t,cosine_similarity,delta_h_over_delta_d,frobenius_norm,matrix_size,timestamp,scale,P,zdot,zdot_back
1112,cdot_cos,Q,P-Q,1,0,1142,-0.0024192027068599456,-0.0026608376233139383,-0.02663011305635177,0.21694289717838067,937.0,0.001077586074237623,0.5002693964924909,0.5002693964924909,,,1.0,,0.004967141530112327,1,2026-10-07 19:31:17.226244,48.2,,,
1112,cdot_cos,R,Q-R,2,0,1164,0.09867345154754473,0.16146270837740812,0.10109265425440467,0.9924051867800542,937.0,0.008495185242194638,0.5015017462572888,0.7092305711108484,-1.2805061823738695e-05,,0.9999999999999999,,0.009934283060224654,2,2026-10-07 19:31:17.248243,48.2,,,
1112,cdot_cos,S,R-S,3,0,1223,-0.00019592190217630217,-0.0010592316583626024,-0.09886937344972103,0.008446641964237313,937.0,0.01047710390223363,0.5015122350785289,0.8686446717734387,-6.780881278996419e-06,0.059,0.9999999999999998,0.5743429511132586,0.014901424598865998,3,2026-10-07 19:31:17.307244,48.2,0.41131056089052437,0.030555909391383168,0.03359184169557613
1112,cdot_cos,T,S-T,4,0,1434,-0.16930130354212042,0.08824897836273299,-0.16910538163994412,0.00028839836118670553,937.0,0.012100782550377852,0.5015125932041214,1.0030251864089579,-6.610951051457267e-06,0.211,0.9999999999999999,0.4744989777079017,0.019868566161410535,4,2026-10-07 19:31:17.518244,48.2,0.9746231902548095,0.03354877640365802,0.007695159469877831
1112,cdot_cos,P,T-P,5,1,1954,0.01908703855378949,0.0016766405619603123,0.1883883420959099,0.9998861275923951,921.0,0.024634687544577313,0.5027542139385358,1.124192598345131,-8.303159379522485e-05,0.52,1.0000000000000002,-0.06154910322097118,0.02483570786498262,5,2026-10-07 19:31:18.038244,48.2,0.39836751532924014,0.017454630443931654,0.02410366345038358
1112,cdot_cos,Q,P-Q,6,1,2081,-0.0016993287901965251,-0.0019603325477812114,-0.020786367343986017,0.2685674518872436,921.0,0.030253598212066773,0.5030877056803434,1.232308174798435,-5.561600434297054e-05,0.127,1.0,0.08220770116720984,0.02980284945479891,6,2026-10-07 19:31:18.165244,48.2,0.6108253226891585,0.08297663258405451,0.04424339108259418
1112,cdot_cos,R,Q-R,7,1,2103,0.09761085955556259,0.16666496885697396,0.09931018834575911,0.9917294643726052,921.0,0.04571075222092716,0.5043191526471413,1.3343030593359626,-0.00021173444077321213,0.022,1.0000000000000002,-0.12677641883043797,0.034769990973145384,7,2026-10-07 19:31:18.187244,48.2,0.4783888764665322,0.4258702042483743,0.702597909493654
1112,cdot_cos,S,R-S,8,1,2162,-0.00016437964080308535,-0.0011225586933288642,-0.09777523919636567,0.008899979107187046,921.0,0.04899188719899524,0.5043302036842959,1.4264612279565803,-5.603226228395123e-05,0.059,1.0,14.089372455371196,0.03973713257565634,8,2026-10-07 19:31:18.246243,48.2,0.062113299729993736,0.05300904126063955,0.05561245725539124
1112,cdot_cos,T,S-T,9,1,2372,-0.18437287253811493,0.07531708076204607,-0.18420849289731184,0.0001392849598759892,921.0,0.051965819089682626,0.50433037663335,1.5129911299421055,-5.414052564621201e-05,0.21,1.0,10.938114971623197,0.044704274449923434,9,2026-10-07 19:31:18.456243,48.2,0.9656621651497269,0.05117094929814416,0.014161580431844687
1112,cdot_cos,P,T-P,10,2,2875,0.027454998671351732,0.002521729296006202,0.21182787120946667,0.9999632046907992,897.0,0.07048368590421579,0.5055719939244585,1.598759022097679,-0.0004088637469016955,0.503,1.0,-0.28569449201113456,0.04967141711981932,10,2026-10-07 19:31:18.959244,48.2,0.41996539513947273,0.02501825709186958,0.036814844561696154
1112,cdot_cos,Q,P-Q,11,2,3002,-0.0019783718338563664,-0.0023862725404472603,-0.029433370505208098,0.19486727428716324,897.0,0.07713418572410342,0.5058139458818484,1.6775950724816382,-0.0001770186618062529,0.127,1.0,0.9582277721435232,0.054638558898977285,11,2026-10-07 19:31:19.086244,48.2,0.26989530652933474,0.10670873344635437,0.05236614031407586
1112,cdot_cos,R,Q-R,12,2,3024,0.092063700719284,0.17207044085838596,0.09404207255314037,0.9893641058385483,897.0,0.0975877041995898,0.5070423200843883,1.7564461202696597,-0.0006443379862348804,0.022,1.0000000000000002,-0.3804372669682671,0.059605700349034965,12,2026-10-07 19:31:19.108243,48.2,0.48419358365279613,0.5601582306197846,0.9297053852493808
1112,cdot_cos,S,R-S,13,2,3082,-6.745481205473782e-05,-0.0005639941909374278,-0.09213115553133874,0.011650103737253776,897.0,0.10178114787137395,0.5070567841371086,1.828219235103976,-0.0001507391829877015,0.058,1.0000000000000002,34.125899067952325,0.06457284202354145,13,2026-10-07 19:31:19.166244,48.2,0.03783494190863303,0.06927272723840588,0.07230075296179564
1112,cdot_cos,T,S-T,14,2,3292,-0.26550929267475654,0.04255733461602401,-0.2654418378627018,2.776555682496709e-06,897.0,0.10562334055924488,0.507056787584308,1.8972327751477167,-0.00014367967163188551,0.21,0.9999999999999999,2047.8975847730853,0.06953998448639949,14,2026-10-07 19:31:19.376243,48.2,0.9520538483309907,0.06377864539686956,0.018296155656528264
1112,cdot_cos,P,T-P,15,3,3772,0.0177815352070016,0.0010998815572930037,0.28329082788175813,0.9999988254425016,1139.0,0.12856817893805916,0.5082982780843173,1.968630766492234,-0.0009687708850896093,0.48,0.9999999999999998,-0.6645972832265743,0.07450712876103326,15,2026-10-07 19:31:19.856243,48.2,0.42669376643780144,0.03387251245841481,0.047801746622529756
1112,cdot_cos,Q,P-Q,16,3,3901,-0.002897285292834611,-0.0024383739240477335,-0.02067882049983621,0.2695869647936773,1139.0,0.1381409525193231,0.5086329512568949,2.034531806074156,-0.0004602891487398469,0.129,0.9999999999999998,1.5193382022032904,0.07947427090312442,16,2026-10-07 19:31:19.985244,48.2,0.33131003458892383,0.13244059572588532,0.07420754714158087
1112,cdot_cos,R,Q-R,17,3,3923,0.10121200800120463,0.1156258751073476,0.10410929329403924,0.9934262013863099,1139.0,0.16273785263533758,0.5098661506000021,2.102231995067796,-0.0013340969577276575,0.022,0.9999999999999999,-0.7085697976339839,0.08444141225479777,17,2026-10-07 19:31:20.007244,48.2,0.5194520685456202,0.6697865762557551,1.1180409143642946
1112,cdot_cos,S,R-S,18,3,3981,-0.0004577715263914595,-0.0010269424284540436,-0.10166977952759608,0.007387995724436669,1139.0,0.16761156187457632,0.509875321329636,2.163217784857757,-0.00029023398399083053,0.058,0.9999999999999999,113.82550957306798,0.08940855404114878,18,2026-10-07 19:31:20.065243,48.2,0.027416079643686083,0.08313096719379749,0.0840294696420473
1112,cdot_cos,T,S-T,19,3,4190,-0.10006596409121882,0.13228772930541638,-0.09960819256482736,0.008153550081975365,1139.0,0.1723810448298181,0.5098854423352702,2.222539117253581,-0.0002923179824898166,0.209,0.9999999999999999,-0.20590824413087666,0.09437569741337072,19,2026-10-07 19:31:20.274244,48.2,0.9928961350103178,0.07513740167063938,0.02282049260881228
1112,cdot_cos,P,T-P,20,4,4911,0.02478503066880871,0.000705638825616583,0.12485099476002753,0.9975709376607819,1119.0,0.19901899577290358,0.5111236639384638,2.285814516760578,-0.0017832503138445444,0.721,0.9999999999999994,-1.2040916807697586,0.0993428470641788,20,2026-10-07 19:31:20.995244,48.2,0.4334079948901923,0.02497542388909097,0.03694584042036823
1112,cdot_cos,Q,P-Q,21,4,5041,-0.004496552812043424,-0.003925025173618643,-0.029281583480852132,0.19601769510803402,1119.0,0.20839560607788726,0.5113669527176343,2.343377772325794,-0.0006885611169463542,0.13,0.9999999999999994,4.49954659080559,0.10430998958576705,21,2026-10-07 19:31:21.125243,48.2,0.20396203670268845,0.14369788058316174,0.07212777157679758
1112,cdot_cos,R,Q-R,22,4,5063,0.09230533530410741,0.10997037503139735,0.09680188811615083,0.9906765097795338,1119.0,0.23638044472452563,0.512596453264623,2.404290486762748,-0.0022432259841219785,0.022,0.9999999999999996,-1.2644686258850029,0.1092771306643609,22,2026-10-07 19:31:21.147244,48.2,0.5000492393445075,0.7623169933662406,1.272038120301744
1112,cdot_cos,S,R-S,23,4,5121,-0.0024811240283120666,-0.007033328465078065,-0.09478645933241947,0.010264896781068903,1119.0,0.24193755378600185,0.5126091919650441,2.4583873259031983,-0.0004790423514612671,0.058,0.9999999999999998,138.4900793917089,0.11424427245691414,23,2026-10-07 19:31:21.205244,48.2,0.025154210353319086,0.09464993311114922,0.09581222519786581
1112,cdot_cos,T,S-T,24,4,5349,-0.10004880206971699,0.10363273643258278,-0.09756767804140493,0.00898866100469029,1119.0,0.24735983696541894,0.5126203468479518,2.5113165671970807,-0.0004781485826153007,0.228,0.9999999999999993,0.0801235524712755,0.11921141722022842,24,2026-10-07 19:31:21.433243,48.2,0.9981325176531577,0.07746349051116137,0.02378194376937321
1112,cdot_cos,P,T-P,25,5,6030,0.0358932960848474,0.0010507031590070053,0.13594209815456437,0.9985753580909369,1078.0,0.27726090545909143,0.5138594930175281,2.569297470119175,-0.0028267207205873507,0.681,0.9999999999999992,-1.8953148511729279,0.12417857095518554,25,2026-10-07 19:31:22.114244,48.2,0.4356801540376348,0.02866383319203797,0.04390758956486416
1112,cdot_cos,Q,P-Q,26,5,6154,-0.0010801958295719193,-0.0009308370965544695,-0.036973491914419315,0.14404126955004806,1078.0,0.28639997777297466,0.5140382221485225,2.6210909335039085,-0.0009282438465699461,0.124,0.999999999999999,10.622089770453819,0.12914571387025542,26,2026-10-07 19:31:22.238244,48.2,0.1293497793839344,0.1624266510711475,0.07370219607970341
1112,cdot_cos,R,Q-R,27,5,6174,0.10973765039184533,0.133346487197603,0.11081784622141724,0.9952337613174428,1078.0,0.317542714924736,0.5152730264612024,2.6774371933632484,-0.003388688513703905,0.02,0.9999999999999991,-1.992578614982244,0.13411285460905265,27,2026-10-07 19:31:22.258244,48.2,0.4838038208019391,1.2527878864924484,1.5571368575880677
1112,cdot_cos,S,R-S,28,5,6219,0.10973765039184533,0.133346487197603,0.0,0.5,1078.0,0.3365114932326726,0.5158933159740593,2.729850842742254,-0.002235108593845151,0.045,0.999999999999999,1.85974435477027,0.1390799961526739,28,2026-10-07 19:31:22.303244,48.2,0.5968329241460435,0.2769467481984108,0.4215284068430352
1112,cdot_cos,T,S-T,29,5,6449,-0.1958436227863748,0.13816095339822293,-0.30558127317822015,4.011149596504775e-07,1078.0,0.342467922262593,0.5158933164716548,2.778170540838898,-0.0007285982150412901,0.23,0.9999999999999987,3027580.2679333435,0.14404714293855658,29,2026-10-07 19:31:22.533243,48.2,0.12647845221530335,0.08481897464276326,0.025897517521392976
1112,cdot_cos,P,T-P,30,6,7108,0.033106039988521865,0.0020951057659080426,0.22894966277489665,0.9999838790335119,940.0,0.3755282215683437,0.517133726696,2.832458084132828,-0.00427566008126609,0.659,0.999999999999999,-2.859587736869324,0.14901430301459126,30,2026-10-07 19:31:23.192243,48.2,0.43622636676685106,0.03303997963939145,0.050167373756829614
1112,cdot_cos,Q,P-Q,31,6,7235,-0.0021234785462286455,-0.0023488158144025603,-0.03522951853475051,0.15471844479410116,940.0,0.3860146154273109,0.5173256256560377,2.8803471986085087,-0.001438411942323747,0.127,0.9999999999999982,14.785114720711247,0.15398144687362422,31,2026-10-07 19:31:23.319244,48.2,0.13911052737087107,0.17514647726293744,0.08257003038556861
1112,cdot_cos,R,Q-R,32,6,7256,0.09372204313129337,0.15137296530966923,0.09584552167752201,0.9902409587662762,940.0,0.4200154267931298,0.5185537087996731,2.9333827683335203,-0.004935448712629411,0.021,0.9999999999999979,-2.847557014709587,0.15894858729471473,32,2026-10-07 19:31:23.340243,48.2,0.49235514606120845,0.9718064783379072,1.6190862555151853
1112,cdot_cos,S,R-S,33,6,7315,-0.0003669779570504078,-0.0021393371883552514,-0.09408902108834377,0.010612108327154554,940.0,0.426830487517503,0.5185668686022672,2.9789398801910547,-0.0010393442320242453,0.059,0.9999999999999976,296.06101252276693,0.16391572931271275,33,2026-10-07 19:31:23.399244,48.2,0.02355027020672178,0.11258143616916154,0.1155095038029358
1112,cdot_cos,T,S-T,34,6,7527,-0.13203531289429965,0.05792398172315651,-0.13166833493724925,0.0017499549541051362,940.0,0.43330003626109087,0.5185690386739236,3.0237511361956635,-0.0010021286832200798,0.212,0.9999999999999973,17.14945619187513,0.16888287723150064,34,2026-10-07 19:31:23.611244,48.2,0.9635446054570787,0.09945811936379138,0.03051673935654646
1112,cdot_cos,P,T-P,35,7,8048,0.031279115924203384,0.002291196995357859,0.16331442881850303,0.9996187810822776,919.0,0.46900073012775056,0.5198085217745285,3.075228706582643,-0.005800031736676921,0.521,0.9999999999999972,-3.8708902534573713,0.17385003822418701,35,2026-10-07 19:31:24.132244,48.2,0.43726312955151725,0.045386580412259146,0.06852340473447158
1112,cdot_cos,Q,P-Q,36,7,8176,-0.0022517007629043657,-0.0026527121771471335,-0.03353081668710775,0.16573162716382883,919.0,0.4805928530506649,0.5200139985142567,3.120084017015266,-0.001981932678876322,0.128,0.9999999999999964,18.581660692358785,0.17881718305412225,36,2026-10-07 19:31:24.260243,48.2,0.14566403393518204,0.18788264086320744,0.09056346033526827
1112,cdot_cos,R,Q-R,37,7,8198,0.0907748260511756,0.16250931379357147,0.09302652681407995,0.9888364902950844,919.0,0.5170986861887317,0.5212398308192076,3.1705781395615364,-0.006556298279111621,0.022,0.9999999999999962,-3.7316406018673143,0.18378432324992836,37,2026-10-07 19:31:24.282243,48.2,0.49772600940899436,0.9960441933425859,1.6593560517303076
1112,cdot_cos,S,R-S,38,7,8256,-9.075936831741112e-05,-0.0006354096686065364,-0.09086558541949301,0.012373821200502923,919.0,0.5244187975577387,0.52125516870186,3.2132326883883064,-0.0013724080891008125,0.058,0.9999999999999957,337.97951826158584,0.18875146542290955,38,2026-10-07 19:31:24.340243,48.2,0.02288617829187575,0.12220341840057936,0.1262088167070174
1112,cdot_cos,T,S-T,39,7,8467,-0.2787248127793185,0.05208357380078137,-0.27863405341100106,1.4701254149258786e-06,919.0,0.5312742827231989,0.5212551705241412,3.2552375244865774,-0.0013027914091661365,0.211,0.9999999999999952,38203.03878937081,0.1937186153629306,39,2026-10-07 19:31:24.551244,48.2,0.9479660863365851,0.10672640949618378,0.032490451021138365
1112,cdot_cos,P,T-P,40,8,8967,0.02984346424047117,0.0022029129931218144,0.30856827701978967,0.9999996526702778,959.0,0.5694573423651282,0.5224945780079497,3.3045458942026955,-0.007564092106801694,0.5,0.9999999999999952,-5.051850000449578,0.19868578124234282,40,2026-10-07 19:31:25.051244,48.2,0.43702436890583535,0.05073097664941917,0.07636611928385872
1112,cdot_cos,Q,P-Q,41,8,9097,-0.00274640399933738,-0.003078790896574298,-0.03258986823980855,0.1720978658882411,959.0,0.582005259372618,0.5227078499567523,3.3469633421089036,-0.0026002154337948676,0.13,0.9999999999999944,23.274869015245528,0.20365292727719608,41,2026-10-07 19:31:25.181243,48.2,0.14822481232090587,0.1980626919504744,0.09652243851915235
1112,cdot_cos,R,Q-R,42,8,9122,0.09425768901513291,0.15627838982754427,0.0970040930144703,0.9907661027036655,959.0,0.6209536422722516,0.5239354915138067,3.3954901041037786,-0.00843001578411604,0.025,0.9999999999999941,-4.748780551474182,0.20862006736481295,42,2026-10-07 19:31:25.206244,48.2,0.5007978658867295,0.9326854979279142,1.5579353159853415
1112,cdot_cos,S,R-S,43,8,9176,-0.00035837043646510006,-0.0017688517179455794,-0.09461605945159801,0.010348676294161575,959.0,0.6286395342690138,0.5239483128836075,3.435758892577123,-0.0017280249973133852,0.054,0.9999999999999937,522.7203404083142,0.21358720950253016,43,2026-10-07 19:31:25.260243,48.2,0.020683669868920777,0.1385474136729284,0.14233133327337358
1112,cdot_cos,T,S-T,44,8,9405,-0.16951825653295494,0.08192340847796986,-0.16915988609648983,0.00028764191758281967,959.0,0.6359167629489278,0.5239486692537003,3.475482332259572,-0.0016557366401991338,0.229,0.9999999999999928,202.8463066375479,0.218554362954206,44,2026-10-07 19:31:25.489243,48.2,0.9572800157698393,0.10432542512473936,0.03177829117866417
1112,cdot_cos,P,T-P,45,9,9926,0.02730632438827723,0.00027082190272343396,0.19682458092123217,0.9999241703084545,876.0,0.6764205789761444,0.5251873619541605,3.523063972864096,-0.009561422472200565,0.521,0.9999999999999933,-6.382281762913806,0.22352153676483175,45,2026-10-07 19:31:26.010243,48.2,0.43743307460047953,0.05160783349740034,0.07774244918851542
1112,cdot_cos,Q,P-Q,46,9,10051,-0.0052867947377662925,-0.0058792438026807215,-0.03259311912604352,0.17207554142722295,876.0,0.689692125453219,0.525400496005452,3.563439594228187,-0.0032611469121594967,0.125,0.9999999999999916,29.560154850260822,0.22848868362997368,46,2026-10-07 19:31:26.135243,48.2,0.144869753877297,0.21737641305024447,0.106172371816597
1112,cdot_cos,R,Q-R,47,9,10072,0.08482267883004709,0.156834492737454,0.09010947356781338,0.9871727929364842,876.0,0.7307646822387055,0.526623034415211,3.610345688005925,-0.010491347844864555,0.021,0.9999999999999911,-5.914088976665104,0.23345582307122212,47,2026-10-07 19:31:26.156243,48.2,0.5019983522041144,1.1752128869976495,1.9558360374041186
1112,cdot_cos,S,R-S,48,9,10131,-0.0005352518787015337,-0.010621646539115402,-0.08535793070874861,0.016075508422051507,876.0,0.7390510667071203,0.5266429401081785,3.6486893782197702,-0.002190169086879785,0.059,0.9999999999999906,417.02535910388343,0.23842296574380875,48,2026-10-07 19:31:26.215244,48.2,0.022591084369935344,0.1351785024264483,0.14044719437991166
1112,cdot_cos,T,S-T,49,9,10345,-0.18060351965129454,0.04431116552872301,-0.180068267772593,0.00017004277007715858,876.0,0.7467157455250264,0.526643150665245,3.686502115031244,-0.0020478317081313005,0.214,0.9999999999999897,676.0038077748412,0.2433901208551822,49,2026-10-07 19:31:26.429244,48.2,0.9328541772611222,0.1176806917150433,0.03581625615843978
1112,cdot_cos,P,T-P,50,10,10802,0.029252307489406878,-6.273160498996254e-05,0.20985582714070142,0.999959535735576,1021.0,0.7894184027611588,0.5278811935983563,3.732683782248025,-0.011792776755586477,0.457,0.9999999999999898,-7.871249685150865,0.24835729691342406,50,2026-10-07 19:31:26.886244,48.2,0.4376443690763856,0.06254395098752043,0.09344126309875804
1112,cdot_cos,Q,P-Q,51,10,10919,-0.0013379227444265034,-0.0011851004171727563,-0.030590230233833383,0.1862673147893645,1021.0,0.8038809167276201,0.5281117724357304,3.771472503027334,-0.004142387250526484,0.117,0.9999999999999882,33.17906184359775,0.25332444445639807,51,2026-10-07 19:31:27.003244,48.2,0.15773242138546198,0.2476520411849912,0.12361123048257482
1112,cdot_cos,R,Q-R,52,10,10947,0.10915059754911595,0.14573789982868102,0.11048852029354245,0.9951578699846982,1021.0,0.8473689803984468,0.5293434648848939,3.817150090709525,-0.012905328561575384,0.028,0.9999999999999882,-7.114553082630242,0.2582915842374319,52,2026-10-07 19:31:27.031244,48.2,0.5071150913304342,1.2442447877396925,1.5531451311009532
1112,cdot_cos,S,R-S,53,10,10994,0.10915059754911595,0.14573789982868102,0.0,0.5,1021.0,0.8735586248410429,0.529962173717639,3.8581829427312933,-0.008098683519014263,0.047,0.9999999999999876,7.768832103519823,0.2632587261912147,53,2026-10-07 19:31:27.078244,48.2,0.5523853212820756,0.36587504655135866,0.5572264775020443
1112,cdot_cos,T,S-T,54,10,11224,-0.2709944448916444,0.11893241478920238,-0.38014504244076036,1.1026205748271155e-08,1021.0,0.8817612347742745,0.5299621737312821,3.8944108078100443,-0.002587203268818455,0.23,0.9999999999999867,403976049.36350256,0.2682258868577517,54,2026-10-07 19:31:27.308243,48.2,0.11880343304891279,0.11558027785878298,0.035663521448833176
1112,cdot_cos,P,T-P,55,11,11823,0.024885208008131883,0.00028340067491227136,0.2958796528997763,0.9999993597453889,978.0,0.926725552656083,0.5311993124980854,3.939479627978917,-0.01460742402121616,0.599,0.9999999999999865,-9.716145896435831,0.2731930871981478,55,2026-10-07 19:31:27.907244,48.2,0.4391631218289802,0.05040618309946488,0.07506563920168371
1112,cdot_cos,Q,P-Q,56,11,11950,-0.0052962649162352675,-0.005087880210692827,-0.03018147292436715,0.18927207374506838,978.0,0.9421478421274334,0.5314334257776883,3.9768837196801083,-0.005177182157771789,0.127,0.9999999999999845,40.28067899198528,0.27816023738874646,56,2026-10-07 19:31:28.034244,48.2,0.16178275190325453,0.23996658124001152,0.12143535016811323
1112,cdot_cos,R,Q-R,57,11,11971,0.09168250188469702,0.13539198550372833,0.09697876680093229,0.9907549280598987,978.0,0.987677064291046,0.5326586762953918,4.021484934433672,-0.01577741574125485,0.021,0.999999999999984,-8.651482639934867,0.28312737588782616,57,2026-10-07 19:31:28.055244,48.2,0.5107570679454523,1.299121056124553,2.168058198267264
1112,cdot_cos,S,R-S,58,11,12030,-0.0020819823078479533,-0.01528816550420582,-0.09376448419254498,0.010777612108055563,978.0,0.9967109264846646,0.5326720026545613,4.056709229897043,-0.0032190392015735586,0.059,0.9999999999999822,942.3711592898089,0.2880945192145879,58,2026-10-07 19:31:28.114244,48.2,0.020215997754263134,0.1499627331581093,0.15311630836641832
1112,cdot_cos,T,S-T,59,11,12243,-0.12411514944553372,0.06926118076400878,-0.12203316713768576,0.002781447012896318,978.0,1.0053726668037029,0.5326754418653975,4.091557824947816,-0.0031139611366144283,0.213,0.9999999999999806,30.552958211272166,0.29306168120257087,59,2026-10-07 19:31:28.327244,48.2,0.9668188046364975,0.13051022505569182,0.04066544750722166
1112,cdot_cos,P,T-P,60,12,12801,0.028944633238773308,0.0010506876729924996,0.15305978268430703,0.9993752172092503,980.0,1.0523082823583894,0.53391094843631,4.135656552273126,-0.01733655590755295,0.558,0.9999999999999802,-11.511549275236803,0.2980288872005597,60,2026-10-07 19:31:28.885243,48.2,0.4402635341221534,0.05600034423591585,0.08411400637040592
1112,cdot_cos,Q,P-Q,61,12,12928,-0.003082735424938593,-0.002962273822168788,-0.0320273686637119,0.17599526723246867,980.0,1.067869050970985,0.5341284850430659,4.1716769824469,-0.005921880927720788,0.127,0.9999999999999777,52.47243280136448,0.30299603888735754,61,2026-10-07 19:31:29.012243,48.2,0.14550539260588613,0.2483090794166936,0.12252573710705188
1112,cdot_cos,R,Q-R,62,12,12947,0.0965164200546443,0.14224589529258794,0.09959915547958288,0.9918429265366782,980.0,1.1153787885302295,0.535354194220554,4.215383301333272,-0.01861201708177699,0.019,0.9999999999999766,-10.353301082449809,0.30796317647312144,62,2026-10-07 19:31:29.031244,48.2,0.5056933245281222,1.495806615733622,2.5005125031181366
1112,cdot_cos,S,R-S,63,12,12993,-4.035542265856017e-05,-0.00011587027607873477,-0.09655677547730286,0.009433249944393726,980.0,1.1247097023688626,0.5353658497065681,4.249334856707096,-0.0037505562971200165,0.046,0.9999999999999752,1275.061440308602,0.3129303181436538,63,2026-10-07 19:31:29.077244,48.2,0.019016117055575914,0.1981929673410217,0.20284595301376193
1112,cdot_cos,T,S-T,64,12,13222,-0.16869019887176334,0.10212074511868756,-0.16864984344910477,0.00029479885060354765,980.0,1.1336125415256035,0.5353662139519796,4.282929873446057,-0.0036076195309316036,0.229,0.9999999999999731,392.41885189446765,0.3178974858495526,64,2026-10-07 19:31:29.306243,48.2,0.9611538411182733,0.12613599264895142,0.03887702688533166
1112,cdot_cos,P,T-P,65,13,13781,0.05130530591847557,0.003282407382408747,0.2199955047902389,0.999975178693796,759.0,1.1824799870020823,0.53660153637669,4.326220068288962,-0.02030142789895318,0.559,0.9999999999999727,-13.513725675250877,0.32286470283476354,65,2026-10-07 19:31:29.865243,48.2,0.4394210333845329,0.054420321134315976,0.08741940156794062
1112,cdot_cos,Q,P-Q,66,13,13895,-0.001672637384387701,-0.0023070470692254656,-0.05297794330286327,0.07218923451167081,759.0,1.1944544605537688,0.5366906983698242,4.360096050416453,-0.005105205918744855,0.114,0.9999999999999689,170.43385243001802,0.3278318540955375,66,2026-10-07 19:31:29.979244,48.2,0.0509651641107412,0.11195664801125653,0.10503924168146017
1112,cdot_cos,R,Q-R,67,13,13922,-0.0447154932485293,0.2867454129219023,-0.0430428558641416,0.11158368065516971,759.0,1.2080061027486488,0.5368285124092652,4.394130963051867,-0.005839425568107074,0.027,0.9999999999999662,-5.327611412743199,0.3327989921048796,67,2026-10-07 19:31:30.006243,48.2,0.8818485848758095,0.42010834069997166,0.5019126738844456
1112,cdot_cos,S,R-S,68,13,13971,-0.16066131787093205,0.2515211050077264,-0.11594582462240274,0.003726364923253217,759.0,1.2171403109515673,0.5368331146466169,4.426839481156391,-0.003973106551869987,0.049,0.9999999999999636,405.52428604415786,0.3377661336805865,68,2026-10-07 19:31:30.055244,48.2,0.6251660575167178,0.18543886501941131,0.18641241230445788
1112,cdot_cos,T,S-T,69,13,14201,-0.2814387768936114,-0.03620780447488478,-0.12077745902267936,0.0029544807027136796,759.0,1.2261791115205511,0.5368367635659002,4.459301283429026,-0.003961064590941131,0.23,0.9999999999999608,3.300144506901767,0.34273330322988005,69,2026-10-07 19:31:30.285243,48.2,0.9969645344291733,0.12923982559226152,0.039299132908625536
1112,cdot_cos,P,T-P,70,14,14540,0.036601267303739124,0.0011189134245625054,0.31804004419735055,0.9999997799762519,720.0,1.2765906307240076,0.5380715800507713,4.5018300502509785,-0.02262090410008258,0.339,0.9999999999999606,-15.111427275032762,0.3477004910489001,70,2026-10-07 19:31:30.624243,48.2,0.4382816136401607,0.09561436549731155,0.14870654632288033
1112,cdot_cos,Q,P-Q,71,14,14670,-0.0033339628818593588,-0.006930395539312637,-0.03993523018559848,0.12731858215514402,720.0,1.2910056513277284,0.5382287619725367,4.535196406714786,-0.00663560198346781,0.13,0.999999999999957,101.69936807665582,0.3526676458329375,71,2026-10-07 19:31:30.754244,48.2,0.08990329944237233,0.2363958693596564,0.11088477387477536
1112,cdot_cos,R,Q-R,72,14,14693,0.04255556460221895,0.20796874041304236,0.04588952748407831,0.9013108528814648,720.0,1.3380535567575182,0.5393412615854951,4.576462614510884,-0.02216808411919332,0.023,0.9999999999999564,-13.961786552374837,0.3576347829973468,72,2026-10-07 19:31:30.777244,48.2,0.4962533604133652,1.3324343571604083,2.045561105643038
1112,cdot_cos,S,R-S,73,14,14750,0.000711264074752906,-0.002615762942950769,-0.041844300527466044,0.11744040680543259,720.0,1.3522976317571072,0.5394861911753324,4.609372291044079,-0.006867691190870275,0.057,0.9999999999999541,105.57121527429085,0.3626019264630289,73,2026-10-07 19:31:30.834244,48.2,0.10775661530208942,0.20593502041988038,0.2498960526243668
1112,cdot_cos,T,S-T,74,14,14960,-0.2094177375167187,-0.08649070036645716,-0.2101290015914716,3.9934984549311924e-05,720.0,1.3615301490853846,0.539486240456733,4.640836373127899,-0.004490244008598712,0.21,0.9999999999999513,48242.28110451862,0.36756909714845265,74,2026-10-07 19:31:31.044243,48.2,0.5889173163524793,0.14623240447132904,0.04396436822989265
1112,cdot_cos,P,T-P,75,15,15260,0.03547630090153853,-0.0007126933249619117,0.24489403841825721,0.9999925246538132,698.0,1.4137152416350653,0.5407200275080246,4.682773071189692,-0.025944323507588164,0.3,0.9999999999999509,-17.388802611058093,0.372536285180972,75,2026-10-07 19:31:31.344243,48.2,0.43739102509823347,0.10817432482541411,0.17395030849893578
1112,cdot_cos,Q,P-Q,76,15,15387,-0.01611221036964826,-0.020950002712290323,-0.051588511271186785,0.0768053186749882,698.0,1.426434743980633,0.5408147691792997,4.7147141426232215,-0.0064713127831089136,0.127,0.9999999999999476,205.53796932646122,0.3775034418767914,76,2026-10-07 19:31:31.471244,48.2,0.049334662833705696,0.24999591029821935,0.10015356177612389
1112,cdot_cos,R,Q-R,77,15,15409,0.0451618439673576,0.22033896604624587,0.06127405433700586,0.9504243799547034,698.0,1.477214202850813,0.5419868999791162,4.75591604442294,-0.02640239996571484,0.022,0.9999999999999472,-17.004149354087833,0.3824705787896958,77,2026-10-07 19:31:31.493243,48.2,0.4700591234653755,1.523012032638564,2.3081572213718173
1112,cdot_cos,S,R-S,78,15,15468,0.00951149159261475,-0.021988610037618057,-0.035650352374742844,0.15208420504266051,698.0,1.49344727341673,0.5421744182288565,4.788355108158443,-0.008634505295009812,0.059,0.9999999999999447,94.75288242778552,0.38743772346754335,78,2026-10-07 19:31:31.552243,48.2,0.1277374929055608,0.218475516643446,0.27513678925282764
1112,cdot_cos,T,S-T,79,15,15679,-0.1828856749468123,-0.10722242855019391,-0.19239716653942704,9.386647182506497e-05,698.0,1.5029943138147397,0.5421745339615601,4.818952967666298,-0.005122219445413521,0.211,0.9999999999999417,30348.257139474343,0.39240489901235415,79,2026-10-07 19:31:31.763244,48.2,0.5037394591356433,0.15036749188354823,0.04524663695739241
1112,cdot_cos,P,T-P,80,16,15958,0.02287557669080056,0.0015036146782646327,0.20576125163761286,0.9999507076480841,880.0,1.5569023549915872,0.5434071628166366,4.860381740088971,-0.029522919609853454,0.279,0.9999999999999419,-19.79565873697335,0.39737208967063453,80,2026-10-07 19:31:32.042243,48.2,0.4375780274083503,0.11869036899244864,0.19321878558009875
1112,cdot_cos,Q,P-Q,81,16,16094,-0.03472241577065057,-0.030848967752025995,-0.05759799246145113,0.05862263297233587,880.0,1.569223539712526,0.5434794099825806,4.891315030286032,-0.006893613646741904,0.136,0.9999999999999383,313.2206733292489,0.4023392509250594,81,2026-10-07 19:31:32.178244,48.2,0.037528754908015216,0.24413852076641768,0.09059694647749113
1112,cdot_cos,R,Q-R,82,16,16122,0.05632494311945078,0.14151629187599132,0.09104735889010135,0.9877327941415494,880.0,1.6233080326400529,0.5446964250878358,4.932436263173972,-0.03088930142971048,0.028,0.9999999999999385,-19.716836446279938,0.4073063890502006,82,2026-10-07 19:31:32.206244,48.2,0.459862182303038,1.2240086361962728,1.9315890331259578
1112,cdot_cos,S,R-S,83,16,16169,0.011075891715373508,-0.05185634033718373,-0.04524905140407727,0.10146932793046115,880.0,1.6377680233395173,0.5448214184963054,4.963559696808767,-0.008435473654159382,0.047,0.9999999999999357,179.6400950295752,0.41227353185365345,83,2026-10-07 19:31:32.253243,48.2,0.06982007747339886,0.25917903521640373,0.30765937658435033
1112,cdot_cos,T,S-T,84,16,16398,-0.12440749939725744,0.0178460555968505,-0.13548339111263094,0.0014564446884251852,880.0,1.6476708619503948,0.5448232125538978,4.99338757738224,-0.005820138862226918,0.229,0.9999999999999326,1457.7763852444962,0.4172407163969466,84,2026-10-07 19:31:32.482244,48.2,0.6380366719938116,0.1429152398478249,0.04324383672872264
1112,cdot_cos,P,T-P,85,17,16838,0.035010688988749816,-0.0016149497100457566,0.15941818838600724,0.9995400610179477,1017.0,1.7032232031898211,0.5460541753275555,5.034371119378063,-0.033284908022382785,0.44,0.9999999999999325,-22.31161636070076,0.4222079515991485,85,2026-10-07 19:31:32.922244,48.2,0.438172851966416,0.08220121741118747,0.12625532099869619
1112,cdot_cos,Q,P-Q,86,17,16953,-0.0013845063551855235,-0.0011890013804206456,-0.03639519534393534,0.14751214949827848,1017.0,1.7200079332722398,0.5462357935454707,5.065582773103972,-0.010273194625603884,0.115,0.9999999999999281,126.70377267728651,0.4271751102902845,86,2026-10-07 19:31:33.037244,48.2,0.10646101804394476,0.30058595577043196,0.1459541746297274
1112,cdot_cos,R,Q-R,87,17,16980,0.0478383797929189,0.25505751725198655,0.04922288614810442,0.9147094735117733,1017.0,1.7723579730170205,0.5473617150950972,5.105450620455846,-0.03267435286715737,0.027,0.9999999999999282,-19.895842875539397,0.4321422477640134,87,2026-10-07 19:31:33.064243,48.2,0.5037936956606561,1.1731458629638516,1.9388903609178036
1112,cdot_cos,S,R-S,88,17,17028,-0.0350260432921356,0.30860794602298725,-0.0828644230850545,0.018091335138589428,1017.0,1.7833578098722878,0.5473839789830209,5.134917308486928,-0.006990042731595343,0.048,0.9999999999999247,1153.6309481786147,0.43710939093889206,88,2026-10-07 19:31:33.112243,48.2,0.025364267305618176,0.21983427959259885,0.22916326781806845
1112,cdot_cos,T,S-T,89,17,17257,-0.2960783730049869,0.1261457583157088,-0.2610523297128513,3.4307703748077934e-06,1017.0,1.79346206385791,0.54738398320504,5.164010597570327,-0.006459038473044035,0.229,0.9999999999999206,125770.21800184142,0.4420765805012876,89,2026-10-07 19:31:33.341243,48.2,0.9210775556474643,0.146887026409323,0.04412337984987861
1112,cdot_cos,P,T-P,90,18,17855,0.03008260965661329,-0.0008906915691054775,0.3261609826616002,0.9999998512441571,961.0,1.8506320679677577,0.5486143238642003,5.204612912205083,-0.03721493483129549,0.598,0.9999999999999208,-24.997870410332297,0.44704386803310103,90,2026-10-07 19:31:33.939244,48.2,0.4376045573557416,0.06289852120189529,0.0956020135616183
1112,cdot_cos,Q,P-Q,91,18,17970,-0.003605224239921839,-0.0033521364960956966,-0.03368783389653513,0.16468785406433628,961.0,1.8686886952153767,0.5488168894789365,5.23537996832607,-0.011995686540053993,0.115,0.9999999999999157,124.49915709576419,0.45201102823077843,91,2026-10-07 19:31:34.054244,48.2,0.12216780506334483,0.32882887815930695,0.1570141499792959
1112,cdot_cos,R,Q-R,92,18,17997,0.10081064583211487,0.14167916725612065,0.1044158700720367,0.9935220035561597,961.0,1.9262627099443983,0.5500385733274967,5.275785184147359,-0.03900728298818673,0.027,0.9999999999999152,-22.110136333525062,0.45697816478756254,92,2026-10-07 19:31:34.081243,48.2,0.5003358420497557,1.2661619445015224,2.132370915889688
1112,cdot_cos,S,R-S,93,18,18047,-0.000605525545720329,-0.0018954488957334322,-0.1014161713778352,0.007478180667426661,961.0,1.937061440218459,0.5500477665995579,5.304469089555231,-0.007448094925165733,0.05,0.9999999999999103,3432.8569689914266,0.4619453082823519,93,2026-10-07 19:31:34.131244,48.2,0.01444775637643689,0.21245115986127994,0.21597460548121283
1112,cdot_cos,T,S-T,94,18,18276,-0.13936049884195148,0.08261370730304801,-0.13875497329623115,0.0012442345938551824,961.0,1.9475078259305263,0.5500492961911573,5.332926317562785,-0.007244693541959585,0.229,0.9999999999999056,132.97757603304038,0.46691250298047865,94,2026-10-07 19:31:34.360243,48.2,0.9723145530056246,0.15104046257578543,0.04561740485618931
1112,cdot_cos,P,T-P,95,19,18816,0.027799627185294027,0.002172531611208787,0.1671601260272455,0.9996832617588606,959.0,2.0062379720781687,0.5512779419702032,5.373193283267479,-0.041434527832460745,0.54,0.9999999999999057,-27.827250842835124,0.47187978986348,95,2026-10-07 19:31:34.900243,48.2,0.43816784880711046,0.07209820362284827,0.10875952990304144
1112,cdot_cos,Q,P-Q,96,19,18945,-0.0041137643976734235,-0.0046777976480650435,-0.03191339158296745,0.1767933866820641,959.0,2.0253738858432024,0.5514951625660317,5.403527597509573,-0.013765161025402553,0.129,0.9999999999998991,127.37911293136182,0.47684695621051987,96,2026-10-07 19:31:35.029243,48.2,0.13397511461382539,0.30199739637276235,0.14834041678320747
1112,cdot_cos,R,Q-R,97,19,18971,0.08484579126194529,0.14496059291242056,0.08895955565961872,0.9864516638844446,959.0,2.0841533003423414,0.5527068225019317,5.443531536601086,-0.04307732695214482,0.026,0.9999999999998985,-24.1917431271421,0.4818140916693561,97,2026-10-07 19:31:35.055244,48.2,0.5063867290227292,1.3517714318430032,2.2607467115053432
1112,cdot_cos,S,R-S,98,19,19025,-0.0003333104232291301,-0.0016805881968303764,-0.08517910168517442,0.01621241494992952,959.0,2.0956660002990386,0.5527267310460235,5.4717161113638335,-0.008581488954333617,0.054,0.9999999999998928,1732.7152522393665,0.4867812363941528,98,2026-10-07 19:31:35.109244,48.2,0.017956621387892304,0.2053824711795777,0.21319814734624512
1112,cdot_cos,T,S-T,99,19,19255,-0.19818871468095725,0.09185492452218542,-0.19785540425772813,7.21543746263677e-05,959.0,2.1063346072297358,0.5527268196498761,5.4995630575732255,-0.00799450842033716,0.23,0.9999999999998879,6624.774395807107,0.49174843701276993,99,2026-10-07 19:31:35.339243,48.2,0.929207721987711,0.15424013963468175,0.04638524752477024
1112,cdot_cos,P,T-P,100,20,19775,0.026354171590453623,0.0025450918231514214,0.22454288627141086,0.9999800640725479,879.0,2.166616464530992,0.5539544472792644,5.539545142808358,-0.045910533999338095,0.52,0.9999999999998874,-30.885607875978014,0.4967157329884463,100,2026-10-07 19:31:35.859244,48.2,0.43785491558342154,0.07658460318628131,0.11592664865626241
1112,cdot_cos,Q,P-Q,101,20,19904,-0.0063270154379825765,-0.007554836435860139,-0.0326811870284362,0.171471634821148,879.0,2.1859825945434683,0.5541648891270992,5.5692889509978984,-0.015022745769920604,0.129,0.9999999999998799,146.77588391860013,0.5016829018587612,101,2026-10-07 19:31:35.988243,48.2,0.1279560937040224,0.30902816719738185,0.15012503885640396
1112,cdot_cos,R,Q-R,102,20,19928,0.08533562688720214,0.17411634023064618,0.09166264232518471,0.9880869864672505,879.0,2.2463457316679167,0.5553771572322557,5.609035099307601,-0.04765714717355879,0.024,0.999999999999879,-26.920118796184028,0.5066500358413781,102,2026-10-07 19:31:36.012243,48.2,0.5042038906548169,1.50318595303775,2.515130713518684
1112,cdot_cos,S,R-S,103,20,19984,-0.0001585583686146128,-0.002132348694847639,-0.08549418525581676,0.015971959661076594,879.0,2.2581355202892803,0.5553967476012095,5.636662124252427,-0.009459568191336665,0.056,0.999999999999873,1949.8141700267827,0.5116171814281999,103,2026-10-07 19:31:36.068243,48.2,0.01763299592831001,0.20292656500828232,0.21053193966720704
1112,cdot_cos,T,S-T,104,20,20196,-0.20480356678754208,0.04143773816027566,-0.20464500841892747,5.201692434986172e-05,879.0,2.2690735069488444,0.5553968114021625,5.663959120845287,-0.00882040312969027,0.212,0.9999999999998667,10018.11151621717,0.5165843817259507,104,2026-10-07 19:31:36.280244,48.2,0.9300988743465068,0.17150626011454992,0.05159427669605672
1112,cdot_cos,P,T-P,105,21,20654,0.03878435724142844,0.005783176088723717,0.2435879240289705,0.9999920389200827,801.0,2.3308541745778495,0.5566230039006499,5.7036893089269425,-0.0505920688236922,0.458,0.9999999999998662,-34.06615661531879,0.5215516713088921,105,2026-10-07 19:31:36.738244,48.2,0.4379474269764572,0.08685548094192912,0.13489228739957454
1112,cdot_cos,Q,P-Q,106,21,20779,-0.0004491312383724767,-0.0006517834470590859,-0.03923348847980092,0.1311243232474196,801.0,2.3486331274916514,0.5567837380182136,5.732440298404992,-0.01480986906236591,0.125,0.9999999999998586,222.6173279431528,0.526518841595217,106,2026-10-07 19:31:36.863244,48.2,0.08926863610004764,0.31674005361727353,0.1422316233104155
1112,cdot_cos,R,Q-R,107,21,20799,0.0803075081309415,0.19763063098780514,0.08075663936931397,0.9800127305313504,801.0,2.410039187982168,0.5579846732737559,5.771839220479457,-0.051987766985146046,0.02,0.9999999999998569,-30.9574539936303,0.5314859734475488,107,2026-10-07 19:31:36.883244,48.2,0.48912959241228443,2.4612935167892203,3.0703030245258223
1112,cdot_cos,S,R-S,108,21,20843,0.0803075081309415,0.19763063098780514,0.0,0.5,801.0,2.4470848681632202,0.5585971271342243,5.8051125099470395,-0.032003328795216626,0.044,0.9999999999998539,32.630112209018094,0.536453115089515,108,2026-10-07 19:31:36.927244,48.2,0.5355565806231289,0.5494169383398498,0.8419472768420992
1112,cdot_cos,T,S-T,109,21,21073,-0.22923183808535935,0.00742181329081237,-0.30953934621630086,3.314473647131394e-07,801.0,2.4583878785560747,0.5585971275401579,5.831926109730321,-0.009861736417427738,0.23,0.9999999999998471,54544859.760551624,0.5414203299084235,109,2026-10-07 19:31:37.157243,48.2,0.10590612315722682,0.16228251815677552,0.04914352344719312
1112,cdot_cos,P,T-P,110,22,21455,0.022592885993449916,0.0019074364465956307,0.2518247240788093,0.999994647554791,874.0,2.521734826515337,0.5598214921949534,5.871458266574907,-0.056077503137166404,0.382,0.9999999999998466,-37.746733817188534,0.5463876069255437,110,2026-10-07 19:31:37.539244,48.2,0.4386116198997286,0.11378704340010623,0.1658297066996396
1112,cdot_cos,Q,P-Q,111,22,21581,-0.0022232073845125733,-0.002783031857246137,-0.02481609337796249,0.23216336705252938,874.0,2.545321179713756,0.5601056428245095,5.901080109085086,-0.02124121595297649,0.126,0.9999999999998394,122.59795883123546,0.5513547817707838,111,2026-10-07 19:31:37.665244,48.2,0.19397371355198942,0.34554024819126866,0.1871932793525305
1112,cdot_cos,R,Q-R,112,22,21604,0.09344906881308447,0.18343877876748635,0.09567227619759705,0.9901599306045493,874.0,2.6088109690595367,0.5613170802344387,5.94042261539519,-0.05812499716209031,0.023,0.9999999999998379,-30.446295373417787,0.5563219144739597,112,2026-10-07 19:31:37.688244,48.2,0.53016886620719,1.6453688743516077,2.7604256237296028
1112,cdot_cos,S,R-S,113,22,21662,-3.9839964621116744e-05,-0.0004693519525868287,-0.09348890877770559,0.010920149534603414,874.0,2.6210081479339298,0.5613304367341276,5.967025403484658,-0.011330437959163312,0.058,0.9999999999998308,3503.504682573486,0.5612890626269343,113,2026-10-07 19:31:37.746243,48.2,0.01608309112741015,0.20490668449754762,0.210296187489536
1112,cdot_cos,T,S-T,114,22,21872,-0.2656157843169592,-0.010950387357771757,-0.2655759443523381,2.7586661433378332e-06,874.0,2.632580144461252,0.5613304401082573,5.993370054085875,-0.010798538134916531,0.21,0.9999999999998236,157640.60087385308,0.5662562761118836,114,2026-10-07 19:31:37.956243,48.2,0.9519367828144593,0.18180942660335633,0.055104745368202084
1112,cdot_cos,P,T-P,115,23,22329,0.02903012858968558,0.0024896726827923813,0.29464591290664477,0.9999993205170404,861.0,2.6973681071073394,0.5625531661386116,6.032711681351837,-0.061298619197707974,0.457,0.9999999999998229,-41.301223503156194,0.5712235990990717,115,2026-10-07 19:31:38.413243,48.2,0.4387448809592591,0.09466346722394278,0.14176797077918427
1112,cdot_cos,Q,P-Q,116,23,22447,-0.0013893766797997296,-0.0016235781919535597,-0.03041950526948531,0.18751781189046043,861.0,2.719102553503936,0.5627823650644255,6.061352726213178,-0.020895254296943267,0.118,0.9999999999998136,176.28077774491103,0.576190773472323,116,2026-10-07 19:31:38.531244,48.2,0.14462451971353002,0.2870546560931481,0.18419022369997032
1112,cdot_cos,R,Q-R,117,23,22475,0.010429478178055009,0.26727206608035503,0.011818854857854739,0.6386867499229327,861.0,2.7651130059453224,0.5635628162350862,6.09586506712325,-0.04476922959750404,0.028,0.9999999999998097,-30.589966673186325,0.5811579076162124,117,2026-10-07 19:31:38.559244,48.2,0.5866848396108459,1.0429886294225048,1.6432304443352308
1112,cdot_cos,S,R-S,118,23,22522,-0.08249294605215554,0.27522301828607826,-0.09292242423021055,0.011219036095445825,861.0,2.777509916751596,0.5635765226734332,6.1220092317015355,-0.012190860189939543,0.047,0.9999999999998013,2376.866154639037,0.5861250509118965,118,2026-10-07 19:31:38.606244,48.2,0.0690889698927328,0.2575157928183182,0.26376405970795336
1112,cdot_cos,T,S-T,119,23,22750,-0.221914736974061,0.052559843599053184,-0.13942179092190546,0.0012049273837202261,861.0,2.7893194904702443,0.563577994742688,6.147911280708618,-0.01166399555140504,0.228,0.9999999999997928,357.9075079566248,0.5910922778402244,119,2026-10-07 19:31:38.834244,48.2,0.9558348155003474,0.17087022574464555,0.051796375958982906
1112,cdot_cos,P,T-P,120,24,23190,0.016786297155211776,0.0007964464385799921,0.23870103412927277,0.9999899244606756,824.0,2.8554267396911546,0.564799301631085,6.187067588951711,-0.06616400184936713,0.44,0.9999999999997923,-44.62433383102621,0.5960596059695289,120,2026-10-07 19:31:39.274244,48.2,0.43880030678358883,0.10245654525279874,0.15024374822934153
1112,cdot_cos,Q,P-Q,121,24,23308,-0.009118392518254055,-0.009763628300408778,-0.025904689673465833,0.22294153285318016,824.0,2.879481250292707,0.565071477767521,6.215787583272635,-0.024456189172857697,0.118,0.9999999999997828,153.23831553589292,0.6010267826003096,121,2026-10-07 19:31:39.392244,48.2,0.1816980003376859,0.3814194373169845,0.20385178475892046
1112,cdot_cos,R,Q-R,122,24,23335,0.07889061620485695,0.1704382465020796,0.088009008723111,0.9858254921024698,824.0,2.945441726897963,0.5662745414775778,6.254708096011122,-0.06807073559424687,0.027,0.9999999999997817,-36.25289837670206,0.6059939156377298,122,2026-10-07 19:31:39.419244,48.2,0.5269108610999359,1.466599014018577,2.4429806150094713
1112,cdot_cos,S,R-S,123,24,23384,-0.00023738020805029588,-0.0021912977264877237,-0.07912799641290724,0.021584278991310723,824.0,2.9586775970497103,0.5663008734229964,6.28058186218169,-0.013844840083982197,0.049,0.9999999999997725,2059.3197596417863,0.6109610601968126,123,2026-10-07 19:31:39.468243,48.2,0.019906951194344134,0.2576543640571048,0.2701197990152537
1112,cdot_cos,T,S-T,124,24,23610,-0.1762199021978842,0.013096220884166423,-0.17598252198983388,0.00020704702256019912,824.0,2.970691854575559,0.5663011260101586,6.306063815193537,-0.012620765905934474,0.226,0.9999999999997633,4846.145653062676,0.6159282936924431,124,2026-10-07 19:31:39.694243,48.2,0.907566081810173,0.17588966292873978,0.053160431530304586
1112,cdot_cos,P,T-P,125,25,24014,0.04667387713150608,0.01486300240928524,0.22289377932939028,0.9999784147802673,919.0,3.0381797246935007,0.5675206461841678,6.345075129211259,-0.07179764645241316,0.404,0.9999999999997619,-48.524724566002725,0.6208956197032982,125,2026-10-07 19:31:40.098243,48.2,0.4385780218377802,0.10482010971234478,0.16704918346025135
1112,cdot_cos,Q,P-Q,126,25,24139,-0.0010564173083322062,-0.0012399128883530633,-0.04773029443983828,0.09107326557027669,919.0,3.0553865032231338,0.5676316738517163,6.371651248045054,-0.01856248564715228,0.125,0.9999999999997511,479.4765303160005,0.6258628031221481,126,2026-10-07 19:31:40.223244,48.2,0.056818706465688706,0.2440840748067501,0.1376542282370643
1112,cdot_cos,R,Q-R,127,25,24166,0.0044991929094020545,0.3109607946864317,0.00555561021773426,0.5665479185339957,919.0,3.0992007433951883,0.5683222009722799,6.404667475805242,-0.047721388545323526,0.027,0.9999999999997451,-42.22702053233135,0.6308299355017996,127,2026-10-07 19:31:40.250243,48.2,0.542794885587485,1.042685443767354,1.622749636002018
1112,cdot_cos,S,R-S,128,25,24220,-0.10306049106909418,0.33480161660281604,-0.10755968397849623,0.0055722043197222034,919.0,3.111691517186571,0.5683289912428733,6.429910078706593,-0.013729052767454574,0.054,0.9999999999997342,5006.035519572675,0.6357970826615822,128,2026-10-07 19:31:40.304243,48.2,0.08408376190849619,0.22805193828126205,0.23131062576634512
1112,cdot_cos,T,S-T,129,25,24448,-0.2884403792225134,0.04283185783108224,-0.18537988815341924,0.00013163965465270893,919.0,3.1238303527295646,0.5683291516582304,6.4549798742442475,-0.013395133048447314,0.228,0.9999999999997238,2081.5944621850795,0.6407643226597737,129,2026-10-07 19:31:40.532243,48.2,0.9753797114516801,0.17731938788888607,0.05324050676751607
1112,cdot_cos,P,T-P,130,26,24933,0.014102704437933844,0.0006563970975507282,0.30254308366044724,0.9999995356267066,838.0,3.192549158063903,0.5695473295673642,6.493840291505015,-0.07676151858071292,0.485,0.9999999999997229,-52.01734907286447,0.6457317036947587,130,2026-10-07 19:31:41.017244,48.2,0.43801734519694796,0.10056120153654317,0.14168825842131627
1112,cdot_cos,Q,P-Q,131,26,25059,-0.004327542139972672,-0.0058911570251246196,-0.018430246577906515,0.2914529486638208,838.0,3.2213747182200114,0.5699022135635129,6.52283070828734,-0.032689902827667136,0.126,0.9999999999997117,124.1859769144968,0.6506988898969749,131,2026-10-07 19:31:41.143244,48.2,0.25971455284356837,0.3854798381228884,0.22877428695324195
1112,cdot_cos,R,Q-R,132,26,25084,0.0786938328562823,0.17568291081078707,0.08302137499625498,0.982042562486899,838.0,3.289690077270871,0.5710974545457908,6.561411973020522,-0.07859297565823459,0.025,0.9999999999997103,-38.40486856724631,0.6556660202336951,132,2026-10-07 19:31:41.168243,48.2,0.557629365596636,1.6407947939358891,2.7326143620343757
1112,cdot_cos,S,R-S,133,26,25138,0.0004156745248751443,-0.008860488640889954,-0.07827815833140715,0.02246650043864635,838.0,3.303414457916806,0.5711247888085667,6.586534140392612,-0.01598781857653756,0.054,0.9999999999996982,2290.3546949468023,0.6606331678188817,133,2026-10-07 19:31:41.222244,48.2,0.019924531426416998,0.24210637136133384,0.2541551971469456
1112,cdot_cos,T,S-T,134,26,25347,-0.15819268421521163,0.010369349846512749,-0.15860835874008677,0.0004782383813433484,838.0,3.315837565377895,0.5711253706609859,6.611255916035834,-0.014529327415922375,0.209,0.9999999999996866,2506.6341779685204,0.6656004050244603,134,2026-10-07 19:31:41.431243,48.2,0.9044913246865648,0.19731147748480354,0.05944070555544971
1112,cdot_cos,P,T-P,135,27,25771,0.022285836407260527,0.0017877854352776974,0.18047852062247216,0.9998332861055741,879.0,3.3858906555054538,0.572341393306961,6.650007885200997,-0.08289168958600418,0.424,0.9999999999996857,-56.21800087058757,0.670567770077225,135,2026-10-07 19:31:41.855244,48.2,0.4383580965476658,0.1130090169401038,0.1652195521876389
1112,cdot_cos,Q,P-Q,136,27,25894,-0.0029088230425995216,-0.0036052320761146084,-0.02519465944986005,0.2289265217010979,879.0,3.411669211743103,0.5726196971778876,6.677837773119251,-0.03093406103258678,0.123,0.9999999999996733,186.6938766622924,0.6755349583962477,136,2026-10-07 19:31:41.978244,48.2,0.18644384146638868,0.38890725175700797,0.20958175802966772
1112,cdot_cos,R,Q-R,137,27,25920,0.08662932846515091,0.1708961519974601,0.08953815150775044,0.9868193728190547,879.0,3.4815618394376777,0.5738188362514607,6.716379269380778,-0.08498998688688197,0.026,0.9999999999996715,-45.078946258690216,0.6805020887506078,137,2026-10-07 19:31:42.004243,48.2,0.5293915272795677,1.6049538149383036,2.6881779882528782
1112,cdot_cos,S,R-S,138,27,25975,-3.430638344391403e-05,-0.0003297743114244201,-0.08666363484859482,0.015109791417033062,879.0,3.4951268101198947,0.5738371902904023,6.741062639791495,-0.016694636999232595,0.055,0.9999999999996589,3720.998419207121,0.6854692376738816,138,2026-10-07 19:31:42.059244,48.2,0.016724916965077156,0.23823644179034142,0.24663583058576288
1112,cdot_cos,T,S-T,139,27,26187,-0.24811472030374662,0.033088108697231965,-0.2480804139203027,6.41108290051737e-06,879.0,3.5077678480346153,0.573837198077976,6.765442788947812,-0.015615975074639972,0.212,0.999999999999646,138510.65383894675,0.6904364843960858,139,2026-10-07 19:31:42.271244,48.2,0.9332573736848132,0.19813311458148342,0.05962753733358773
1112,cdot_cos,P,T-P,140,28,26650,0.026734041916700244,0.0020227510797690197,0.27484876222044685,0.9999982356215869,920.0,3.5791352507024436,0.5750514529646846,6.804102615063263,-0.08915463875444918,0.463,0.999999999999645,-60.56278997496229,0.6954038915121148,140,2026-10-07 19:31:42.734244,48.2,0.43830338786824113,0.10334946275809606,0.15414125846183233
1112,cdot_cos,Q,P-Q,141,28,26776,-0.002520090555446255,-0.002865404571698973,-0.029254132472146498,0.19622629869117117,920.0,3.6034694505486122,0.5752896163517214,6.831187919721811,-0.03080512459981174,0.126,0.9999999999996305,244.9978348083952,0.7003710853472109,141,2026-10-07 19:31:42.860243,48.2,0.15044622151477924,0.38037334540985324,0.19312857020768714
1112,cdot_cos,R,Q-R,142,28,26799,0.09968482648622899,0.17071539271354158,0.10220491704167525,0.9927987760855741,920.0,3.6749893337457267,0.5764940561208776,6.869721775307856,-0.09167798693111434,0.023,0.9999999999996283,-50.540395535053904,0.7053382129108812,142,2026-10-07 19:31:42.883244,48.2,0.5147954761073784,1.8459476426400885,3.1095601390049756
1112,cdot_cos,S,R-S,143,28,26857,-0.0002704386857731258,-0.0016837985310308894,-0.09995526517200212,0.008019369478284036,920.0,3.6883830421100563,0.5765037813485795,6.893984788600424,-0.017368961033534087,0.058,0.9999999999996146,7640.852037103686,0.7103053643741556,143,2026-10-07 19:31:42.941243,48.2,0.013866693707681193,0.22646259705960298,0.23092600628154528
1112,cdot_cos,T,S-T,144,28,27066,-0.21451008270350205,0.05763498751832173,-0.21423964401772894,3.275733670230077e-05,920.0,3.7012589950046406,0.5765038210738452,6.918048118433339,-0.016757105733895234,0.209,0.9999999999996001,15402.170084605908,0.7152726167814072,144,2026-10-07 19:31:43.150244,48.2,0.9641453816757654,0.20458686822687472,0.06160743011762832
1112,cdot_cos,P,T-P,145,29,27570,0.025702814071565404,0.0024226044249600035,0.24021289677506746,0.9999906325626285,852.0,3.77390035302889,0.5777160600930406,6.956624911097479,-0.09555818984968059,0.504,0.9999999999995992,-65.00457654637574,0.7202400710154463,145,2026-10-07 19:31:43.654243,48.2,0.43839288438271445,0.097352676381037,0.1441296786195423
1112,cdot_cos,Q,P-Q,146,29,27694,-0.0020057225238416126,-0.0026641222160551747,-0.027708536595407018,0.20824257059558393,852.0,3.799390492796726,0.5779683849916621,6.983621080822717,-0.03396647170025666,0.124,0.9999999999995828,244.0968706849344,0.7252072670867705,146,2026-10-07 19:31:43.778244,48.2,0.16311345549801606,0.3945374265624067,0.20556564328899987
1112,cdot_cos,R,Q-R,147,29,27721,0.08590133630722797,0.19017273050323316,0.08790705883106958,0.9857566619051318,852.0,3.871745634816367,0.5791622595314905,7.0219717665258985,-0.09758622502494564,0.027,0.9999999999995802,-53.288474795548346,0.7301743963118053,147,2026-10-07 19:31:43.805243,48.2,0.5210372478015137,1.6009007187690483,2.679820074801514
1112,cdot_cos,S,R-S,148,29,27775,-1.0610257358137445e-06,-1.7157378449966198e-05,-0.08590239733296379,0.01566564471325159,852.0,3.8858391316102545,0.5791812251524203,7.0460462624329825,-0.019222037182273236,0.054,0.9999999999995648,4131.907314426793,0.7351415454175685,148,2026-10-07 19:31:43.859244,48.2,0.016961844456921102,0.2518469035851306,0.26099068136829107
1112,cdot_cos,T,S-T,149,29,27985,-0.2602982508711629,0.005012688220675682,-0.26029718984542705,3.5579425751337925e-06,852.0,3.898945100403561,0.5791812294598189,7.0698104554368575,-0.017937827132046728,0.21,0.9999999999995489,298140.52162382874,0.7401088062285929,149,2026-10-07 19:31:44.069243,48.2,0.9309103636383095,0.2071495967346026,0.0624093752062209
1112,cdot_cos,P,T-P,150,30,28422,0.02752228962253455,0.0020693179044824974,0.28782054049369743,0.9999990558218741,920.0,3.9728419622387876,0.5803913929251838,7.108316459778725,-0.1021901829936928,0.437,0.9999999999995475,-69.620640742313,0.7450762336407253,150,2026-10-07 19:31:44.506243,48.2,0.4384689675385724,0.11411925160231105,0.16910037033232656
1112,cdot_cos,Q,P-Q,151,30,28548,-0.0003694912071176588,-0.000415060663334449,-0.02789178082965221,0.20679006268689767,920.0,3.9986853263039808,0.580641522849919,7.135045296031241,-0.036185002781568915,0.126,0.9999999999995307,263.8835808310799,0.750043435177109,151,2026-10-07 19:31:44.632244,48.2,0.16136228518831688,0.3161314159587559,0.20510606400946954
1112,cdot_cos,R,Q-R,152,30,28568,0.013671736391212639,0.28346570761860107,0.014041227598330298,0.6630212502836683,920.0,4.052507079060394,0.5814432226637988,7.1685163390403615,-0.0760718934316748,0.02,0.9999999999995227,-49.75289997521052,0.7550105583714728,152,2026-10-07 19:31:44.652243,48.2,0.5919509462082865,1.6947788834783206,2.691087637820666
1112,cdot_cos,S,R-S,153,30,28614,-0.08014017338403001,0.31091518412779917,-0.09381190977524265,0.01075326818302673,920.0,4.066476481643114,0.5814562215701101,7.192219105418306,-0.019910489991182955,0.046,0.9999999999995052,4320.471437775771,0.7599777017156215,153,2026-10-07 19:31:44.698244,48.2,0.05956457921138469,0.29609330652985194,0.30368266484172834
1112,cdot_cos,T,S-T,154,30,28844,-0.28192246445016517,0.05371439664817309,-0.20178229106613516,5.97126812513799e-05,920.0,4.0797476632611405,0.5814562937524588,7.215685706356098,-0.018978783993973538,0.23,0.9999999999994882,12907.670844543976,0.7649449844679735,154,2026-10-07 19:31:44.928244,48.2,0.9520935564727706,0.1920356572539851,0.057700789643595096
1112,cdot_cos,P,T-P,155,31,29342,0.02098037873672039,0.001361424353668792,0.30290284318688554,0.9999995436097115,881.0,4.154812883979947,0.5826646295816699,7.254119087526555,-0.10842452492466229,0.498,0.9999999999994865,-74.02390855949929,0.7699124749944674,155,2026-10-07 19:31:45.426244,48.2,0.43825314933752835,0.10341859177982007,0.150733374937362
1112,cdot_cos,Q,P-Q,156,31,29466,-0.003546975802711611,-0.003982389242260479,-0.024527354539432,0.2346535405327054,881.0,4.182752580673841,0.5829480268134115,7.281021678387737,-0.04085314215721864,0.124,0.999999999999468,238.4334608781368,0.7748796779626885,156,2026-10-07 19:31:45.550244,48.2,0.1912819059182901,0.4153209491376936,0.22532013462818154
1112,cdot_cos,R,Q-R,157,31,29489,0.09388049347417982,0.17319746534821162,0.09742746927689143,0.9909509388926031,881.0,4.257812479366095,0.5841442178623886,7.319309271458156,-0.11101631365608067,0.023,0.999999999999465,-58.65548948795697,0.7798468021352198,157,2026-10-07 19:31:45.573244,48.2,0.531523558285445,1.9404764477769847,3.2634738561849344
1112,cdot_cos,S,R-S,158,31,29533,-0.00017401220065215844,-0.0008488849517316931,-0.09405450567483198,0.01062958996087598,881.0,4.272014497271583,0.5841570436470337,7.342743381572009,-0.02122725244400756,0.044,0.9999999999994458,7000.668083588257,0.7848139438502475,158,2026-10-07 19:31:45.617243,48.2,0.014553910240743243,0.31542859839583937,0.322773134215632
1112,cdot_cos,T,S-T,159,31,29763,-0.1450684350311526,0.03798736054863113,-0.14489442283050044,0.0009258138003612529,881.0,4.285570196024929,0.5841581607391431,7.3659573470278605,-0.0203271405089781,0.23,0.9999999999994265,805.7633989882877,0.789781235947435,159,2026-10-07 19:31:45.847244,48.2,0.956684816984078,0.19525764901957565,0.058937820666721985
1112,cdot_cos,P,T-P,160,32,30223,0.01910540591547778,0.0009778228177130916,0.16417384094663037,0.9996342443082128,859.0,4.361833015820587,0.5853638182538436,7.404335009721434,-0.11546121353592775,0.46,0.9999999999994249,-78.9063825066236,0.7947487184596298,160,2026-10-07 19:31:46.307244,48.2,0.4386961174638927,0.11562671795365263,0.16578873868621466
1112,cdot_cos,Q,P-Q,161,32,30349,-0.002395979680381636,-0.003124456038165885,-0.021501385595859415,0.26185163316792964,859.0,4.391946776542289,0.5856794688510155,7.431442868952433,-0.04614254708894171,0.126,0.9999999999994053,219.60568764342563,0.7997159272988094,161,2026-10-07 19:31:46.433243,48.2,0.22262373589657242,0.4205504573148819,0.23899810096588642
1112,cdot_cos,R,Q-R,162,32,30371,0.08383517449783007,0.17193109719202027,0.0862311541782117,0.9845768394288683,859.0,4.467811731063938,0.586865701301693,7.46958446931643,-0.11755403432532967,0.022,0.9999999999994021,-60.20024759531913,0.8046830495878926,162,2026-10-07 19:31:46.455244,48.2,0.5447229406556843,2.061973476403659,3.4484070237112974
1112,cdot_cos,S,R-S,163,32,30430,-4.145641091564968e-05,-0.0009831854804220129,-0.08387663090874571,0.017244728770217026,859.0,4.48267360950405,0.5868864690614559,7.4928684082936465,-0.023264211845401943,0.059,0.9999999999993816,4540.201907014823,0.8096502042988372,163,2026-10-07 19:31:46.514244,48.2,0.017370206840766792,0.2423034959405299,0.25189624474766853
1112,cdot_cos,T,S-T,164,32,30642,-0.24894771299039872,0.03409009915494062,-0.24890625657948307,6.1608997482968386e-06,859.0,4.49640354358492,0.5868864764809482,7.515817626499438,-0.02156096591698962,0.212,0.9999999999993606,229563.67803507744,0.8146174907794409,164,2026-10-07 19:31:46.726244,48.2,0.9240429406893416,0.21514610241571366,0.06476384000410419
1112,cdot_cos,P,T-P,165,33,31082,0.020110023289714826,0.001478124046299072,0.26905773628011354,0.9999976675357266,957.0,4.573895556928313,0.5880902388222556,7.554159572117061,-0.12281999532939646,0.44,0.9999999999993584,-84.11878818407233,0.8195849781144137,165,2026-10-07 19:31:47.166244,48.2,0.43847578718091557,0.12155227486484152,0.1761182121440739
1112,cdot_cos,Q,P-Q,166,33,31211,-0.003319596600865324,-0.0036697498287228585,-0.02342961989058015,0.24428888897298875,957.0,4.603369545465981,0.5883841457554261,7.580803315420348,-0.04725521420574324,0.129,0.9999999999993372,257.10445244866776,0.8245521941603169,166,2026-10-07 19:31:47.295244,48.2,0.2020827194883692,0.4144181155706748,0.22848053129975215
1112,cdot_cos,R,Q-R,167,33,31234,0.09382811100427406,0.15233196226369047,0.09714770760513938,0.9908292169168573,957.0,4.680815430745547,0.5895755760698403,7.618999490206447,-0.1255044939837901,0.023,0.9999999999993343,-65.67675744973468,0.8295193163207732,167,2026-10-07 19:31:47.318244,48.2,0.5360767641962508,2.0025419587985747,3.367212403459395
1112,cdot_cos,S,R-S,168,33,31291,-0.0004345267732410052,-0.0021846235891833823,-0.09426263777751506,0.010524604048073882,957.0,4.695486475570715,0.5895882258491306,7.641940767859144,-0.02401075294075586,0.057,0.9999999999993117,8023.360622668263,0.8344864701825018,168,2026-10-07 19:31:47.375243,48.2,0.01459593797714893,0.251871987266371,0.2573867513187429
1112,cdot_cos,T,S-T,169,33,31501,-0.1372044755755448,0.07062579144885625,-0.13676994880230378,0.001368990788977077,957.0,4.709528837293913,0.5895898712639701,7.664672293101279,-0.02305219529193351,0.21,0.9999999999992896,582.5629049991272,0.8394537640846929,169,2026-10-07 19:31:47.585243,48.2,0.9592706193143679,0.22065984538654732,0.06686838915808548
1112,cdot_cos,P,T-P,170,34,32039,0.014991929063475653,0.0008248132562856175,0.15219640463902046,0.9993486856957906,860.0,4.788163610633065,0.5907904694386006,7.702969366927757,-0.13024360892728415,0.538,0.9999999999992876,-89.28167300299499,0.8444213639573622,170,2026-10-07 19:31:48.123244,48.2,0.4391092260033324,0.10233525390738486,0.1461612887344831
1112,cdot_cos,Q,P-Q,171,34,32166,-0.0058429934725965586,-0.006900893736494085,-0.020834922536072213,0.26810796300058465,860.0,4.819641570498259,0.5911123856867506,7.7298018159359385,-0.05272896698820822,0.127,0.999999999999264,240.79133123764882,0.8493885824206525,171,2026-10-07 19:31:48.250243,48.2,0.22991214036236102,0.43200537796257066,0.24785795169444247
1112,cdot_cos,R,Q-R,172,34,32187,0.0812548638116507,0.1629875718097498,0.08709785728424727,0.9851985306868354,860.0,4.897892976635558,0.5922946371033886,7.767875754334573,-0.1324576115522284,0.021,0.9999999999992597,-67.43797760949082,0.8543557011555084,172,2026-10-07 19:31:48.271244,48.2,0.5477599252196075,2.2339222271100576,3.726257435109464
1112,cdot_cos,S,R-S,173,34,32246,0.0012961372265793323,-0.012450029115469077,-0.07995872658507137,0.020754676109021396,860.0,4.913466304036882,0.5923195315563198,7.7907514844590215,-0.026615282845099016,0.059,0.9999999999992354,4251.643086903119,0.8593228573870388,173,2026-10-07 19:31:48.330244,48.2,0.018746464587550773,0.25266283493144465,0.2639547017173503
1112,cdot_cos,T,S-T,174,34,32460,-0.14364016404017818,0.01954964894869643,-0.14493630126675752,0.0009239486173672686,860.0,4.927707191157468,0.5923206397868992,7.813250291078787,-0.0244120396167809,0.214,0.9999999999992106,1988.072941894891,0.8642901641985069,174,2026-10-07 19:31:48.544243,48.2,0.9137006106097805,0.2197746942704347,0.06654620149806915
1112,cdot_cos,P,T-P,175,35,32899,0.018392964687162894,0.000863725669998129,0.16203312872734107,0.9995945051487369,879.0,5.007529873184628,0.5935190515575925,7.851523590677609,-0.13801422702267463,0.439,0.9999999999992073,-94.79395161495124,0.8692576943314754,175,2026-10-07 19:31:48.983244,48.2,0.4390599136787681,0.1274698270300394,0.1818284328636885
1112,cdot_cos,Q,P-Q,176,35,33022,-0.0022169515124601403,-0.002446426227298023,-0.020609916199623032,0.2702414394568883,879.0,5.039625699289843,0.5938428529853114,7.878220508972726,-0.056105029434168646,0.123,0.999999999999183,252.9611996017334,0.8742249137067982,176,2026-10-07 19:31:49.106244,48.2,0.23225343441105736,0.454347400953989,0.26094167565215715
1112,cdot_cos,R,Q-R,177,35,33043,0.09170394309036167,0.16928336005637526,0.09392089460282181,0.9893024686719653,879.0,5.119299333819309,0.5950275305433395,7.9163312705505975,-0.14069199421104608,0.021,0.9999999999991788,-71.40083325092557,0.8791920313374036,177,2026-10-07 19:31:49.127244,48.2,0.5481420109806169,3.0297493572429675,3.793982596641236
1112,cdot_cos,S,R-S,178,35,33088,0.09170394309036167,0.16928336005637526,0.0,0.5,879.0,5.166875172294048,0.5956258544989531,7.946644912678325,-0.08502403588436257,0.045,0.9999999999991643,93.03982868208765,0.8841591745740442,178,2026-10-07 19:31:49.172243,48.2,0.5195812839911331,0.6896580174194453,1.0572408549941927
1112,cdot_cos,T,S-T,179,35,33318,-0.25349637557609195,0.05525132638154644,-0.3452003186664536,5.941878474092672e-08,879.0,5.181368555387059,0.5956258545700397,7.9689356894177985,-0.02605780832832865,0.23,0.9999999999991384,829498713.7061062,0.8891265108140991,179,2026-10-07 19:31:49.402244,48.2,0.10404825445137289,0.20779984461869652,0.06301470910004957
1112,cdot_cos,P,T-P,180,36,33778,0.020491846155957963,0.0015139524838992484,0.2739882217320499,0.999998160899798,918.0,5.262463100818648,0.5968216462566303,8.00720763644625,-0.14700689880915524,0.46,0.9999999999991349,-101.14561912173525,0.8940940916940281,180,2026-10-07 19:31:49.862243,48.2,0.43922462764090825,0.12143287789175017,0.17629249006867173
1112,cdot_cos,Q,P-Q,181,36,33904,-0.003445541981432027,-0.003699651519825535,-0.02393738813738999,0.2397989437313189,918.0,5.293086803047469,0.5971082259674616,8.03327489139347,-0.0560950425739613,0.126,0.9999999999991075,317.2306091434915,0.899061320395511,181,2026-10-07 19:31:49.988243,48.2,0.1977650810544602,0.44321987765945126,0.24304525578429492
1112,cdot_cos,R,Q-R,182,36,33926,0.09623116450359533,0.16225103740764268,0.09967670648502736,0.9918731130899718,918.0,5.37415450998883,0.5982928908075089,8.071417747697998,-0.14992283840200715,0.022,0.9999999999991022,-79.20197566114875,0.9040284380000946,182,2026-10-07 19:31:50.010243,48.2,0.5348116886310562,2.1919448626886897,3.684895770061844
1112,cdot_cos,S,R-S,183,36,33985,-0.00032136534368466867,-0.0023711358394230943,-0.09655252984728,0.009435162340588877,918.0,5.3895323770057715,0.5983041544088553,8.09371395389734,-0.028695979459569164,0.059,0.999999999999074,10762.708587975392,0.9089955969336596,183,2026-10-07 19:31:50.069243,48.2,0.01463229547040683,0.25527574596662106,0.2606418138464707
1112,cdot_cos,T,S-T,184,36,34197,-0.15487183377444644,0.05743951452364744,-0.15455046843076176,0.0005814914793613818,918.0,5.404277048012891,0.5983048485841053,8.115807227889627,-0.027591384132285672,0.212,0.9999999999990453,1591.234097390671,0.9139629241881952,184,2026-10-07 19:31:50.281244,48.2,0.9607567082763413,0.22867207917620858,0.069550334939243
1112,cdot_cos,P,T-P,185,37,34696,0.02066615585826772,0.0016023252738123378,0.17553798963271416,0.9997884697730989,844.0,5.486489338576484,0.599497794930974,8.154057111790964,-0.15507154546110194,0.499,0.9999999999990417,-106.86160501973032,0.9189305729844106,185,2026-10-07 19:31:50.780244,48.2,0.43951949825463615,0.11339422637919107,0.16475408930579744
1112,cdot_cos,Q,P-Q,186,37,34813,-0.0034383185820361147,-0.0040552874490355426,-0.024104474440303836,0.23833389473729905,844.0,5.517444485939324,0.5997820011934399,8.179941790173896,-0.058981437464959256,0.117,0.9999999999990113,338.0998967524722,0.9238977961124106,186,2026-10-07 19:31:50.897243,48.2,0.19609452554212764,0.4819406648249024,0.2645739090841006
1112,cdot_cos,R,Q-R,187,37,34841,0.08557627081701968,0.17341105180283567,0.0890145893990558,0.9864870699393088,844.0,5.599263454145511,0.6009576424517429,8.217978107240892,-0.15733939194958246,0.028,0.9999999999990052,-83.66323807536727,0.9288649190734485,187,2026-10-07 19:31:50.925244,48.2,0.5351905551387914,1.7472777190040225,2.922106007363835
1112,cdot_cos,S,R-S,188,37,34887,-0.00012220032856327263,-0.0008235380138344868,-0.08569847114558296,0.015817937697582687,844.0,5.615292038203549,0.600976483966304,8.24018034438117,-0.0310940810049496,0.046,0.999999999998974,6700.380191581131,0.9338320636233329,188,2026-10-07 19:31:50.971244,48.2,0.01724716525006694,0.3363785272411343,0.3484474795225623
1112,cdot_cos,T,S-T,189,37,35116,-0.20367732442340195,0.03590891438085829,-0.20355512409483867,5.4822393593336774e-05,844.0,5.630210278651695,0.6009765492674023,8.262067553740984,-0.029019969463196692,0.229,0.999999999998943,31762.276524324803,0.9387994205224904,189,2026-10-07 19:31:51.200243,48.2,0.931022465063819,0.21454145409047135,0.06514515479539952
1112,cdot_cos,P,T-P,190,38,35540,0.0223859921978552,0.001593216521762081,0.22606331662125714,0.9999814727954259,955.0,5.713552024176985,0.6021670667392904,8.300306329975426,-0.16337358886031508,0.424,0.9999999999989378,-112.85312695498345,0.9437670085371012,190,2026-10-07 19:31:51.624243,48.2,0.4393888492521023,0.13464972882275508,0.19656072057851273
1112,cdot_cos,Q,P-Q,191,38,35664,-0.0026227053477439677,-0.0028393584484432194,-0.02500869754559917,0.2305125702824937,955.0,5.744393248693392,0.6024413302502073,8.325911267908522,-0.061051845773323274,0.124,0.9999999999989061,373.0782222721895,0.9487342445840034,191,2026-10-07 19:31:51.748243,48.2,0.18712449096831682,0.4006937580795457,0.2487195525516687
1112,cdot_cos,R,Q-R,192,38,35691,0.023334419214273514,0.25655975301450473,0.025957124562017483,0.7774959971484058,955.0,5.812924076180712,0.6033659184836374,8.360489923597095,-0.13672823987390298,0.027,0.9999999999988933,-81.84875316856377,0.9537013654219902,192,2026-10-07 19:31:51.775244,48.2,0.5749453131375573,1.562362912295184,2.538178795826682
1112,cdot_cos,S,R-S,193,38,35745,-0.07114882619384484,0.28975123786071605,-0.09448324540811835,0.010414445110549836,955.0,5.828760845957332,0.6033782982130376,8.382405729863452,-0.031826812025207554,0.054,0.9999999999988598,8473.644653925552,0.9586685197009542,193,2026-10-07 19:31:51.829243,48.2,0.037030698353443574,0.28638246251914506,0.29327351438184296
1112,cdot_cos,T,S-T,194,38,35955,-0.25153494560942846,0.07517644449088486,-0.18038611941558363,0.00016745792575422678,955.0,5.84385338213278,0.6033784972704545,8.4040965328803,-0.0304117201899317,0.21,0.9999999999988255,7108.963119455088,0.9636358636027975,194,2026-10-07 19:31:52.039244,48.2,0.9545348413701258,0.2368986330560612,0.07186921988308641
1112,cdot_cos,P,T-P,195,39,36495,0.017256601565168495,0.0008673894557844408,0.26879154717459697,0.9999976374167413,878.0,5.928258271840877,0.6045665829202067,8.442319579478829,-0.17134990915496842,0.54,0.9999999999988212,-118.62628674492072,0.9686036152064929,195,2026-10-07 19:31:52.579243,48.2,0.4393245442016862,0.10607409163632037,0.15630535131129178
1112,cdot_cos,Q,P-Q,196,39,36621,-0.009574288989532892,-0.0096760439798036,-0.026830890554701385,0.21530340428409345,878.0,5.958413401100006,0.6048222214623832,8.467518218083097,-0.06179967098480709,0.126,0.9999999999987845,428.53568651059044,0.9735708574021568,196,2026-10-07 19:31:52.705244,48.2,0.1698793137742876,0.4538170961804323,0.2393264226914956
1112,cdot_cos,R,Q-R,197,39,36643,0.08593548241957262,0.16070246513833805,0.0955097714091055,0.9900833206733016,878.0,6.042620180078346,0.6059970482377882,8.505581089842128,-0.17405242219532352,0.022,0.9999999999987768,-95.54834258166778,0.9785379702710787,197,2026-10-07 19:31:52.727243,48.2,0.524695885693808,2.2929801276533626,3.8275808626518413
1112,cdot_cos,S,R-S,198,39,36702,0.004723188737418829,-0.03510161677392502,-0.0812122936821538,0.019561577028270247,878.0,6.059304526716754,0.6060202475927433,8.527467958860653,-0.0347751662924105,0.059,0.99999999999874,6003.496915000539,0.9835051310790541,198,2026-10-07 19:31:52.786243,48.2,0.018222866541553088,0.2724291378916036,0.28278553624419417
1112,cdot_cos,T,S-T,199,39,36914,-0.11893789341857086,0.025768708940621384,-0.12366108215598969,0.002572082092116663,878.0,6.074766818349556,0.6060232979577457,8.54901789350226,-0.03231355993844698,0.212,0.9999999999987023,806.9874759427495,0.9884724873634921,199,2026-10-07 19:31:52.998244,48.2,0.9266505601430608,0.2379230011051699,0.0729353378905744
1112,cdot_cos,P,T-P,200,40,37373,0.023371459430188292,-9.242931362629631e-05,0.14230935284875915,0.9989514634971893,840.0,6.160183879185346,0.6072073791384173,8.587216497740812,-0.17980078506981723,0.459,0.9999999999986969,-124.55837280322098,0.9934401648949072,200,2026-10-07 19:31:53.457243,48.2,0.4403077701469026,0.12657320921755488,0.1860938144570594
1112,cdot_cos,Q,P-Q,201,40,37483,-0.0030563991582997028,-0.0033425229605010946,-0.026427858588487993,0.21860355686680583,840.0,6.190961024411271,0.6074663277125848,8.612329361863928,-0.06538514836254648,0.11,0.9999999999986584,441.84694615560636,0.9984073912941813,201,2026-10-07 19:31:53.567244,48.2,0.17379619758270348,0.5284791614915947,0.279792229326592
1112,cdot_cos,R,Q-R,202,40,37509,0.09993419117055645,0.17545962148610475,0.10299059032885616,0.9930645274562419,840.0,6.276449294713497,0.6086419074524958,8.650434665186614,-0.183131611637429,0.026,0.9999999999986514,-100.16033730199912,1.0033745081663048,202,2026-10-07 19:31:53.593244,48.2,0.5257334803476071,1.9532957609255537,3.288010396239451
1112,cdot_cos,S,R-S,203,40,37563,-5.61365890072783e-05,-0.00037963585496082714,-0.09999032775956372,0.008005936467386066,840.0,6.2925324039794,0.6086513796984926,8.671955141163997,-0.034733380965143,0.054,0.9999999999986114,15666.636056812049,1.008341663311179,203,2026-10-07 19:31:53.647244,48.2,0.013946928367721365,0.29225015903815105,0.2978353567759826
1112,cdot_cos,T,S-T,204,40,37775,-0.29262351821115856,-0.004670922308504575,-0.2925673816221513,7.510838462529588e-07,840.0,6.308012311889617,0.6086513805871357,8.693288420200782,-0.03351464730646008,0.212,0.999999999998571,1371454.4992103586,1.0133090303358,204,2026-10-07 19:31:53.859244,48.2,0.9642890262174243,0.24066298583486812,0.07301843353876061
1112,cdot_cos,P,T-P,205,41,38213,0.021945984754378405,0.0018103156202358838,0.314569502965537,0.9999997399131707,898.0,6.394573509973384,0.6098338873333092,8.7315005201421,-0.1887212719340285,0.438,0.9999999999985653,-131.25221072083275,1.0182767059164972,205,2026-10-07 19:31:54.297244,48.2,0.43937064623346395,0.13647901949667354,0.19762830612732155
1112,cdot_cos,Q,P-Q,206,41,38339,-0.0014843869133820548,-0.0017909350022608838,-0.02343037166776046,0.2442821995035359,898.0,6.427567932968703,0.6101225572510652,8.756914510800753,-0.07259232568947835,0.126,0.999999999998526,402.2897402933001,1.0232439587328912,206,2026-10-07 19:31:54.423244,48.2,0.2019487420937341,0.47405101324109605,0.26186049996285066
1112,cdot_cos,R,Q-R,207,41,38362,0.09819808380636176,0.18038796993431364,0.09968247071974382,0.9918753523765642,898.0,6.51403436531014,0.6112938686858935,8.794995731846042,-0.19180122043028383,0.023,0.9999999999985186,-101.7738674755453,1.0282110703987437,207,2026-10-07 19:31:54.446244,48.2,0.5371257022949422,2.234868915878642,3.7594101018016097
1112,cdot_cos,S,R-S,208,41,38421,-8.816555714879292e-05,-0.0008284327481868572,-0.09828624936351055,0.0086853248068596,898.0,6.5303719030991205,0.6113041195846631,8.81636190934703,-0.036527732692167636,0.059,0.9999999999984761,15147.304761074987,1.033178233395492,208,2026-10-07 19:31:54.505243,48.2,0.014252280198671993,0.27133203388120747,0.276907420152212
1112,cdot_cos,T,S-T,209,41,38632,-0.2518845961995854,0.0225638917760461,-0.2517964306424366,5.359749512429184e-06,898.0,6.5460515453081225,0.6113041259105044,8.837529783702882,-0.035142845653483655,0.211,0.9999999999984335,218925.35301642603,1.038145610131191,209,2026-10-07 19:31:54.716243,48.2,0.9613590028165981,0.24479293638893823,0.07431110051659705
1112,cdot_cos,P,T-P,210,42,39111,0.017884193286231597,0.0009230810480563241,0.269768789485817,0.9999977461211824,821.0,6.6336745222552524,0.6124837180843026,8.875741040399058,-0.19772119649155523,0.479,0.9999999999984276,-137.82589817851044,1.0431133699563284,210,2026-10-07 19:31:55.195244,48.2,0.4394371366133841,0.1286269475691902,0.1829289706620667
1112,cdot_cos,Q,P-Q,211,42,39201,-0.002253301453884191,-0.0018921806565196171,-0.020137494740115787,0.2747554963386229,821.0,6.669276161079407,0.6128075880644469,8.901553567282404,-0.08106125826580814,0.09,0.9999999999983865,360.20608694192066,1.0480805762799965,211,2026-10-07 19:31:55.285243,48.2,0.23712739465623697,0.6808616714664595,0.39557376471282485
1112,cdot_cos,R,Q-R,212,42,39256,0.08324881469508118,0.18384207438098052,0.08550211614896537,0.9840340472950612,821.0,6.756229623119215,0.6139667053169865,8.939499401504712,-0.1995866295392508,0.055,0.9999999999983789,-102.25485904360193,1.0530477333104364,212,2026-10-07 19:31:55.340243,48.2,0.5521948723290038,0.9468677152415627,1.5809720370874267
1112,cdot_cos,S,R-S,213,42,39300,-2.7466718886516946e-05,-0.0002430439908461691,-0.0832762814139677,0.017742044068613832,821.0,6.773431609755979,0.6139875922854046,8.960863170097303,-0.03978972258653476,0.044,0.9999999999983333,7650.55530100306,1.0580148751595622,213,2026-10-07 19:31:55.384243,48.2,0.018024295005936684,0.37597063434698225,0.39095424174462323
1112,cdot_cos,T,S-T,214,42,39531,-0.21825740396150364,0.015842419933390018,-0.21822993724261713,2.702603218411612e-05,821.0,6.78931503894175,0.6139876241017048,8.98187389681568,-0.03682962608709249,0.231,0.9999999999982881,93037.10598511974,1.06298229266004,214,2026-10-07 19:31:55.615244,48.2,0.9227723647578424,0.22632163341932635,0.06875943370463643
1112,cdot_cos,P,T-P,215,43,39932,0.022787040421213933,0.0018649884727056072,0.24104444438271758,0.9999910005871236,895.0,6.877992204395707,0.6151641913566505,9.020087173402269,-0.20696914305008168,0.401,0.9999999999982808,-144.60670756203425,1.0679499658308387,215,2026-10-07 19:31:56.016243,48.2,0.4395285627087688,0.15115575228188316,0.22114006347620388
1112,cdot_cos,Q,P-Q,216,43,40059,-0.0026347374676958554,-0.003181246620714256,-0.02542177788890979,0.2269998836382817,895.0,6.91054195227182,0.6154310874740209,9.0449627121724,-0.07662380781746243,0.127,0.9999999999982363,488.3747898502454,1.0729172313363051,216,2026-10-07 19:31:56.143244,48.2,0.18248131148232402,0.47621418459042186,0.25629722737096483
1112,cdot_cos,R,Q-R,217,43,40081,0.0924509730357212,0.17280412901635606,0.09508571050341705,0.9898806129222625,895.0,6.9989506072816745,0.6165941301870518,9.083008716066871,-0.20970487106890412,0.022,0.9999999999982289,-114.42491471755969,1.077884338859853,217,2026-10-07 19:31:56.165244,48.2,0.5301415587585188,2.3944691401604037,4.018575227720665
1112,cdot_cos,S,R-S,218,43,40140,-3.704060926699234e-05,-0.0003315800597607211,-0.09248801364498818,0.011453704535397726,895.0,7.015898594438878,0.6166075797376447,9.104111809662305,-0.040504517758134975,0.059,0.9999999999981811,12580.372269096344,1.0828515041310887,218,2026-10-07 19:31:56.224244,48.2,0.01533955453144759,0.27984610965923346,0.2872540196136125
1112,cdot_cos,T,S-T,219,43,40350,-0.24067690524544277,0.04842855942524467,-0.2406398646361758,9.176628816144821e-06,895.0,7.031972448221464,0.6166075905132601,9.124969087117993,-0.0385059147938519,0.21,0.9999999999981326,185474.60076278655,1.0878189021195377,219,2026-10-07 19:31:56.434243,48.2,0.949420204957204,0.25187032420468064,0.0765421608694591
1112,cdot_cos,P,T-P,220,44,40827,0.02968352343451014,0.0012359432560105214,0.2703604286799529,0.9999978094871269,898.0,7.1216841306048435,0.6177811513149029,9.16318551455655,-0.2162761879325087,0.477,0.9999999999981266,-151.4793889586385,1.0927867180800281,220,2026-10-07 19:31:56.911244,48.2,0.439569461799442,0.1246632197818607,0.18807480583517705
1112,cdot_cos,Q,P-Q,221,44,40940,-0.0022434718497071084,-0.00230819967584044,-0.03192699528421725,0.17669797820886424,898.0,7.150901159893359,0.6179883752650521,9.187068406209564,-0.0710133483657356,0.113,0.9999999999980752,700.9944529198233,1.0977539668893481,221,2026-10-07 19:31:57.024243,48.2,0.12930634674494332,0.5267637627658234,0.2585577813142979
1112,cdot_cos,R,Q-R,222,44,40968,0.10948021124169566,0.17468371546494166,0.11172368309140276,0.9954364548617307,898.0,7.24073274098992,0.6191549774542633,9.22521221605203,-0.21990296264527523,0.028,0.9999999999980674,-127.62672285075709,1.1027210823296802,222,2026-10-07 19:31:57.052243,48.2,0.5081037524713562,1.9017336424723854,3.2082707534485864
1112,cdot_cos,S,R-S,223,44,41020,-5.654450056656183e-05,-0.0002575725343650093,-0.10953675574226222,0.005068284918344288,898.0,7.257398243871813,0.6191609137278146,9.246055006062923,-0.04109793729953511,0.052,0.9999999999980163,30120.75232066736,1.1076882371736672,223,2026-10-07 19:31:57.104243,48.2,0.012897708937732842,0.3166805118391702,0.3204904400364071
1112,cdot_cos,T,S-T,224,44,41248,-0.1762579304317717,0.07207339768922849,-0.17620138593120516,0.00020487475891708596,898.0,7.273667514221193,0.6191611536884395,9.266766484650452,-0.04021194026337947,0.228,0.9999999999979644,3692.26007987408,1.1126556750778445,224,2026-10-07 19:31:57.332243,48.2,0.9782077747037197,0.23462729095034657,0.07135644890079178
1112,cdot_cos,P,T-P,225,45,41725,0.02292833517158949,0.0006555936696804211,0.1991862656033612,0.9999323285158546,802.0,7.364388288545171,0.620331634322078,9.304985607513368,-0.22561229433098495,0.477,0.9999999999979573,-158.39677200917825,1.1176235199417341,225,2026-10-07 19:31:57.809243,48.2,0.4396548476575068,0.1289424428425947,0.1901903025659906
1112,cdot_cos,Q,P-Q,226,45,41838,-0.00412726510728265,-0.005073110877715345,-0.02705560027887214,0.21347917161600988,802.0,7.396678604693029,0.6205813437463206,9.329394882592682,-0.08095651713776661,0.113,0.999999999997905,579.2964267649314,1.1225907731801021,226,2026-10-07 19:31:57.922244,48.2,0.16748976903663498,0.5426527013956033,0.28575501015803384
1112,cdot_cos,R,Q-R,227,45,41864,0.08891162367498928,0.18252936207437687,0.09303888878227193,0.9888430658651036,802.0,7.487027799060577,0.6217371719603365,9.367426730864919,-0.2281288095980773,0.026,0.9999999999978958,-127.3305934875551,1.1275578839479121,227,2026-10-07 19:31:57.948243,48.2,0.5245953671049599,2.0736937244583826,3.4749690141364815
1112,cdot_cos,S,R-S,228,45,41917,-0.00017908401182330867,-0.00341519103046287,-0.08909070768681258,0.01346410958361281,802.0,7.5045106783648645,0.6217529002368215,9.388274626787652,-0.04446283114823455,0.053,0.9999999999978416,11677.438314685789,1.1325250408127563,228,2026-10-07 19:31:58.001244,48.2,0.016070409620382628,0.3203250529855695,0.3298656472507053
1112,cdot_cos,T,S-T,229,45,42128,-0.16102907935821378,0.007280808780374762,-0.16084999534639047,0.0004292808682434109,802.0,7.5209822546770475,0.6217534017026939,9.408848024112542,-0.041985722867840594,0.211,0.9999999999977865,4939.73451997036,1.13749246278848,229,2026-10-07 19:31:58.212243,48.2,0.9427078776371799,0.25638492616938785,0.07806434271176772
1112,cdot_cos,P,T-P,230,46,42527,0.02055379544591432,0.0015571521490895686,0.1815828748041281,0.9998419268490217,877.0,7.612705117208346,0.6229206618605465,9.447071548555625,-0.23519716308206184,0.399,0.9999999999977792,-165.52560191008928,1.1424602057078885,230,2026-10-07 19:31:58.611244,48.2,0.4397771664027371,0.15919425290949513,0.22988186098069846
1112,cdot_cos,Q,P-Q,231,46,42646,-0.0023749356425566237,-0.0026884162318031543,-0.022928731088470943,0.24877341062393027,877.0,7.648019268498825,0.6232108702421194,9.471997599573626,-0.09128546917106985,0.119,0.9999999999977272,495.8908944359429,1.147427474560919,231,2026-10-07 19:31:58.730243,48.2,0.20669693048369409,0.5325862215146042,0.2967575738695667
1112,cdot_cos,R,Q-R,232,46,42672,0.09307111704691526,0.1724120373488306,0.09544605268947189,0.9900531207438774,877.0,7.739460637928822,0.6243649464148003,9.510056061510554,-0.23804500809074106,0.026,0.999999999997719,-127.16624984878382,1.1523945844990233,232,2026-10-07 19:31:58.756243,48.2,0.5398196761434082,2.0951414742278804,3.5169757473075913
1112,cdot_cos,S,R-S,233,46,42717,-1.195226743927779e-05,-5.705800134003593e-05,-0.09308306931435453,0.011133464939761743,877.0,7.756966625158674,0.6243779163712888,9.530727789929847,-0.04589457642989948,0.045,0.999999999997662,14815.040577168458,1.1573617284986715,233,2026-10-07 19:31:58.801243,48.2,0.015195155389279803,0.3792738343806433,0.3890219384411648
1112,cdot_cos,T,S-T,234,46,42947,-0.24330897722617592,0.0241960080868314,-0.24329702495873665,8.073490215657181e-06,877.0,7.77359528302308,0.6243779257764558,9.551158245514465,-0.04369055457887193,0.23,0.9999999999976045,234341.59712973062,1.1623291961836963,234,2026-10-07 19:31:59.031244,48.2,0.9508050937403387,0.23775421906349745,0.07229851245393688
1112,cdot_cos,P,T-P,235,47,43404,0.03459159064964855,0.0016829985458524422,0.27790056787582446,0.999998476970165,859.0,7.866333565927883,0.6255421467073546,9.58939233877058,-0.24507418455852087,0.457,0.9999999999975975,-172.9771597768545,1.1672970674162604,235,2026-10-07 19:31:59.488243,48.2,0.43967248286541805,0.13161921210359948,0.2029284089820642
1112,cdot_cos,Q,P-Q,236,47,43516,-0.0027168215362887455,-0.002950623448151853,-0.03730841218593729,0.1420623396095158,859.0,7.89389524288577,0.6257074214643069,9.612313167860385,-0.07338293238421209,0.112,0.9999999999975369,1038.8232016816098,1.1722643289024968,236,2026-10-07 19:31:59.600243,48.2,0.09636021058190927,0.5376396848525382,0.24608640140970162
1112,cdot_cos,R,Q-R,237,47,43543,0.11177072663121497,0.19343270756970815,0.11448754816750371,0.9960033727330305,859.0,7.986764855334852,0.6268653425754531,9.650482751640713,-0.24884346341551633,0.027,0.9999999999975279,-151.53064344566477,1.1772314392229004,237,2026-10-07 19:31:59.627244,48.2,0.4940571705702019,2.0379649968009534,3.439615275891925
1112,cdot_cos,S,R-S,238,47,43597,-1.8093243815396103e-05,-0.00011296491760049042,-0.11178881987503037,0.004549305010790496,859.0,8.003945352713021,0.6268706281255519,9.670902508742474,-0.04635380387614024,0.054,0.9999999999974667,38310.04450880705,1.1821985994833255,238,2026-10-07 19:31:59.681243,48.2,0.012672126775276828,0.3146122744117959,0.31815735885499097
1112,cdot_cos,T,S-T,239,47,43806,-0.2691471181578218,0.03855930860919367,-0.26912902491400637,2.3244634370520842e-06,859.0,8.020742980971326,0.6268706308261914,9.691198290926172,-0.045417106076788026,0.209,0.9999999999974057,346842.96178155724,1.1871660416780394,239,2026-10-07 19:31:59.890244,48.2,0.9795868878919866,0.26438134677032926,0.080371427073227
1112,cdot_cos,P,T-P,240,48,44263,0.017271147907500287,0.0005157112528181289,0.28641826606532206,0.9999989897991997,820.0,8.114456755663019,0.6280317290528061,9.729439461016938,-0.2548058850962287,0.457,0.9999999999973989,-180.33683474819802,1.1921339416122885,240,2026-10-07 19:32:00.347244,48.2,0.43965804809468373,0.14296988074824343,0.20506296431442708
1112,cdot_cos,Q,P-Q,241,48,44380,-0.004398697661907844,-0.00539972607494106,-0.021669845569408132,0.2602852379581847,820.0,8.15141745197522,0.6283337044847271,9.754376520982936,-0.10127573248249042,0.117,0.999999999997342,508.41934933931617,1.1971012172455426,241,2026-10-07 19:32:00.464243,48.2,0.21959685132916335,0.5556333280958603,0.3159033872837721
1112,cdot_cos,R,Q-R,242,48,44406,0.08337360775160611,0.17327830738658734,0.08777230541351395,0.9856651791608674,820.0,8.24447495443745,0.6294763350305358,9.792368108274259,-0.25670007029949016,0.026,0.9999999999973324,-136.0232652515026,1.2020683244578958,242,2026-10-07 19:32:00.490243,48.2,0.5458175209885,2.142701597939253,3.579134710085769
1112,cdot_cos,S,R-S,243,48,44456,-0.00032442720073804345,-0.0035611306390666065,-0.08369803495234415,0.017391224943812535,820.0,8.262837935068061,0.6294964828109101,9.812893464685464,-0.050997597020873905,0.05,0.9999999999972689,10209.684116921186,1.2070354779475725,243,2026-10-07 19:32:00.540244,48.2,0.01771095543474983,0.3535512320399725,0.36725961261222295
1112,cdot_cos,T,S-T,244,48,44685,-0.1912207105734146,0.01830779223054009,-0.19089628337267656,0.00010090795718613371,820.0,8.279830077641448,0.6294965997117318,9.833065709817262,-0.04729158036323581,0.229,0.9999999999972047,31702.22932634813,1.2120029703487962,244,2026-10-07 19:32:00.769243,48.2,0.9246266422488824,0.24386184006704067,0.07420149595365111
1112,cdot_cos,P,T-P,245,49,45083,0.02685184466987457,0.0022572712998184695,0.21807255524328917,0.9999727681794405,920.0,8.374526657818766,0.6306543106836793,9.871316116370002,-0.26499075805314515,0.398,0.9999999999971968,-188.04276971107552,1.2169707884272463,245,2026-10-07 19:32:01.167244,48.2,0.4397561183739731,0.1611244570588304,0.2379311059731621
1112,cdot_cos,Q,P-Q,246,49,45208,-0.0004401184874195158,-0.000498622131128884,-0.027291963157294083,0.21157251700028887,920.0,8.408085145460277,0.6308990650924604,9.895280459897048,-0.09460438528589649,0.125,0.9999999999971355,696.1524150505209,1.221938085216513,246,2026-10-07 19:32:01.292243,48.2,0.16512690844247746,0.4227901455479355,0.26846790113208385
1112,cdot_cos,R,Q-R,247,49,45229,0.017674184683870147,0.27784092633017465,0.01811430317128966,0.7053922899684658,920.0,8.48022419420575,0.6317146002499113,9.928189663810048,-0.20445897438204153,0.021,0.9999999999971083,-134.70245653113525,1.2269051814766603,247,2026-10-07 19:32:01.313244,48.2,0.5843272791621043,2.1481748578338595,3.4351927974034946
1112,cdot_cos,S,R-S,248,49,45274,-0.07391064193343297,0.30505296787532504,-0.09158482661730312,0.011957244495909226,920.0,8.498308489489299,0.631728418074118,9.948484484214946,-0.051528189615543084,0.045,0.9999999999970414,11067.645852177113,1.2318723254395882,248,2026-10-07 19:32:01.358243,48.2,0.05141089029587244,0.3911346407538158,0.40187322852330476
1112,cdot_cos,T,S-T,249,49,45504,-0.30135311897648287,0.02391608419432762,-0.2274424770430499,1.7335663068438615e-05,920.0,8.515426311873593,0.6317284381071003,9.968522053524692,-0.04887551307562553,0.23,0.9999999999969741,132415.45812107556,1.2368398316058045,249,2026-10-07 19:32:01.588243,48.2,0.9471724111108368,0.24508370610281105,0.07442531471432483
1112,cdot_cos,P,T-P,250,50,46003,0.029608234488027265,0.002713282984982282,0.3309613534645101,0.9999998819712214,858.0,8.611046994296592,0.6328832736197999,10.006778913559314,-0.274467993789158,0.499,0.9999999999969676,-195.34598497597483,1.2418078718362442,250,2026-10-07 19:32:02.087244,48.2,0.4395840386206202,0.1277306047655395,0.19162461407414502
1112,cdot_cos,Q,P-Q,251,50,46129,-0.0010019721810630583,-0.001281326105977075,-0.030610206669090322,0.18612141581511274,858.0,8.642901455429602,0.6330980454369529,10.030175782866056,-0.09209245760226849,0.126,0.9999999999968981,849.1595340787002,1.2467751748923417,251,2026-10-07 19:32:02.213243,48.2,0.13802056517675068,0.5042444329867966,0.25281318359531785
1112,cdot_cos,R,Q-R,252,50,46150,0.09310307661636075,0.18473233421341853,0.0941050487974238,0.9893959998377106,858.0,8.738116591409264,0.6342388541446252,10.068246227969487,-0.2769336496122682,0.021,0.9999999999968878,-162.02645611563418,1.2517422688334365,252,2026-10-07 19:32:02.234244,48.2,0.5130117142231493,2.700304331180371,4.534054094269652
1112,cdot_cos,S,R-S,253,50,46209,-3.24907956112632e-05,-0.0011716169746027443,-0.09313556741197201,0.011105640816125225,858.0,8.756314237339177,0.6342516508259508,10.088406637429351,-0.05327255509096505,0.059,0.9999999999968165,17478.054569825337,1.256709440776142,253,2026-10-07 19:32:02.293243,48.2,0.01501913807082414,0.30091026739082777,0.3084346767781849
1112,cdot_cos,T,S-T,254,50,46422,-0.17013510777904003,0.03898014640078535,-0.17010261698342877,0.00027486759637145936,858.0,8.773624002961382,0.634251967544851,10.108329609300782,-0.05077616981875345,0.213,0.9999999999967442,7882.021788085677,1.2616769255683862,254,2026-10-07 19:32:02.506243,48.2,0.9520245037010429,0.2673118764130586,0.08126650526856698
1112,cdot_cos,P,T-P,255,51,46861,0.01866570947391536,0.000830563274885518,0.1888008172529554,0.9998883689174034,859.0,8.87018909669114,0.6354033285086866,10.146594344744361,-0.2847206080036955,0.439,0.9999999999967362,-203.18948230239272,1.2666448761936557,255,2026-10-07 19:32:02.945244,48.2,0.4396997492901521,0.1528481786875123,0.21996604494250158
1112,cdot_cos,Q,P-Q,256,51,46981,-0.003589043262243997,-0.004158970997645893,-0.02225475273615936,0.254893930828577,859.0,8.907824703849018,0.6356965891029502,10.171162924257994,-0.11177367432885449,0.12,0.99999999999667,589.7380591112965,1.2716121730612944,256,2026-10-07 19:32:03.065243,48.2,0.21282271757607013,0.5565492230480862,0.31363005964898016
1112,cdot_cos,R,Q-R,257,51,47007,0.08544998818857306,0.1678300601394011,0.08903903145081705,0.9865027654964449,859.0,9.003760910222681,0.6368306292089708,10.209189254673403,-0.2866776338524105,0.026,0.9999999999966592,-154.23084121539995,1.2765792758037928,257,2026-10-07 19:32:03.091244,48.2,0.5432928693964597,2.2058071973933835,3.6898540912947335
1112,cdot_cos,S,R-S,258,51,47052,-0.00018460953917988568,-0.0011125042506838162,-0.08563459772775295,0.015865937563105642,859.0,9.022526678113474,0.6368488556027508,10.229324938054473,-0.056434012600426076,0.045,0.9999999999965852,12632.42877504365,1.2815464195041826,258,2026-10-07 19:32:03.136243,48.2,0.016909607954834833,0.40270440892836096,0.41701706423984164
1112,cdot_cos,T,S-T,259,51,47281,-0.18878776104596642,0.04658909696751802,-0.18860315150678653,0.00011269960874365165,859.0,9.040004307026233,0.6368489850678475,10.249132125452128,-0.05266588487945368,0.229,0.9999999999965099,29105.355950537767,1.2865139513035575,259,2026-10-07 19:32:03.365243,48.2,0.9309517854717222,0.25109975515104227,0.07632152363650485
1112,cdot_cos,P,T-P,260,52,47720,0.023348016834229095,0.0014304298358028564,0.21213577788019553,0.999963746721804,925.0,9.137530365972651,0.6379969233013637,10.287409252260396,-0.2953456441019846,0.439,0.9999999999965011,-211.4048928217893,1.2914819326934637,260,2026-10-07 19:32:03.804243,48.2,0.4396921266440136,0.15168111846343807,0.22215503176860535
1112,cdot_cos,Q,P-Q,261,52,47845,-0.0022569716354819496,-0.0023812676939969947,-0.025604988469711043,0.22545408032852252,925.0,9.173180329037132,0.6382555231851416,10.311352177765299,-0.10871889115900168,0.125,0.9999999999964302,721.6815035512586,1.2964492461876942,261,2026-10-07 19:32:03.929244,48.2,0.17967616701963923,0.5323545220481449,0.285199704515847
1112,cdot_cos,R,Q-R,262,52,47867,0.10225452107835538,0.1763996340975452,0.10451149271383733,0.9935515999268927,925.0,9.270618996484687,0.6393941891787991,10.349517865925982,-0.2989008661586874,0.022,0.9999999999964195,-167.02173952591573,1.3014163388344793,262,2026-10-07 19:32:03.951244,48.2,0.5292623292362826,3.531600785468658,4.429030338525244
1112,cdot_cos,S,R-S,263,52,47912,0.10225452107835538,0.1763996340975452,0.0,0.5,925.0,9.328570763597753,0.639966625783194,10.378533356951001,-0.17914509191824024,0.045,0.9999999999963773,209.20355777569645,1.3063834830503755,263,2026-10-07 19:32:03.996243,48.2,0.5124844968825133,0.8407766315364008,1.2878170469570134
1112,cdot_cos,T,S-T,264,52,48141,-0.22807330151064714,0.056145293362079435,-0.3303278225890025,1.2168852015142006e-07,925.0,9.346288893322964,0.6399666259224636,10.398245695839664,-0.05499457546964815,0.229,0.9999999999962992,891440200.4668802,1.311351033118042,264,2026-10-07 19:32:04.225244,48.2,0.1046111883339713,0.25384889355997153,0.07737174552493657
1112,cdot_cos,P,T-P,265,53,48645,0.020944663750769244,0.001709054939048851,0.2490179652614164,0.9999938721833956,819.0,9.44483355684822,0.6411102972632051,10.436538640612584,-0.3073432029116823,0.504,0.9999999999962905,-220.6478543725777,1.3163191971264774,265,2026-10-07 19:32:04.729243,48.2,0.43996301548223105,0.1343204233202148,0.19552512604217556
1112,cdot_cos,Q,P-Q,266,53,48767,-0.003534822451954196,-0.004946118086386143,-0.02447948620272344,0.23506815679998125,819.0,9.48168388002974,0.6413789074555066,10.460593358364779,-0.1157195453246919,0.122,0.9999999999962145,713.3893764235722,1.3212865117784263,266,2026-10-07 19:32:04.851244,48.2,0.1909141077628919,0.5504223373742891,0.30205182935672165
1112,cdot_cos,R,Q-R,267,53,48793,0.07863216999031813,0.18284689197095708,0.08216699244227232,0.9813017310229566,819.0,9.579136607167547,0.6424992725403952,10.498544707311686,-0.30777203755684684,0.026,0.9999999999962017,-171.41956208967292,1.326253611561977,267,2026-10-07 19:32:04.877243,48.2,0.5357921862658791,2.2533158080173363,3.748181812992558
1112,cdot_cos,S,R-S,268,53,48849,1.7452093837137694e-05,-0.002286199886685328,-0.078614717896481,0.02211297941289592,819.0,9.598856302046642,0.6425245013389164,10.518599512402867,-0.06265904932045963,0.056,0.9999999999961195,9715.602906360862,1.3312207807139724,268,2026-10-07 19:32:04.933243,48.2,0.020003400980214657,0.3358406301779653,0.3521374085552674
1112,cdot_cos,T,S-T,269,53,49061,-0.21389702509878503,0.008423753279755947,-0.21391447719262216,3.327477099139379e-05,819.0,9.616750757747479,0.6425245393016583,10.538206139918215,-0.056970902423075294,0.212,0.9999999999960362,149834.98570454927,1.336188305969558,269,2026-10-07 19:32:05.145243,48.2,0.9049794713997681,0.2768203864119166,0.08440780990960917
1112,cdot_cos,P,T-P,270,54,49464,0.025232712195741504,0.00211183808131643,0.23912973729452652,0.9999901305181871,896.0,9.716228145885294,0.6436646052310571,10.576509179787866,-0.3181894155212944,0.403,0.9999999999960267,-229.12579558971774,1.3411562736301257,270,2026-10-07 19:32:05.548243,48.2,0.4400121813546399,0.1664888416556139,0.24684215418812772
1112,cdot_cos,Q,P-Q,271,54,49590,-0.002931847092709463,-0.003489094739030354,-0.028164559288450967,0.20464174918330252,896.0,9.750940764121903,0.6438977125508636,10.59991526955465,-0.11177019801388069,0.126,0.9999999999959467,885.5115218120919,1.3461236039951194,271,2026-10-07 19:32:05.674243,48.2,0.15773828626763758,0.5307858712333413,0.27549697013181995
1112,cdot_cos,R,Q-R,272,54,49613,0.0916407146045267,0.16911306022558503,0.09457256169723617,0.9896298292327675,896.0,9.849986185436096,0.6450240356602895,10.638030216145431,-0.3206489491278719,0.023,0.9999999999959344,-185.45189152733386,1.3510906955611692,272,2026-10-07 19:32:05.697243,48.2,0.5213023759886708,2.567581254291525,4.306322665834465
1112,cdot_cos,S,R-S,273,54,49669,-0.00011263481663859826,-0.000825762507767439,-0.09175334942116531,0.011861659015911595,896.0,9.869049501819314,0.6450375260067932,10.65779033866802,-0.06208634007793954,0.056,0.9999999999958484,19166.49131137637,1.3560578659294178,273,2026-10-07 19:32:05.753243,48.2,0.015536469247351782,0.3314939843104111,0.340416363986026
1112,cdot_cos,T,S-T,274,54,49879,-0.20054279731987043,0.07243937343834789,-0.20043016250323184,6.373366969699147e-05,896.0,9.887113511678862,0.645037598490912,10.67729348351255,-0.05894251864205832,0.21,0.9999999999957613,43372.55508017721,1.3610253999754012,274,2026-10-07 19:32:05.963244,48.2,0.9480603927952876,0.28204799681783366,0.086019094569279
1112,cdot_cos,P,T-P,275,55,50360,0.0236464088206091,0.002032553659106396,0.22418920614047952,0.9999797213107681,878.0,9.987509660482804,0.646174051447392,10.715606068431844,-0.32907818807148637,0.481,0.999999999995752,-237.7007054177857,1.3659935819183995,275,2026-10-07 19:32:06.444243,48.2,0.4400416156605082,0.14242865998001653,0.20872380208719657
1112,cdot_cos,Q,P-Q,276,55,50485,-0.002146922797938831,-0.0026496715856009967,-0.02579333161854793,0.22387276643802256,878.0,10.024129882579638,0.6464282519249177,10.739295204717823,-0.12082190875009063,0.125,0.9999999999956685,819.2599846724012,1.370960916004446,276,2026-10-07 19:32:06.569243,48.2,0.17841139063146438,0.5464795239173696,0.29296177677467483
1112,cdot_cos,R,Q-R,277,55,50508,0.09351294799024502,0.17714643477028819,0.09565987078818386,0.9901541030152075,878.0,10.124129541462146,0.647551546556107,10.777428327705211,-0.3317034000151481,0.023,0.9999999999956548,-187.7347985201182,1.3759280055019203,277,2026-10-07 19:32:06.592243,48.2,0.5295365019574959,2.5903041195868233,4.34781125576122
1112,cdot_cos,S,R-S,278,55,50567,-0.00016312880646475713,-0.0021384291024705154,-0.09367607679670978,0.010823137928250659,878.0,10.143283872080632,0.64756381603836,10.797069178104353,-0.06391059739821978,0.059,0.9999999999955641,21825.925258755527,1.3808951837914383,278,2026-10-07 19:32:06.651244,48.2,0.015144531349684002,0.3168984300421079,0.3246496714997596
1112,cdot_cos,T,S-T,279,55,50778,-0.18256599026250836,0.05081054846930713,-0.1824028614560436,0.00015194835234252812,878.0,10.161523556207115,0.6475639882908646,10.816473843857242,-0.06097105332025973,0.211,0.9999999999954721,17065.319804205963,1.385862733251256,279,2026-10-07 19:32:06.862243,48.2,0.9529316244856297,0.2832883672354822,0.08644400059944508
1112,cdot_cos,P,T-P,280,56,51238,0.02416507433432138,0.0019020748442213293,0.20673106459682974,0.9999529586876414,818.0,10.262831563054005,0.6486967276354321,10.854795510539153,-0.34014173893577565,0.46,0.9999999999954615,-246.45624516742936,1.390830898434462,280,2026-10-07 19:32:07.322243,48.2,0.4401022912477298,0.1493707201254432,0.22023479749324035
1112,cdot_cos,Q,P-Q,281,56,51360,-0.0028546780080967687,-0.0035601455613248,-0.02701975234241815,0.21376943475520108,818.0,10.298944618722523,0.6489386675037409,10.878218240894359,-0.12202692233181581,0.122,0.9999999999953736,901.5249042195256,1.3957982313589887,281,2026-10-07 19:32:07.444243,48.2,0.16738948703996692,0.5595744214554924,0.29600865302063273
1112,cdot_cos,R,Q-R,282,56,51381,0.08316746723651286,0.1805715175326754,0.08602214524460963,0.9844231101831782,818.0,10.399367721889146,0.6500518284188921,10.916250578855875,-0.3410862069667513,0.021,0.999999999995359,-196.79031275112098,1.4007653139161724,282,2026-10-07 19:32:07.465244,48.2,0.5261124889307313,2.865011771828952,4.7820525317439495
1112,cdot_cos,S,R-S,283,56,51427,-6.92919415833246e-05,-0.0005887682168339879,-0.08323675917809618,0.01777527303142594,818.0,10.419275113139339,0.6500719132772752,10.935926339771251,-0.0680066611375769,0.046,0.9999999999952649,13596.28933499004,1.4057324604480792,283,2026-10-07 19:32:07.511244,48.2,0.018034254068106183,0.41631631421477366,0.4327693750041963
1112,cdot_cos,T,S-T,284,56,51657,-0.22976889293212754,0.02281889986855195,-0.2296996009905442,1.5548656581844172e-05,818.0,10.437668822796905,0.6500719308459744,10.955231028579727,-0.06295130513548147,0.23,0.9999999999951683,287747.88363326533,1.4107000712756244,284,2026-10-07 19:32:07.741244,48.2,0.9228340847017796,0.26219580338210124,0.0799726506850702
1112,cdot_cos,P,T-P,285,57,52056,0.029824497774832356,0.0012746972804737356,0.2595933907069599,0.9999963192908216,898.0,10.539885182695105,0.6512010002134642,10.99356267941888,-0.35132528141020675,0.399,0.9999999999951572,-255.40855555744295,1.4156681150283432,285,2026-10-07 19:32:08.140243,48.2,0.44007170228731535,0.16940392793760967,0.2561813531283219
1112,cdot_cos,Q,P-Q,286,57,52170,-0.002707423040974143,-0.00276814117560157,-0.0325319208158065,0.17249618698493077,898.0,10.572853157291117,0.6513955899982461,11.016124256160264,-0.1140141321751033,0.114,0.9999999999950634,1219.5457716398173,1.4206354339747025,286,2026-10-07 19:32:08.254244,48.2,0.12475309667780013,0.5926487400115273,0.2891927596141411
1112,cdot_cos,R,Q-R,287,57,52197,0.10519373717460925,0.1698949524585725,0.1079011602155834,0.9945182601749452,898.0,10.675009095417733,0.6525165017576056,11.054355962639823,-0.35501636100807155,0.027,0.9999999999950504,-215.00553172061154,1.4256025304666966,287,2026-10-07 19:32:08.281244,48.2,0.507200834006669,2.2455684842944157,3.783553263948747
1112,cdot_cos,S,R-S,288,57,52247,-0.00010313250895380803,-0.0004259435371261992,-0.10529686968356305,0.0062103450053655465,898.0,10.694113855443016,0.6525234960841275,11.073716340053814,-0.06677200261079964,0.05,0.9999999999949513,41211.16700690701,1.430569687798053,288,2026-10-07 19:32:08.331244,48.2,0.013341916375915492,0.3767115218015782,0.3820952005056455
1112,cdot_cos,T,S-T,289,57,52476,-0.17760810989694084,0.0758956979061303,-0.17750497738798704,0.00019240032530924584,898.0,10.712680247597891,0.6525237127716333,11.092928580650094,-0.06500476082851166,0.229,0.9999999999948511,8155.716110812049,1.4355373111670353,289,2026-10-07 19:32:08.560243,48.2,0.9731798785039307,0.2656496186497467,0.08107594827456568
1112,cdot_cos,P,T-P,290,58,52954,0.020700247790759217,-1.6428910180899616e-05,0.19830835768770005,0.9999294037435245,818.0,10.8157813807846,0.6536490108473415,11.13126740455539,-0.36247769295783383,0.478,0.9999999999948405,-264.3503428565984,1.4405055909062343,290,2026-10-07 19:32:09.038244,48.2,0.44013865082191655,0.14837990696575307,0.21569274725252813
1112,cdot_cos,Q,P-Q,291,58,53065,-0.003512966931647314,-0.0040261227810509176,-0.02421321472240653,0.237383745709187,818.0,10.854531438657151,0.6539159054732561,11.154996494350526,-0.13708348562222344,0.111,0.9999999999947466,844.5063536339809,1.445472907180867,291,2026-10-07 19:32:09.149244,48.2,0.19316486420412415,0.638009762898206,0.34909962047343673
1112,cdot_cos,R,Q-R,292,58,53091,0.09821080560949241,0.18093814091613272,0.10172377254113973,0.9926310647676505,818.0,10.957419548148001,0.6550308868235561,11.193199625933886,-0.3658014859392927,0.026,0.9999999999947323,-205.13168247658402,1.450439999179444,292,2026-10-07 19:32:09.175244,48.2,0.535126721091345,2.353234024403683,3.9572349804173177
1112,cdot_cos,S,R-S,293,58,53144,-0.00021486781514346652,-0.002173557129965184,-0.09842567342463587,0.008627654911031108,818.0,10.976899607926143,0.6550405704584387,11.212515401747638,-0.06964583855341416,0.053,0.9999999999946287,30583.107580866395,1.4554071646876166,293,2026-10-07 19:32:09.228243,48.2,0.014231331437489784,0.36045377424805936,0.3675482977007786
1112,cdot_cos,T,S-T,294,58,53355,-0.1841992608458231,0.024276415460842957,-0.18398439303067965,0.00014079740407245257,818.0,10.995627648218296,0.6550407284876437,11.231635819775724,-0.0670738160645743,0.211,0.9999999999945234,16275.614927901272,1.4603747548024029,294,2026-10-07 19:32:09.439244,48.2,0.9623797572415567,0.2908131303910843,0.08875848479693377
1112,cdot_cos,P,T-P,295,59,53772,0.022000502873813298,0.0008017913019165284,0.20619976371963641,0.999951738522071,898.0,11.09962274895118,0.6561621954883425,11.269983170892798,-0.3739559042988391,0.417,0.9999999999945123,-273.64344028227146,1.465342905668869,295,2026-10-07 19:32:09.856243,48.2,0.4401511455679099,0.17077337381829225,0.24938873077430346
1112,cdot_cos,Q,P-Q,296,59,53889,-0.0031038142740836758,-0.003297787558966311,-0.025104317147896973,0.2296960814034932,898.0,11.138052641982751,0.6564195593309933,11.29349731964961,-0.13903128799453254,0.117,0.9999999999944162,912.8112709411065,1.470310244206639,296,2026-10-07 19:32:09.973243,48.2,0.18457030942107105,0.6066181579518215,0.3284606242014631
1112,cdot_cos,R,Q-R,297,59,53916,0.0915914158686896,0.15684828843533286,0.09469523014277328,0.9896903329224671,898.0,11.241571397911907,0.6575274097161095,11.331650551025932,-0.37631821052519465,0.027,0.999999999994402,-214.1867942806892,1.4752773376598145,297,2026-10-07 19:32:10.000243,48.2,0.532299698828787,2.2860401504884833,3.834027997376113
1112,cdot_cos,S,R-S,298,59,53964,-0.00013758514210081263,-0.0005997076239821026,-0.09172900101079041,0.011875422540259622,898.0,11.26149881010913,0.6575406925655621,11.350940633692703,-0.07283980599471879,0.048,0.9999999999942941,22847.387197427408,1.4802444902970446,298,2026-10-07 19:32:10.048243,48.2,0.01550827873937648,0.40435377599605066,0.4151544207754802
1112,cdot_cos,T,S-T,299,59,54194,-0.18572478293250747,0.07614640589078042,-0.18558719779040667,0.00013033098913561023,898.0,11.280389360407527,0.657540838341482,11.369972417066943,-0.06916891500374218,0.23,0.9999999999941854,25181.737791298587,1.4852121473731825,299,2026-10-07 19:32:10.278244,48.2,0.9483123028255301,0.2690638810688747,0.08213282738433832
1112,cdot_cos,P,T-P,300,60,54670,0.02023025509220499,0.00028070465794436994,0.20595503802471246,0.9999511658975313,923.0,11.385268195400812,0.6586584122549237,11.408327194918563,-0.3855221451576407,0.476,0.9999999999941742,-283.0714159922124,1.490180494514358,300,2026-10-07 19:32:10.754244,48.2,0.44017460178241136,0.151535381886181,0.2203336869606818
1112,cdot_cos,Q,P-Q,301,60,54784,-0.004033549589129882,-0.003985309075847954,-0.02426380468133487,0.2369425917670094,923.0,11.424651043963172,0.6589229684759135,11.431916080777183,-0.14563373536412855,0.114,0.9999999999940729,906.7577730587683,1.4951478303209391,301,2026-10-07 19:32:10.868243,48.2,0.19258771305606426,0.632288539036684,0.3454635838803486
1112,cdot_cos,R,Q-R,302,60,54811,0.10256898468054695,0.15190943603499824,0.10660253426967684,0.9941662367991785,923.0,11.529429982301176,0.6600319162362756,11.470161796073885,-0.3892966393707968,0.027,0.9999999999940582,-219.7244204966976,1.5001149218856256,302,2026-10-07 19:32:10.895243,48.2,0.5347769737601147,2.3045329818972684,3.8807014199260825
1112,cdot_cos,S,R-S,303,60,54863,-0.0006433691166900789,-0.002470297870418417,-0.10321235379723703,0.006862240091754948,923.0,11.549095824985624,0.6600395646814581,11.489269533224576,-0.07346212409703237,0.052,0.9999999999939445,41293.95030446484,1.5050820858592633,303,2026-10-07 19:32:10.947244,48.2,0.013578281176634652,0.3740644016174859,0.3781892823932359
1112,cdot_cos,T,S-T,304,60,55072,-0.1271200998134293,0.058037511619192426,-0.12647673069673923,0.002246397753287043,923.0,11.568332680069394,0.660042068430298,11.50825678122142,-0.07198051071578564,0.209,0.9999999999938312,591.7579901078094,1.510049698407865,304,2026-10-07 19:32:11.156243,48.2,0.9796268596598223,0.2988970400418802,0.09204236882186731
1112,cdot_cos,P,T-P,305,61,55593,0.024450614064921647,0.0018722589022448473,0.15157071387835097,0.9993287573600946,823.0,11.67403478772313,0.6611549935608256,11.546606028883081,-0.3970196765030749,0.521,0.9999999999938189,-292.0584295128551,1.515018211745396,305,2026-10-07 19:32:11.677243,48.2,0.44100552478428806,0.1364680958896113,0.20288312409546191
1112,cdot_cos,Q,P-Q,306,61,55715,-0.0043214906583124236,-0.0052592706455357905,-0.02877210472323407,0.1999166391869469,823.0,11.71053243598637,0.6613774220024884,11.569411395721398,-0.1378807063585652,0.122,0.9999999999937073,1165.044219198419,1.5199855759242997,306,2026-10-07 19:32:11.799244,48.2,0.15267507589774862,0.5793165997949906,0.2991610513380272
1112,cdot_cos,R,Q-R,307,61,55736,0.08265225874225177,0.17669415280260364,0.0869737494005642,0.9851110451929049,823.0,11.815388038073108,0.6624724200096156,11.607486288832469,-0.3978862557502342,0.021,0.9999999999936895,-237.4484224622568,1.5249526476605972,307,2026-10-07 19:32:11.820243,48.2,0.5202389629052525,2.992157101408295,4.993123908892303
1112,cdot_cos,S,R-S,308,61,55784,-7.18897085102329e-05,-0.000611315246350666,-0.082724148450762,0.018211834184014498,823.0,11.836203034245518,0.6624926469831842,11.626730546907462,-0.0794045619625735,0.048,0.9999999999935723,15745.395261782809,1.5299197997729284,308,2026-10-07 19:32:11.868243,48.2,0.018117553406483522,0.41683806628746894,0.4336457535918751
1112,cdot_cos,T,S-T,309,61,56012,-0.21824268942484265,0.026059192318934596,-0.2181707997163324,2.710317576971074e-05,823.0,11.855404492436705,0.6624926770848831,11.645590353775866,-0.07337321786747711,0.228,0.9999999999934522,200365.57115515228,1.5348874814440967,309,2026-10-07 19:32:12.096244,48.2,0.921086899393097,0.27593459816821875,0.08421692189117112
1112,cdot_cos,P,T-P,310,62,56416,0.022540475105935102,0.0019821483527050557,0.24078316453077775,0.9999908865356939,895.0,11.962029211010226,0.6636024026262387,11.683958249517687,-0.4089378254714234,0.404,0.9999999999934381,-302.38522508370824,1.5398556879621716,310,2026-10-07 19:32:12.500243,48.2,0.4401779931423883,0.18016804313486237,0.26392257072653647
1112,cdot_cos,Q,P-Q,311,62,56540,-0.003172920986066604,-0.0038081905792710776,-0.025713396092001704,0.22454293309429188,895.0,12.000980271289674,0.6638513384943574,11.707179043914838,-0.15024734350085797,0.124,0.9999999999933283,1039.185248496294,1.5448230649857397,311,2026-10-07 19:32:12.624243,48.2,0.17875053601303167,0.5852423080826957,0.3141214538665166
1112,cdot_cos,R,Q-R,312,62,56566,0.09338160318415918,0.1758464694888444,0.09655452417022578,0.990565736027526,895.0,12.107169303414734,0.6649484258192313,11.74536433310173,-0.41142124399402735,0.026,0.9999999999933115,-238.06117760333103,1.5497901499767144,312,2026-10-07 19:32:12.650244,48.2,0.53003672595043,2.433460394418462,4.0841935432715575
1112,cdot_cos,S,R-S,313,62,56621,-9.746460553572385e-06,-7.23206227621468e-05,-0.09339134964471275,0.010971056130817164,895.0,12.127520211799434,0.6649605667139399,11.76438672433091,-0.07926063768840266,0.055,0.999999999993189,27358.824392976432,1.554757323777503,313,2026-10-07 19:32:12.705244,48.2,0.015135103392563822,0.3609933567666378,0.3700165160854464
1112,cdot_cos,T,S-T,314,62,56831,-0.24522078995689028,0.025476191716747188,-0.2452110434963367,7.361994584973668e-06,895.0,12.146878572659064,0.6649605748608672,11.783164860478006,-0.07551851104945745,0.21,0.9999999999930648,459329.8155123722,1.5597249669747701,314,2026-10-07 19:32:12.915244,48.2,0.9516552501201765,0.30201145966386245,0.09218267076014576
1112,cdot_cos,P,T-P,315,63,57311,0.025930524419465716,0.0025073469254356623,0.271151314376356,0.9999978914192381,877.0,12.254365024858256,0.666066283828037,11.821537687017658,-0.42081085823954345,0.48,0.999999999993052,-312.28140264966254,1.5646934366342409,315,2026-10-07 19:32:13.395243,48.2,0.4401936705769876,0.15238772531758946,0.22393010874831587
1112,cdot_cos,Q,P-Q,316,63,57436,-0.0004110857468405344,-0.0005113996846353232,-0.02634161016630625,0.2193144995125946,877.0,12.29317078896395,0.6663085389666049,11.844594642033597,-0.15278070821455192,0.125,0.9999999999929345,1106.3961392499539,1.5696608231512648,316,2026-10-07 19:32:13.520243,48.2,0.17302044476624548,0.5842454010729199,0.310446112845554
1112,cdot_cos,R,Q-R,317,63,57458,0.1024012437392921,0.20170545510359747,0.10281232948613264,0.9930050985645283,877.0,12.400426375126486,0.6674043142497633,11.882831152310057,-0.4240854612587719,0.022,0.9999999999929178,-247.5915976697567,1.5746278936779317,317,2026-10-07 19:32:13.542243,48.2,0.5274291398448696,3.888349504495257,4.875253916478897
1112,cdot_cos,S,R-S,318,63,57517,0.1024012437392921,0.20170545510359747,0.0,0.5,877.0,12.464258167161741,0.6679553774526491,11.911385809965445,-0.2539262131242825,0.059,0.9999999999928468,308.7835428738617,1.5795950810689368,318,2026-10-07 19:32:13.601243,48.2,0.5116507747503259,0.7069027010956785,1.0818947802585692
1112,cdot_cos,T,S-T,319,63,57729,-0.20434652309769094,0.06664531470015307,-0.306747766836983,3.7918457667155595e-07,877.0,12.483840893855776,0.6679553778703844,11.930099752048088,-0.07816261259786496,0.212,0.9999999999927182,420753535.5429099,1.5845627485264482,319,2026-10-07 19:32:13.813244,48.2,0.10553723247211025,0.3018629683908075,0.09237135233035138
1112,cdot_cos,P,T-P,320,64,58188,0.022787826551683668,-0.00029603012066996954,0.22713434964937462,0.9999824049553281,803.0,12.592248065759444,0.6690561051914993,11.968475122066467,-0.43418837065038407,0.459,0.9999999999927034,-323.4459172794181,1.5895311987457306,320,2026-10-07 19:32:14.272243,48.2,0.4404404856589812,0.16071470893600898,0.23618120240450519
1112,cdot_cos,Q,P-Q,321,64,58300,-0.0036267732047492967,-0.004221199718871576,-0.026414599756432965,0.21871274088038978,803.0,12.631376996659032,0.6692966066598178,11.991471274381121,-0.15758200528735108,0.112,0.9999999999925829,1150.123395490691,1.5944985530691385,321,2026-10-07 19:32:14.384243,48.2,0.1728524475128265,0.6568712847213927,0.3493654544606103
1112,cdot_cos,R,Q-R,322,64,58322,0.09443523619648087,0.1787923986602637,0.09806200940123017,0.9912211204560895,803.0,12.739387233537036,0.670385465620587,12.029674046390788,-0.4367901396217562,0.022,0.9999999999925646,-256.42268135184,1.599465621830791,322,2026-10-07 19:32:14.406244,48.2,0.5277000774773127,2.9250609825286085,4.909556221727437
1112,cdot_cos,S,R-S,323,64,58378,-0.00012306877816828976,-0.0015211265068405563,-0.09455830497464915,0.010377225353573025,803.0,12.760079679890291,0.670396855389481,12.048543826150153,-0.08410285439651866,0.056,0.9999999999924318,30965.271420917816,1.6044328011243685,323,2026-10-07 19:32:14.462244,48.2,0.015093012841573576,0.3610168806721698,0.36950797059384244
1112,cdot_cos,T,S-T,324,64,58588,-0.2073465673718893,0.03179315423566676,-0.20722349859372102,4.5937969012769735e-05,803.0,12.779821124172319,0.6703969058093396,12.067181351436277,-0.08036481563654388,0.21,0.9999999999922975,74138.22375095887,1.6094004766829764,324,2026-10-07 19:32:14.672243,48.2,0.9545517939070679,0.3071321594405173,0.09400687753346591
1112,cdot_cos,P,T-P,325,65,58991,0.026882907135141177,0.0023802014148262525,0.2342294745070305,0.9999875011406545,936.0,12.889075186855308,0.6714935255889941,12.10555917322823,-0.44624559864226865,0.403,0.9999999999922826,-333.64415797881,1.6143687816649164,325,2026-10-07 19:32:15.075244,48.2,0.44047173514774324,0.18268029198411703,0.2711018925136214
1112,cdot_cos,Q,P-Q,326,65,59117,-0.0015460233999058993,-0.0017178499568630038,-0.028428930535047078,0.20257550823465637,936.0,12.927061439511517,0.671715449584375,12.12817669221277,-0.1559902083910493,0.126,0.9999999999921583,1307.9044911436301,1.61933618797297,326,2026-10-07 19:32:15.201244,48.2,0.15555930027830941,0.48869697054216,0.30147819568419776
1112,cdot_cos,R,Q-R,327,65,59140,0.018835789398410973,0.2899708721895134,0.020381812798316874,0.7275848384646058,936.0,13.012226823431932,0.6725118950659443,12.161166356953911,-0.3509619941152063,0.023,0.9999999999921068,-244.80242557216084,1.624303258116512,327,2026-10-07 19:32:15.224244,48.2,0.573765027779068,2.2953745097151854,3.7028427791484955
1112,cdot_cos,S,R-S,328,65,59197,-0.08713549054771373,0.3212790788838889,-0.10597127994612471,0.006012908212151465,936.0,13.032648666958416,0.6725184729220943,12.179866291661531,-0.08449923158803756,0.057,0.9999999999919686,40509.05894734397,1.6292704413266226,328,2026-10-07 19:32:15.281244,48.2,0.04270521863811029,0.3533292521259699,0.3582779566049672
1112,cdot_cos,T,S-T,329,65,59407,-0.28736752589342085,0.06514747152044231,-0.2002320353457071,6.434518506293738e-05,936.0,13.052506358174293,0.6725185433125197,12.198420345357922,-0.08229201474885739,0.21,0.9999999999918289,31356.77654094121,1.6342381293788777,329,2026-10-07 19:32:15.491244,48.2,0.9735347468873076,0.30931886784167656,0.09456043436132114
1112,cdot_cos,P,T-P,330,66,59927,0.022534963320666616,0.001910489772080408,0.3099024892140875,0.9999996743036416,858.0,13.16256259145192,0.6736115541806486,12.236800829258438,-0.4575655088803694,0.52,0.999999999991815,-343.33921562367493,1.6392068503112087,330,2026-10-07 19:32:16.011244,48.2,0.44036449561924784,0.14475249229096454,0.21164660245697442
1112,cdot_cos,Q,P-Q,331,66,60049,-0.002836548911388096,-0.003234926715793995,-0.02537151223205471,0.22742529661200486,858.0,13.203048950156896,0.6738598700049447,12.259846408238252,-0.16922486072746024,0.122,0.9999999999916842,1161.1851518934313,1.644174248163846,331,2026-10-07 19:32:16.133244,48.2,0.18197415778870732,0.6147156307578054,0.3318553992211181
1112,cdot_cos,R,Q-R,332,66,60071,0.0918944326855747,0.1758547551283165,0.0947309815969628,0.9897079007593056,858.0,13.312553205356824,0.6749393522397815,12.298021095097141,-0.45952052012562716,0.022,0.9999999999916633,-268.92120132209476,1.6491413120125031,332,2026-10-07 19:32:16.155244,48.2,0.531668018971847,2.968083540848664,4.977466145451278
1112,cdot_cos,S,R-S,333,66,60116,-0.00020172783334107146,-0.001132685929659899,-0.09209616051891578,0.01166954173328268,858.0,13.333644625954237,0.6749520692517201,12.316760287100978,-0.0889417938824269,0.045,0.9999999999915193,29140.393044534772,1.6541084548250022,333,2026-10-07 19:32:16.200243,48.2,0.015505959741417328,0.45685624197048863,0.4686982354980687
1112,cdot_cos,T,S-T,334,66,60346,-0.17474764806637957,0.038402773314345065,-0.1745459202330385,0.000221888563481934,858.0,13.353670267134168,0.6749523110547332,12.33524448114099,-0.0845777296897995,0.23,0.9999999999913735,18048.01411469981,1.6590762246778115,334,2026-10-07 19:32:16.430244,48.2,0.9497103211601073,0.28459178838421656,0.08706800513013428
1112,cdot_cos,P,T-P,335,67,60785,0.02867557721226537,0.002281669783536959,0.20342322527864495,0.9999448279808123,863.0,13.464556848610977,0.6760410521840061,12.373624302896204,-0.4698025347304313,0.439,0.9999999999913567,-353.8258955073077,1.664044711109814,335,2026-10-07 19:32:16.869244,48.2,0.4404440982979213,0.16944584630332332,0.25258902386516796
1112,cdot_cos,Q,P-Q,336,67,60901,-0.0006738065249467846,-0.0007644196621319798,-0.029349383737212152,0.1955031913632123,863.0,13.502443720188486,0.6762536942402507,12.395977529007329,-0.16135396499296178,0.116,0.9999999999912189,1450.5529864828657,1.6690120950809926,336,2026-10-07 19:32:16.985244,48.2,0.14783967979151158,0.37425847859071965,0.32661096187507876
1112,cdot_cos,R,Q-R,337,67,60929,-0.01664454784114936,0.28302326830271146,-0.015970741316202578,0.316524593330643,863.0,13.551384815644024,0.6765978127599466,12.42072757644291,-0.2089871291555776,0.028,0.9999999999911054,-138.4208097974995,1.6739791770983576,337,2026-10-07 19:32:17.013243,48.2,0.7961848371557412,1.2432370944010427,1.747896266269208
1112,cdot_cos,S,R-S,338,67,60976,-0.12113797867842975,0.29453643434062243,-0.10449343083728038,0.006453980133874558,863.0,13.572064997474945,0.6766048273976062,12.439271220392923,-0.0885344718469702,0.047,0.9999999999909532,17171.615007573553,1.6789463254246104,338,2026-10-07 19:32:17.060243,48.2,0.256528108138597,0.4335903156346298,0.44000386874299097
