record_id,input,event,transition,event_index,k,peak,value_cos,value_sin,value_return,x_input,rr,knowledge,decision,decision_norm,entropy,delta_t,cosine_similarity,delta_h_over_delta_d,frobenius_norm,matrix_size,timestamp,scale,P,zdot,zdot_back
0942,cdot_cos,Q,P-Q,1,0,1469,-0.0016470146631699302,-0.001031256806031085,-0.050616239746367454,0.057374016245245955,1022.0,0.0002849848588411005,0.500071246214228,0.500071246214228,,,1.0,,0.004967141530112327,1,2026-10-07 23:46:17.553244,55.3,,,
0942,cdot_cos,R,Q-R,2,0,1524,0.0830527148305133,0.09830833140428274,0.08469972949368322,0.990841707522799,1022.0,0.007363295039128473,0.501301656022957,0.7089476007877579,-9.762813022147623e-06,,1.0,,0.009934283060224654,2,2026-10-07 23:46:17.608243,55.3,,,
0942,cdot_cos,S,R-S,3,0,1545,-0.032339422420803565,-0.06789507807580435,-0.11539213725131686,0.0016902533105189739,1022.0,0.00903269966216516,0.5013037549405628,0.8682835735821124,-4.936066253165566e-06,0.021,0.9999999999999998,2.2996361341549716,0.014901424592946386,3,2026-10-07 23:46:17.629244,55.3,0.37611778979328725,0.07439331647153209,0.07949545823984222
0942,cdot_cos,T,S-T,4,0,1820,-0.125319045125303,0.058665482788184196,-0.09297962270449944,0.005813320139131627,1022.0,0.010487814330932821,0.5013109737871813,1.0026219475744202,-5.1223592512972314e-06,0.275,1.0,-0.025806476848384812,0.019868566161135984,4,2026-10-07 23:46:17.904243,55.3,0.9642847994715144,0.02508890221385233,0.0052913260682460415
0942,cdot_cos,P,T-P,5,1,2402,0.04307343641513367,0.003193659032723948,0.16839248154043668,0.9999096838756624,1016.0,0.022831595879783943,0.5025526278433553,1.123741838129963,-7.416837521385375e-05,0.582,1.0,-0.05560809439572122,0.024835707859077655,5,2026-10-07 23:46:18.486243,55.3,0.3941845521018104,0.013282163323518566,0.021209246647510522
0942,cdot_cos,Q,P-Q,6,1,2509,-0.0018287037945070269,-0.001442664441036035,-0.044902140209640694,0.07705228607436979,1016.0,0.02594825243950843,0.5026483076574176,1.2312318738380335,-2.741585290965086e-05,0.107,0.9999999999999998,0.48863517098543824,0.029802849422583166,6,2026-10-07 23:46:18.593244,55.3,0.18171608405232642,0.08482000085841801,0.02912763139929428
0942,cdot_cos,R,Q-R,7,1,2557,0.07490223023459901,0.10239225048293679,0.07673093402910604,0.9858420612568667,1016.0,0.0409830760634854,0.503872459253298,1.3331212196849636,-0.00018146224666969955,0.048,1.0,-0.12583931130625928,0.03476999096625572,7,2026-10-07 23:46:18.641243,55.3,0.42787805490018727,0.18664185244497522,0.3132254921661868
0942,cdot_cos,S,R-S,8,1,2575,-0.025893374890653898,-0.061567559585190286,-0.1007956051252529,0.0037809307859280362,1016.0,0.04386587027422605,0.5038771540759088,1.4251798101361393,-4.410811844883639e-05,0.018,1.0,29.256510758328563,0.03973713249140215,8,2026-10-07 23:46:18.659244,55.3,0.04442145017446552,0.15421812619796563,0.16015523393003642
0942,cdot_cos,T,S-T,9,1,2859,-0.16171620646946894,0.06828431153039038,-0.13582283157881503,0.0005467332857252925,1016.0,0.04653492860661216,0.5038778329604807,1.5116334988902094,-4.35099678133816e-05,0.284,1.0000000000000002,0.8810785518190016,0.04470427442652742,9,2026-10-07 23:46:18.943244,55.3,0.9863466253377349,0.03678397145784328,0.00939809271966939
0942,cdot_cos,P,T-P,10,2,3418,0.02799410082353693,0.0014010090539102434,0.18971030729300586,0.9999722148201647,999.0,0.06475916606228103,0.5051194826796077,1.597328055824058,-0.0003657299328130776,0.559,1.0,-0.25950955413274696,0.049671417035306926,10,2026-10-07 23:46:19.502244,55.3,0.4143548603121525,0.021513044512393935,0.032601498131786893
0942,cdot_cos,Q,P-Q,11,2,3527,-0.0017426821262327074,-0.001419116696074575,-0.029736782949769638,0.1618612602676533,999.0,0.07058651237146858,0.5053204577167677,1.6759583572132875,-0.00014221669966549933,0.109,0.9999999999999999,1.112144255854258,0.05463855871712911,11,2026-10-07 23:46:19.611244,55.3,0.20770459023331236,0.11857691116642297,0.05346189274483989
0942,cdot_cos,R,Q-R,12,2,3568,0.06980493006215459,0.09337316442094386,0.0715476121883873,0.9812306615130794,999.0,0.09060893269656124,0.5065387636378247,1.7547017493428183,-0.0005819418785822618,0.041,1.0000000000000004,-0.36093166036266466,0.05960570024032939,12,2026-10-07 23:46:19.652243,55.3,0.4697207056508019,0.29011056752476594,0.48835171524616244
0942,cdot_cos,S,R-S,13,2,3588,-0.03123411603201558,-0.09226047360317177,-0.10103904609417017,0.0037305605115804945,999.0,0.09437557890849939,0.5065433954005076,1.8263681854685898,-0.00012563202620474004,0.02,1.0,98.51753719103391,0.06457284171666912,13,2026-10-07 23:46:19.672243,55.3,0.026460186055116814,0.19537263827673865,0.1883323105969073
0942,cdot_cos,T,S-T,14,2,3878,-0.09666117809498098,0.03667684599701755,-0.0654270620629654,0.026131964925638636,999.0,0.09842383822763079,0.5065758401073971,1.8954332342079445,-0.00014072895666582255,0.29,1.0,-0.4653125858871193,0.06953998444790707,14,2026-10-07 23:46:19.962244,55.3,0.8982771338698353,0.04608684269151135,0.013959514893556554
0942,cdot_cos,P,T-P,15,3,4417,0.03996568507043627,-0.003269305063155763,0.13662686316541725,0.999477031141005,979.0,0.12110594766957597,0.5078167183412605,1.9667656932919941,-0.0008977497460931804,0.539,1.0,-0.6100685536810498,0.07450712875298621,15,2026-10-07 23:46:20.501244,55.3,0.43031294550402993,0.026294670266565078,0.04208183569934171
0942,cdot_cos,Q,P-Q,16,3,4506,-0.002970059757914341,-0.0019328870040605534,-0.04293574482835061,0.08514992375935188,979.0,0.12676949277498795,0.5079224300780301,2.0316897207913036,-0.00025310304324475247,0.089,0.9999999999999998,6.098156387817118,0.07947427051537734,16,2026-10-07 23:46:20.590244,55.3,0.07831835083369364,0.16803271730791805,0.06363533826305592
0942,cdot_cos,R,Q-R,17,3,4554,0.08768511551801628,0.10119517125539527,0.09065517527593062,0.9933945391215969,979.0,0.15101577135038538,0.509155652481825,2.0993025355876505,-0.0012142083110917479,0.048,1.0,-0.7793446379901966,0.08444141206829456,17,2026-10-07 23:46:20.638243,55.3,0.4531423736704031,0.2984029451658362,0.5051308036541132
0942,cdot_cos,S,R-S,18,3,4587,-0.0362451504436744,-0.07260193872964064,-0.12393026596169068,0.0010548053096607094,979.0,0.15541617551090822,0.5091569618843821,2.160170043169098,-0.00024308909247684792,0.033,0.9999999999999996,741.6506202677235,0.0894085535631159,18,2026-10-07 23:46:20.671244,55.3,0.018409090115661594,0.14339815884193324,0.1333455806219043
0942,cdot_cos,T,S-T,19,3,4857,-0.09508688825104322,0.041713909631001175,-0.05884173780736882,0.037185276768493036,979.0,0.16048004983395298,0.5092031224518484,2.219564953068278,-0.00028837974115656354,0.27,0.9999999999999997,-0.981154504063827,0.09437569726103139,19,2026-10-07 23:46:20.941243,55.3,0.854659515867366,0.058214375498945155,0.018755090085350937
0942,cdot_cos,P,T-P,20,4,5396,0.042772614895880696,0.0012864737679007924,0.1378595031469239,0.9995114746375321,1059.0,0.1868519382803386,0.5104438214548974,2.2827741677532516,-0.0016511291430096405,0.539,0.9999999999999998,-1.0983722873187782,0.09934284406012174,20,2026-10-07 23:46:21.480243,55.3,0.4380842999281335,0.030340096791010723,0.04892743682075256
0942,cdot_cos,Q,P-Q,21,4,5487,-0.002506809429720877,-0.0015032227171145407,-0.04527942432560157,0.07558158256632642,1059.0,0.19318667417466254,0.5105376362415595,2.339577364576798,-0.0004339581476108973,0.091,1.0,12.974191369037781,0.10430998604984464,21,2026-10-07 23:46:21.571244,55.3,0.06051815093410053,0.18671302787276026,0.069612482355208
0942,cdot_cos,R,Q-R,22,4,5547,0.08363854737315643,0.09993442480961683,0.08614535680287731,0.9915393969744735,1059.0,0.22083370935318097,0.5117683021191315,2.4004061111068515,-0.002063071059521277,0.06,0.9999999999999998,-1.3237654034289437,0.10927712776740814,22,2026-10-07 23:46:21.631244,55.3,0.4540017212698276,0.27210215252604414,0.46078391964197396
0942,cdot_cos,S,R-S,23,4,5566,-0.03096845515105072,-0.061727854108453904,-0.11460700252420715,0.0017651247274479414,1059.0,0.22583893247778783,0.5117704928107363,2.454365063652766,-0.00040295505143262973,0.019,0.9999999999999998,757.8045236771081,0.11424426897491122,23,2026-10-07 23:46:21.650244,55.3,0.016246885200430352,0.26287761496696826,0.26343279603193975
0942,cdot_cos,T,S-T,24,4,5836,-0.12593476811569268,0.06611671119919815,-0.09496631296464196,0.005211631282660728,1059.0,0.23082305872192577,0.511776960949822,2.507184834409949,-0.000410230025677585,0.27,0.9999999999999994,-1.1247399211117408,0.11921141407191373,24,2026-10-07 23:46:21.920243,55.3,0.9824224297820958,0.06403281142743618,0.018459726830140508
0942,cdot_cos,P,T-P,25,5,6455,0.045878191973579924,0.0009698209994717161,0.1718129600892726,0.9999252477651114,1059.0,0.26041665064860336,0.5130178894937144,2.5650894494598235,-0.002619878839641288,0.619,1.0,-1.780641459847982,0.12417856543296853,25,2026-10-07 23:46:22.539244,55.3,0.4302381384656485,0.029516726719956633,0.04780871070545654
0942,cdot_cos,Q,P-Q,26,5,6544,-0.0007017965106453267,-0.00041542874943802934,-0.04657998848422525,0.07070740350460579,1059.0,0.2673647664012321,0.5131056329931691,2.6163356382782004,-0.0006608565757039826,0.089,1.0,22.32669401279193,0.1291457076043198,26,2026-10-07 23:46:22.628243,55.3,0.051593051838806116,0.2113465752974117,0.07806871632167095
0942,cdot_cos,R,Q-R,27,5,6601,0.08437276494808951,0.09488445181954154,0.08507456145873483,0.991027902878537,1059.0,0.29803634105154264,0.5143353496502738,2.6725648764244663,-0.00312478498278002,0.057,0.9999999999999999,-2.0036553891017705,0.13411284929589887,27,2026-10-07 23:46:22.685244,55.3,0.4545209171052502,0.3173791752701353,0.5380978008826415
0942,cdot_cos,S,R-S,28,5,6622,-0.032633429657915394,-0.06200818876744343,-0.1170061946060049,0.0015461459873243816,1059.0,0.3035459923820275,0.5143372680533069,2.7216170059022793,-0.0005972367253428221,0.021,0.9999999999999999,1317.5272421027319,0.13907999030762416,28,2026-10-07 23:46:22.706244,55.3,0.014522282956365862,0.26494057331170157,0.2623643490707079
0942,cdot_cos,T,S-T,29,5,6895,-0.11733566280391591,0.07230123340136745,-0.08470223314600052,0.009157036191478826,1059.0,0.3091638451306341,0.5143486297699588,2.769852142975105,-0.0006202288359628262,0.273,0.9999999999999994,-2.0236475987356832,0.1440471371575105,29,2026-10-07 23:46:22.979244,55.3,0.9636083266633763,0.06978934837837396,0.02057821519636117
0942,cdot_cos,P,T-P,30,6,7514,0.0411020064705137,0.0007555369137609454,0.15843766927442962,0.9998433912235,1039.0,0.3416509765966197,0.5155891072405443,2.8239978484575627,-0.0038091754627858935,0.619,0.9999999999999998,-2.570741268938818,0.14901429307017378,30,2026-10-07 23:46:23.598243,55.3,0.4329318118965146,0.0327505851282591,0.05248324954117219
0942,cdot_cos,Q,P-Q,31,6,7623,-0.0013712730374874907,-0.001058847357517028,-0.04247327950800119,0.08716340153745482,1039.0,0.3497090695194189,0.5156972395306123,2.8712807180782076,-0.001003674391950183,0.109,0.9999999999999998,25.945081428232335,0.1539814360630937,31,2026-10-07 23:46:23.707244,55.3,0.06110080125103393,0.1896467089435155,0.073927458007332
0942,cdot_cos,R,Q-R,32,6,7664,0.0748416663642065,0.09138006090891214,0.07621293940169399,0.9854366328530861,1039.0,0.3829939591463061,0.5169196378774059,2.924139056271908,-0.004393008723924658,0.041,0.9999999999999996,-2.772692175889157,0.15894857729360615,32,2026-10-07 23:46:23.748243,55.3,0.46230558817041073,0.4793211081009679,0.8118265762655412
0942,cdot_cos,S,R-S,33,6,7683,-0.031110106854570198,-0.06962075685657344,-0.10595177321877669,0.0028455960896826135,1039.0,0.38901340038369825,0.5169231674498547,2.9694975250262887,-0.0008370749966392894,0.019,0.9999999999999997,1007.4686888882171,0.1639157179692621,33,2026-10-07 23:46:23.767244,55.3,0.014292122610148075,0.3261223393734113,0.31681269670485135
0942,cdot_cos,T,S-T,34,6,7974,-0.1033681641408226,0.04920953672954106,-0.0722580572862524,0.018059292269907632,1039.0,0.3953866080424957,0.5169455674906126,3.0142847424439925,-0.0009004945520850937,0.291,0.9999999999999994,-2.831225002273764,0.1688828674700102,34,2026-10-07 23:46:24.058244,55.3,0.9319953322186549,0.07134182911964271,0.021901057246726644
0942,cdot_cos,P,T-P,35,7,8553,0.03990064188938622,0.00027556770572092067,0.1432688060302088,0.9996377323688537,1019.0,0.4305343449313303,0.5181853703403804,3.065626000682513,-0.005228119720877621,0.579,0.9999999999999993,-3.4905752713854064,0.17385002746762468,35,2026-10-07 23:46:24.637243,55.3,0.43702739994367124,0.037787617185018246,0.060704208789006224
0942,cdot_cos,Q,P-Q,36,7,8642,-0.003306057312632322,-0.0020549340826797047,-0.04320669920201854,0.08398992857570792,1019.0,0.4391446687427468,0.5182895290463307,3.1097371840567933,-0.0013485949823326977,0.089,0.9999999999999993,37.246283958186716,0.17881717027366337,36,2026-10-07 23:46:24.726244,55.3,0.05631941345343397,0.2505100079259526,0.09674521136423057
0942,cdot_cos,R,Q-R,37,7,8699,0.08047816189910613,0.09861648361447464,0.08378421921173845,0.9903706860630365,1019.0,0.4751251263421499,0.5195175983758241,3.1601021913329927,-0.005923294788270893,0.057,0.9999999999999992,-3.7251152651336312,0.18378431206237844,37,2026-10-07 23:46:24.783243,55.3,0.4619385029081624,0.3721457058238902,0.6312360982351412
0942,cdot_cos,S,R-S,38,7,8721,-0.030413296042943416,-0.06564552471718575,-0.11089145794204955,0.0021668801703378883,1019.0,0.4815692792066703,0.5195202850752834,3.2025381304303746,-0.0011100976374415492,0.022,0.9999999999999993,1791.4907208068632,0.1887514525512331,38,2026-10-07 23:46:24.805243,55.3,0.013090974412193387,0.29572149623543664,0.2929160392963835
0942,cdot_cos,T,S-T,39,7,8993,-0.11588613284712555,0.05342122626120585,-0.08547283680418213,0.008778365959374507,1019.0,0.4881368721765091,0.5195311692978475,3.244471122656675,-0.0011467473638616201,0.272,0.9999999999999996,-3.3672341964853434,0.1937186038637212,39,2026-10-07 23:46:25.077244,55.3,0.9685455928232581,0.08123961662440737,0.024145562389113143
0942,cdot_cos,P,T-P,40,8,9572,0.03679570141426111,-0.0012976358936668793,0.15268183426138665,0.999784709170523,1059.0,0.5257636306503479,0.5207706701743224,3.2936429245474272,-0.006867941606273662,0.579,0.9999999999999993,-4.615724241101538,0.19868576979281372,40,2026-10-07 23:46:25.656243,55.3,0.434730509454896,0.040964543118613826,0.06498576593063703
0942,cdot_cos,Q,P-Q,41,8,9661,-0.0023252669688373557,-0.0013834940965630062,-0.03912096838309847,0.10308663237045737,1059.0,0.5355738131078639,0.5208984593784176,3.3353775657828564,-0.0018743718563177714,0.089,0.9999999999999991,39.07661672449884,0.2036529130358731,41,2026-10-07 23:46:25.745243,55.3,0.06965995152153047,0.2711131819304958,0.1102267691855727
0942,cdot_cos,R,Q-R,42,8,9710,0.08652161892520319,0.08931466182246474,0.08884688589404054,0.992704916223418,1059.0,0.5740217770339762,0.5221289029928753,3.3837820471917497,-0.007678406669755177,0.049,0.9999999999999991,-4.717026237724479,0.2086200545001853,42,2026-10-07 23:46:25.794244,55.3,0.469592247000459,0.4619759317156298,0.7846523250226994
0942,cdot_cos,S,R-S,43,8,9743,-0.0385352436432154,-0.06797897215689079,-0.12505686256841858,0.000991158447433727,1059.0,0.5808474544159956,0.5221301313879677,3.423836254212507,-0.0014187684279755618,0.033,0.9999999999999986,5095.785778037009,0.21358719529345224,43,2026-10-07 23:46:25.827244,55.3,0.012130619194917508,0.22372266310587688,0.2068387085460438
0942,cdot_cos,T,S-T,44,8,10012,-0.09738303883297011,0.06889452404900255,-0.05884779518975471,0.03717328573723778,1059.0,0.588787472798964,0.5221762020139016,3.4637250891108025,-0.0016714801785520622,0.269,0.9999999999999989,-5.485311854439464,0.21855434926593773,44,2026-10-07 23:46:26.096244,55.3,0.8596840024364589,0.08901794905949083,0.029516796962707908
0942,cdot_cos,P,T-P,45,9,10631,0.03490741625094705,0.00012723007231458662,0.13229045508391718,0.999335401185549,1059.0,0.6287391110100017,0.5234145821078053,3.5111717761721413,-0.008752742572944212,0.619,0.9999999999999984,-5.718165552927955,0.2235215244658492,45,2026-10-07 23:46:26.715244,55.3,0.44528820720547774,0.0408443742462559,0.06454222651217713
0942,cdot_cos,Q,P-Q,46,9,10720,-0.003118506687585144,-0.0018562391034075954,-0.03802592293853219,0.10882172115313997,1059.0,0.6393528081158288,0.5235494172774433,3.5508849338547694,-0.0024217957391551607,0.089,0.9999999999999982,46.95323075416838,0.22848866816973856,46,2026-10-07 23:46:26.804243,55.3,0.07322972042744032,0.2876157567877369,0.1192550236609793
0942,cdot_cos,R,Q-R,47,9,10776,0.07781706295399266,0.08831318573285682,0.0809355696415778,0.9887462575799207,1059.0,0.6799347157182188,0.5247743601392446,3.597671780302641,-0.009631389094077547,0.056,0.9999999999999986,-5.885656857757864,0.23345581004461252,47,2026-10-07 23:46:26.860243,55.3,0.47305114370794094,0.42717187321646344,0.72467692147125
0942,cdot_cos,S,R-S,48,9,10797,-0.03526862453210373,-0.07927630939573918,-0.11308568748609638,0.0019197503768720876,1059.0,0.6871960579160727,0.52477673820394,3.6357599171920167,-0.0017858450443648257,0.021,0.9999999999999982,3299.1297776453853,0.23842294974134984,48,2026-10-07 23:46:26.881243,55.3,0.012361320727325216,0.39041387786605974,0.34577819989780495
0942,cdot_cos,T,S-T,49,9,11071,-0.08569577007995954,0.04915530358040529,-0.050427145547855816,0.05794217384150886,1059.0,0.6963320985885934,0.5248485127552422,3.673939613671458,-0.0022738228863724333,0.274,0.9999999999999981,-6.798758517523562,0.2433901072097157,49,2026-10-07 23:46:27.155244,55.3,0.8068586386744573,0.09355634391506583,0.033343214133286884
0942,cdot_cos,P,T-P,50,10,11690,0.029591259597175693,-0.0004650989894971199,0.11528702967713524,0.9982999103221178,1038.0,0.7384649343815288,0.526084970365609,3.7199825275744485,-0.010872066005481627,0.619,0.9999999999999982,-6.953932789138649,0.24835729081781138,50,2026-10-07 23:46:27.774244,55.3,0.45345628324893433,0.043874729366521606,0.06806597058632549
0942,cdot_cos,Q,P-Q,51,10,11779,-0.0037923422237881896,-0.002315940465022585,-0.03338360182096388,0.13632990032996667,1038.0,0.7506490135443471,0.5262537990906098,3.758203876007102,-0.003262918084917724,0.089,0.9999999999999978,45.07022084380626,0.253324435062958,51,2026-10-07 23:46:27.863244,55.3,0.09710066719242727,0.30836003621770863,0.13689976587436262
0942,cdot_cos,R,Q-R,52,10,11837,0.07561769009967577,0.09058657494015675,0.07941003232346396,0.9877677873936793,1038.0,0.793353020828281,0.5274768529110377,3.8036897150152558,-0.011854617231950693,0.058,0.9999999999999977,-7.024792370973926,0.2582915771705757,52,2026-10-07 23:46:27.921243,55.3,0.4844429963856284,0.43444344209873104,0.7362759876540321
0942,cdot_cos,S,R-S,53,10,11858,-0.030968405410127905,-0.06109471082686622,-0.10658609550980368,0.002747778142896592,1038.0,0.8010444528277999,0.5274802547561068,3.840114255009344,-0.002204826976860011,0.021,0.9999999999999974,2836.6342555654132,0.26325871639588017,53,2026-10-07 23:46:27.942244,55.3,0.01256719361652684,0.3729628050535851,0.36625866664375895
0942,cdot_cos,T,S-T,54,10,12130,-0.11018219999612623,0.055732301949963224,-0.07921379458599832,0.012364028622142835,1038.0,0.8090174586405315,0.527495561822705,3.8762849400999895,-0.0023079898911519516,0.272,0.999999999999997,-6.739561341198074,0.2682258772896454,54,2026-10-07 23:46:28.214243,55.3,0.9562860783387147,0.09605504867447143,0.0293125213703369
0942,cdot_cos,P,T-P,55,11,12728,0.03367026912640542,-0.0018475620817869653,0.14385246912253163,0.99964923440202,1022.0,0.8532983993067124,0.5287329862748625,3.921188812826083,-0.01323056458199426,0.598,0.9999999999999972,-8.826861851483281,0.273193068259915,55,2026-10-07 23:46:28.812243,55.3,0.43799131159570937,0.04628088176022819,0.0740483957628442
0942,cdot_cos,Q,P-Q,56,11,12818,-0.00814812899992474,-0.004349132336588376,-0.041818398126330154,0.09008828729291544,1022.0,0.8643693932257644,0.5288444857240948,3.957509802154506,-0.0034179254538931514,0.09,0.9999999999999964,88.00616680768769,0.27816021319763734,56,2026-10-07 23:46:28.902244,55.3,0.056645982356494644,0.31151734005232523,0.12301104354502318
0942,cdot_cos,R,Q-R,57,11,12862,0.08807271258668067,0.09138350219738042,0.09622084158660542,0.9951359722800978,1022.0,0.9093715205161309,0.530075940360811,4.001985638214738,-0.014342786827656492,0.044,0.9999999999999966,-8.87150939063098,0.28312735402586875,57,2026-10-07 23:46:28.946244,55.3,0.4668733504560318,0.6019807034257438,1.0227756202356013
0942,cdot_cos,S,R-S,58,11,12880,-0.04107159722304051,-0.07520458575786097,-0.1291443098097212,0.0007907952758309586,1022.0,0.9173436951272299,0.5300769188055964,4.036945593031558,-0.0026167236688715762,0.018,0.9999999999999964,11984.389240528279,0.28809449246344676,58,2026-10-07 23:46:28.964243,55.3,0.011319816656826137,0.46531506086065,0.4428985895055002
0942,cdot_cos,T,S-T,59,11,13168,-0.10829799185105418,0.06280063339106011,-0.06722639462801366,0.023715629057882468,1022.0,0.9261228627071143,0.5301062618597493,4.07182350987538,-0.0029080089428467717,0.288,0.999999999999996,-9.92689010684374,0.29306165886286795,59,2026-10-07 23:46:29.252243,55.3,0.9046867141085795,0.09558542546550994,0.030483220763487483
0942,cdot_cos,P,T-P,60,12,13750,0.03648921430945895,-0.0009235260503625708,0.14478720616051313,0.9996668992818758,1056.0,0.9724009001953636,0.531342945534215,4.115764814279764,-0.015782129081889383,0.582,0.9999999999999958,-10.41019656429487,0.29802885777869237,60,2026-10-07 23:46:29.834244,55.3,0.44231172273302943,0.05002612645074905,0.07951552833032531
0942,cdot_cos,Q,P-Q,61,12,13837,-0.0032279974455267733,-0.0018895765037618203,-0.03971721175498572,0.10007767585735296,1056.0,0.9843532738957862,0.5314667302568304,4.150887924924907,-0.004200988502179473,0.087,0.999999999999995,93.55872303959522,0.3029960030796637,61,2026-10-07 23:46:29.921243,55.3,0.06349681080835055,0.33770477180265246,0.13738360575198358
0942,cdot_cos,R,Q-R,62,12,13889,0.08249116698669666,0.08739838234393053,0.08571916443222344,0.9913393728635016,1056.0,1.0311615304890251,0.5326926929184131,4.194426526997942,-0.016940737468443882,0.052,0.9999999999999954,-10.391628852560284,0.30796314474011793,62,2026-10-07 23:46:29.973243,55.3,0.4714140150512315,0.5301798622973845,0.9001587806392106
0942,cdot_cos,S,R-S,63,12,13920,-0.03888258080024976,-0.08743306646457862,-0.12137374778694643,0.0012147903343417215,1056.0,1.0394919795747142,0.5326941949777463,4.22812916346304,-0.0030974159520372937,0.031,0.9999999999999949,9216.228154918363,0.3129302841740555,63,2026-10-07 23:46:30.004243,55.3,0.011455182357164825,0.3228852310187224,0.2687241640544848
0942,cdot_cos,T,S-T,64,12,14188,-0.08131382181393759,0.052833934877918876,-0.04243124101368783,0.08734854837961636,1056.0,1.051180414812186,0.5328021978236517,4.262417651982423,-0.004387869486375768,0.268,0.9999999999999942,-11.948328986338186,0.317897452709693,64,2026-10-07 23:46:30.272243,55.3,0.745205174233648,0.11167849922686818,0.04361356431892448
0942,cdot_cos,P,T-P,65,13,14806,0.03761770475148392,-0.001792706236449782,0.11893152656542151,0.9986097957366169,1000.0,1.0993516551603155,0.5340367163396302,4.3055417295675635,-0.018595210916069835,0.618,0.9999999999999943,-11.508406918005967,0.3228646668253634,65,2026-10-07 23:46:30.890244,55.3,0.4657844609727438,0.0489637732776629,0.07794699085457861
0942,cdot_cos,Q,P-Q,66,13,14896,-0.002678118131923948,-0.0017334765837955569,-0.04029582288340787,0.09723258971031999,1000.0,1.1116996385833773,0.5341568968527663,4.339511234710304,-0.0049005848014618755,0.09,0.9999999999999933,113.9504713139114,0.3278318132028608,66,2026-10-07 23:46:30.980243,55.3,0.06114616450154615,0.3390472371109516,0.13719981581179733
0942,cdot_cos,R,Q-R,67,13,14944,0.08225641089045303,0.0930000575361868,0.08493452902237698,0.9909587857060401,1000.0,1.1603801578402868,0.5353815038868481,4.382286569202826,-0.019846465892914146,0.048,0.9999999999999936,-12.204634364736268,0.3327989543009376,67,2026-10-07 23:46:31.028243,55.3,0.47091616665577984,0.5975967937572,1.0141774845189484
0942,cdot_cos,S,R-S,68,13,14976,-0.03534217256204631,-0.07172414914004537,-0.11759858345249935,0.0014963908405869076,1000.0,1.1690689307840685,0.5353833527778963,4.414884320458826,-0.003631749156837029,0.032,0.9999999999999928,8769.968761704855,0.3377660934620457,68,2026-10-07 23:46:31.060243,55.3,0.01150800105123467,0.2785064702007893,0.27152415449317735
0942,cdot_cos,T,S-T,69,13,15247,-0.11249351183529775,0.0485904353009958,-0.07715133927325143,0.01383708773894151,1000.0,1.1782045719331373,0.5354004493799358,4.447370242381603,-0.0038477317610828856,0.271,0.9999999999999922,-12.63307198392712,0.34273326691177225,69,2026-10-07 23:46:31.331244,55.3,0.9454139091092381,0.10920218716942912,0.0337108529485935
0942,cdot_cos,P,T-P,70,14,15806,0.03319012701663082,0.0018148979997617673,0.1456836388519286,0.9996830042764285,1019.0,1.228256516229899,0.5366353986929567,4.489813969968957,-0.021604613841931318,0.559,0.9999999999999922,-14.378632299824213,0.3477004840134826,70,2026-10-07 23:46:31.890244,55.3,0.4395946122034849,0.05616743650752127,0.08953836189045034
0942,cdot_cos,Q,P-Q,71,14,15898,-0.007445542828175016,-0.005159400202326462,-0.040635669844805836,0.0955953639019308,1019.0,1.240999765948546,0.5367534682604601,4.522765232184002,-0.005643882188253796,0.092,0.9999999999999908,135.18074124580107,0.35266763155461045,71,2026-10-07 23:46:31.982244,55.3,0.0591327489978308,0.34264619826486786,0.13851358389833743
0942,cdot_cos,R,Q-R,72,14,15958,0.07068623346211564,0.09258581397724042,0.07813177629029065,0.9868835803908993,1019.0,1.2913034167106348,0.5379721221714855,4.564844947653517,-0.02283955822407071,0.06,0.999999999999991,-14.110385139082188,0.35763477454791187,72,2026-10-07 23:46:32.042243,55.3,0.4710033625911336,0.49486917793755136,0.8383941793681442
0942,cdot_cos,S,R-S,73,14,15977,-0.03205009560924829,-0.104200539489913,-0.10273632907136393,0.0033974767374834007,1019.0,1.3003840673010523,0.5379763167729095,4.5964717861777515,-0.004219602440644104,0.019,0.9999999999999899,4439.0286230731535,0.3626019112004846,73,2026-10-07 23:46:32.061243,55.3,0.01212207009603379,0.5800724036544478,0.4779289784430272
0942,cdot_cos,T,S-T,74,14,16265,-0.07268102438020871,0.02878875028091171,-0.04063092877096042,0.09561803369254483,1019.0,1.3133461680495038,0.5380943667472445,4.628862887759607,-0.006074246350830148,0.288,0.9999999999999895,-15.710667627270576,0.3675690924704581,74,2026-10-07 23:46:32.349244,55.3,0.736880858700317,0.11235577823855689,0.0450072942654566
0942,cdot_cos,P,T-P,75,15,16825,0.03586361634113327,-0.0011228065062145857,0.10854464072134198,0.997533581294319,1079.0,1.365100995566461,0.5393256639945718,4.670697389511663,-0.024844118736367948,0.56,0.9999999999999896,-15.243981440127916,0.3725363215627948,75,2026-10-07 23:46:32.909244,55.3,0.4697730080601549,0.05846274424031342,0.09241933485170938
0942,cdot_cos,Q,P-Q,76,15,16915,-0.002419630419175702,-0.0014298482275278018,-0.03828324676030897,0.10744936372901844,1079.0,1.3788244415986548,0.5394582648612517,4.702888271955081,-0.00674849407743115,0.09,0.9999999999999881,136.46686565498058,0.3775034697427399,76,2026-10-07 23:46:32.999244,55.3,0.06846507558461819,0.36704678060989576,0.15248273369104196
0942,cdot_cos,R,Q-R,77,15,16965,0.08854272765350699,0.08980248816052755,0.09096235807268269,0.9935050771548859,1079.0,1.4311694160762423,0.5406840603817942,4.744483527651792,-0.02634996166665675,0.05,0.9999999999999878,-15.990813525367617,0.3824706111773896,77,2026-10-07 23:46:33.049243,55.3,0.47526164488787975,0.6164431844652074,1.0468994895517492
0942,cdot_cos,S,R-S,78,15,16994,-0.03992413312977103,-0.07329532861976246,-0.12846686078327801,0.000820957926551798,1079.0,1.4404687600451755,0.5406850730856103,4.7752014235745115,-0.004783893612294759,0.029,0.9999999999999871,21295.533512044385,0.3874377490454304,78,2026-10-07 23:46:33.078244,55.3,0.011019844121000152,0.35683540731712043,0.3206670334114925
0942,cdot_cos,T,S-T,79,15,17264,-0.09329612496907302,0.06734458279857682,-0.053371991839301997,0.04966702700383718,1079.0,1.4518658697006352,0.5407463398968803,4.806258753828823,-0.005905191986363173,0.27,0.9999999999999862,-18.30188891548349,0.39240493273270344,79,2026-10-07 23:46:33.348243,55.3,0.8270555010891799,0.12030508797023189,0.04221151724244334
0942,cdot_cos,P,T-P,80,16,17904,0.04604759683569233,0.0019200354652515223,0.13934372180476534,0.999549952742642,1099.0,1.5054335075491008,0.5419790714453888,4.847608349735656,-0.028366788338655795,0.64,0.9999999999999861,-18.220995787337614,0.3973721899843854,80,2026-10-07 23:46:33.988243,55.3,0.4530162589754053,0.05161567611596113,0.08369943413822738
0942,cdot_cos,Q,P-Q,81,16,18013,-0.000782218313282811,-0.0005585036996212995,-0.04682981514897514,0.06980498853351419,1099.0,1.5179339351290655,0.542065141981582,4.8785864707408395,-0.006767301513849161,0.109,0.9999999999999845,250.9509964750096,0.40233934280057787,81,2026-10-07 23:46:34.097243,55.3,0.04110017336838523,0.3044643131752479,0.11468282183453875
0942,cdot_cos,R,Q-R,82,16,18051,0.08239257249847304,0.09026775655128653,0.08317479081175586,0.9900439204528066,1099.0,1.5718067278213048,0.5432856073887931,4.919660611730281,-0.029792637766073063,0.038,0.9999999999999845,-18.866029398440165,0.40730648152273274,82,2026-10-07 23:46:34.135243,55.3,0.46169386958974656,0.835753288758915,1.4177050708484034
0942,cdot_cos,S,R-S,83,16,18073,-0.030191003077217664,-0.05121670277521485,-0.11258357557569071,0.0019736959531511424,1099.0,1.581451185074743,0.5432880399260396,4.949589799571233,-0.005443200844131019,0.022,0.999999999999983,10009.892739262024,0.41227361720990136,83,2026-10-07 23:46:34.157243,55.3,0.011408833588196261,0.47001427180454697,0.4383844206108278
0942,cdot_cos,T,S-T,84,16,18344,-0.09083258760939619,0.06418087400417596,-0.06064158453217853,0.03378140400872911,1099.0,1.5924873557807049,0.5433296744500501,4.9796989183770375,-0.006269424581787009,0.271,0.9999999999999821,-19.844678359895216,0.41724080649024253,84,2026-10-07 23:46:34.428244,55.3,0.8765283634157252,0.1222041316970449,0.04072387714377068
0942,cdot_cos,P,T-P,85,17,19003,0.033437555141581914,0.0023329704547331,0.12427014275097811,0.998964814473664,1079.0,1.6476858244545414,0.5445605912201753,5.020600790373005,-0.03199754135334568,0.659,0.9999999999999818,-20.901589283686125,0.42220808272963395,85,2026-10-07 23:46:35.087244,55.3,0.4475059578899117,0.05352314665512104,0.08376095398154247
0942,cdot_cos,Q,P-Q,86,17,19112,-0.0020284446534016144,-0.0014883250869772075,-0.03546599979498353,0.12332969299844751,1079.0,1.6630308630721544,0.5447125196790785,5.051456339944837,-0.009088403717116163,0.109,0.9999999999999799,150.78898187747293,0.4271752368517985,86,2026-10-07 23:46:35.196243,55.3,0.08040331900717422,0.32386946652852994,0.14078017080378943
0942,cdot_cos,R,Q-R,87,17,19154,0.07317782178514319,0.08605050882567816,0.0752062664385448,0.9846157398407627,1079.0,1.718289368157761,0.5459251559349186,5.09205111124951,-0.033411080731598534,0.042,0.9999999999999797,-20.057685804249346,0.43214237600184263,87,2026-10-07 23:46:35.238244,55.3,0.4828822960879695,0.7767104371171393,1.31567869251444
0942,cdot_cos,S,R-S,88,17,19173,-0.032027789525418834,-0.07858432058884224,-0.10520561131056202,0.002965113924824678,1079.0,1.7282745397899941,0.5459288069041636,5.121266407521685,-0.006153842474793836,0.019,0.9999999999999779,7465.754003452412,0.437109510036839,88,2026-10-07 23:46:35.257244,55.3,0.01192278665634632,0.5609338181466385,0.5255353490649066
0942,cdot_cos,T,S-T,89,17,19463,-0.09320489764250861,0.05753251491678165,-0.061177108117089776,0.03282801462718391,1079.0,1.7396048532473332,0.5459692279793292,5.150663643398561,-0.007025931423559208,0.29,0.9999999999999772,-21.57510519428664,0.4420767097372319,89,2026-10-07 23:46:35.547244,55.3,0.8832700273792568,0.117542657222455,0.03907004640461737
0942,cdot_cos,P,T-P,90,18,20082,0.04402571727625614,0.0008237701244835691,0.13723061491876476,0.9994941947975391,1039.0,1.796449280979018,0.5471996108300771,5.19119157872194,-0.03592559044051199,0.619,0.9999999999999768,-23.488346736454726,0.4470439925528071,90,2026-10-07 23:46:36.166244,55.3,0.44734238732979914,0.05688600126891813,0.09183267808026632
0942,cdot_cos,Q,P-Q,91,18,20171,-0.0010024182250236138,-0.0006118894868438426,-0.04502813550127976,0.07655824577074544,1039.0,1.8100297228182538,0.5472938308689932,5.22085069943011,-0.00875344113441217,0.089,0.9999999999999742,288.39034263494824,0.4520111430192612,91,2026-10-07 23:46:36.255244,55.3,0.044861841162730336,0.39594327964996084,0.15258923414871675
0942,cdot_cos,R,Q-R,92,18,20230,0.0760242132949044,0.09103864121861173,0.07702663151992802,0.9860684912287114,1039.0,1.866927184756711,0.5485070775848357,5.261095370616471,-0.03737310280124466,0.059,0.9999999999999741,-23.589317237061085,0.45697828629991694,92,2026-10-07 23:46:36.314244,55.3,0.4649700295854969,0.5690317975323118,0.9643637616687668
0942,cdot_cos,S,R-S,93,18,20250,-0.03087525061943283,-0.06862316689080449,-0.10689946391433723,0.0027006988482511074,1039.0,1.8771754749270666,0.5485103997069624,5.289643039502486,-0.0068545085459814255,0.02,0.9999999999999721,9186.475720073766,0.4619454196061318,93,2026-10-07 23:46:36.334244,55.3,0.011651285222054795,0.5340320188259695,0.5124145085177778
0942,cdot_cos,T,S-T,94,18,20541,-0.0996990404765185,0.05651719865805794,-0.06882378985708566,0.0217541690631002,1039.0,1.8882884655097498,0.5485371592919908,5.318265381959282,-0.007475186718509361,0.291,0.9999999999999702,-23.19461127178035,0.4669126261545057,94,2026-10-07 23:46:36.625243,55.3,0.920321884956857,0.11944838051967081,0.0381889710745128
0942,cdot_cos,P,T-P,95,19,21121,0.036925196622827824,0.002026836043162926,0.13662423709934632,0.9994769552289183,1059.0,1.946694432389515,0.5497663007120416,5.358459394400166,-0.03999275302604262,0.58,0.9999999999999695,-26.455512585515898,0.4718799141084127,95,2026-10-07 23:46:37.205244,55.3,0.4434871427367187,0.06344254315466852,0.10069994289614687
0942,cdot_cos,Q,P-Q,96,19,21212,-0.0023923552579450283,-0.0014428406783856577,-0.03931755188077285,0.10208582409941155,1059.0,1.9618818155691653,0.549891810361982,5.387817758231226,-0.010598398542734375,0.091,0.9999999999999676,234.19995591785872,0.47684706619348277,96,2026-10-07 23:46:37.296243,55.3,0.06244486146270063,0.4054501247067066,0.16689432065549772
0942,cdot_cos,R,Q-R,97,19,21272,0.08002036330180749,0.09654561656374112,0.08241271855975252,0.9896198272503844,1059.0,2.0204863550861356,0.5511081692094056,5.427786358235451,-0.041648153785378804,0.06,0.9999999999999672,-25.526805110523235,0.4818142099843746,97,2026-10-07 23:46:37.356243,55.3,0.4744849544911137,0.5758630271749925,0.9767423252828386
0942,cdot_cos,S,R-S,98,19,21291,-0.03015449570048063,-0.05825684742662614,-0.11017485900228813,0.002254275771368335,1059.0,2.0309853788301644,0.5511109392866526,5.455720321872048,-0.007590743702869095,0.019,0.9999999999999653,12294.751029207695,0.4867813420760009,98,2026-10-07 23:46:37.375243,55.3,0.011257702975115599,0.5575241023682419,0.5525801970541463
0942,cdot_cos,T,S-T,99,19,21580,-0.11948825162664053,0.06972047095494109,-0.08933375592615991,0.007102668536896066,1059.0,2.041672270976129,0.5511196670980487,5.4835718195348955,-0.007766947350805358,0.289,0.9999999999999631,-20.188755226059875,0.4917485551523283,99,2026-10-07 23:46:37.664243,55.3,0.977569055020909,0.12221043121193348,0.03697886555697028
0942,cdot_cos,P,T-P,100,20,22180,0.042702125377170115,0.00010235872939167499,0.16219037700381064,0.9998727370474322,1099.0,2.101623008070662,0.5523480014816645,5.523480403612437,-0.04430352318069176,0.6,0.9999999999999629,-29.744812420161196,0.4967158650545813,100,2026-10-07 23:46:38.264243,55.3,0.43837182321202406,0.0619213316444156,0.09991789515755523
0942,cdot_cos,Q,P-Q,101,20,22269,-0.002066326494650391,-0.0011823582158934835,-0.044768451871820505,0.07757968518531075,1099.0,2.1159778689494275,0.5524432808997971,5.551986694332845,-0.010798036352357623,0.089,0.9999999999999603,351.65503195778314,0.5016830175984183,101,2026-10-07 23:46:38.353244,55.3,0.044917668099263126,0.41912397415815994,0.16129057167152344
0942,cdot_cos,R,Q-R,102,20,22323,0.08678801870649319,0.08992046823004184,0.08885434520114359,0.9927079028835988,1099.0,2.1762270754708144,0.5536621319062031,5.591713873833341,-0.04609829619410178,0.054,0.9999999999999598,-28.961915489436787,0.5066501596338983,102,2026-10-07 23:46:38.407244,55.3,0.4649801235842,0.6569893270691175,1.1157260466923495
0942,cdot_cos,S,R-S,103,20,22344,-0.03382142479448958,-0.05493993664590419,-0.12060944350098277,0.0012671687499820714,1099.0,2.186932716272892,0.5536636873323579,5.619073167101576,-0.008326578703874763,0.021,0.9999999999999573,24283.838465637946,0.51161729135205,103,2026-10-07 23:46:38.428244,55.3,0.010713153342413354,0.5467706052500544,0.5097924191465624
0942,cdot_cos,T,S-T,104,20,22619,-0.09493911268785298,0.06975334521784737,-0.061117687893363394,0.03293250458318569,1099.0,2.1991914408913167,0.5537041110027657,5.646696574026038,-0.00958454248182264,0.275,0.9999999999999553,-31.11948433324982,0.5165845071238854,104,2026-10-07 23:46:38.703244,55.3,0.8769991765538477,0.1339483472997321,0.04457718043063446
0942,cdot_cos,P,T-P,105,21,23279,0.037794429829738414,-0.0008084975860290594,0.1327335425175914,0.9993514773540124,1098.0,2.260604307287745,0.5549304450226415,5.686345410558258,-0.048796122490235544,0.66,0.9999999999999547,-31.97463282669395,0.521551854557909,105,2026-10-07 23:46:39.363244,55.3,0.44772331672419785,0.05835314752773468,0.09304979757034572
0942,cdot_cos,Q,P-Q,106,21,23369,-0.0029024002278870693,-0.001646268047931794,-0.040696830057625484,0.09530335256590684,1098.0,2.2762175956279265,0.555047359919662,5.714562845779965,-0.01261927720805623,0.09,0.9999999999999518,309.4288769363734,0.5265190084302316,106,2026-10-07 23:46:39.453243,55.3,0.05688109826935099,0.4291020627725301,0.17348098155757344
0942,cdot_cos,R,Q-R,107,21,23418,0.08193139369720756,0.08047247682358695,0.08483379392509463,0.990908738875835,1098.0,2.3378426785868003,0.556262609537197,5.754025697657306,-0.05062805104198914,0.049,0.9999999999999512,-31.2765157754432,0.5314861485872466,107,2026-10-07 23:46:39.502244,55.3,0.47201460611892243,0.7408209886449258,1.2576547542627308
0942,cdot_cos,S,R-S,108,21,23450,-0.03589399901159451,-0.055016829039344683,-0.11782539270880207,0.0014777670554509599,1098.0,2.348818052515129,0.5562644213704643,5.780869966573898,-0.009158680728430868,0.032,0.9999999999999485,22888.072021771808,0.5364532831496011,108,2026-10-07 23:46:39.534244,55.3,0.010803598974723116,0.3539253430754133,0.3429804352602789
0942,cdot_cos,T,S-T,109,21,23718,-0.11044547323086377,0.08482653383758275,-0.07455147421926926,0.01594248912440102,1098.0,2.3604939005436267,0.5562839677471495,5.807775654980514,-0.009790212096118488,0.268,0.9999999999999457,-32.30938285176674,0.5414205035102524,109,2026-10-07 23:46:39.802243,55.3,0.9375301111647568,0.1390918742916921,0.043566597121259425
0942,cdot_cos,P,T-P,110,22,24377,0.030263459980701988,0.001418036384087819,0.14070893321156577,0.9995826650531203,1100.0,2.423371297135476,0.5575091612210061,5.8472059612612295,-0.05352717353842763,0.659,0.999999999999945,-35.69800392801229,0.5463878704298467,110,2026-10-07 23:46:40.461244,55.3,0.44171151976480505,0.06166991993331986,0.09541334839430869
0942,cdot_cos,Q,P-Q,111,22,24467,-0.0023159428796446597,-0.0013365827815347946,-0.03257940286034665,0.14165142708441086,1100.0,2.4417748550157423,0.5576827278345688,5.875552735369077,-0.015931743799186476,0.09,0.9999999999999416,216.60519248223312,0.5513550254002227,111,2026-10-07 23:46:40.551244,55.3,0.09444088318641103,0.4506448009222755,0.2044839764474017
0942,cdot_cos,R,Q-R,112,22,24525,0.07243248518480057,0.07975992641698493,0.07474842806444523,0.98422748322986,1100.0,2.5044873613014857,0.5588883182789451,5.914718620475813,-0.05516319575240205,0.058,0.9999999999999413,-32.541276464340115,0.556322168816597,112,2026-10-07 23:46:40.609244,55.3,0.49106003393777187,0.6380403288872916,1.0812501083748867
0942,cdot_cos,S,R-S,113,22,24546,-0.03425621175385306,-0.07802369067916362,-0.10668869693865363,0.002732274259662288,1100.0,2.515787533166668,0.5588916641104757,5.941100503662249,-0.010088578727315362,0.021,0.9999999999999378,13471.87287008076,0.5612892981757034,113,2026-10-07 23:46:40.630244,55.3,0.011471544064441666,0.587638118513806,0.5381034221515426
0942,cdot_cos,T,S-T,114,22,24817,-0.09042030164880367,0.06000740958602947,-0.056164089894950614,0.0428656004023418,1100.0,2.5291681622790656,0.5589441548746721,5.967891100320548,-0.01200439926926232,0.271,0.9999999999999349,-36.498240619647525,0.5662565271859732,114,2026-10-07 23:46:40.901243,55.3,0.8524905081348126,0.1432880943327115,0.04937501517489836
0942,cdot_cos,P,T-P,115,23,25477,0.03427447133349758,-0.0012618254131152055,0.12469477298230125,0.9989888152767553,1038.0,2.593449680294998,0.5601670839293967,6.007123387610856,-0.05852318155373335,0.66,0.9999999999999345,-38.03882335181325,0.5712239159652847,115,2026-10-07 23:46:41.561243,55.3,0.4516363869324417,0.06205183807666968,0.09739623941807905
0942,cdot_cos,Q,P-Q,116,23,25566,-0.001898070105020774,-0.001154886214858581,-0.03617254143851835,0.11916706701379212,1038.0,2.6110765885402696,0.5603129158579331,6.0347555088640705,-0.016303326603350654,0.089,0.9999999999999304,289.51036562518414,0.5761910717123445,116,2026-10-07 23:46:41.650244,55.3,0.07504655389140731,0.46067396006135947,0.19805514882327865
0942,cdot_cos,R,Q-R,117,23,25615,0.07963192732211916,0.08447975047450748,0.08152999742713993,0.9891062104597681,1038.0,2.6754496451859198,0.5615229406295159,6.073799989233733,-0.06044124958821608,0.049,0.9999999999999294,-36.476875532993226,0.5811582113781506,117,2026-10-07 23:46:41.699244,55.3,0.4817829443313126,0.7742473606045961,1.3137358499112282
0942,cdot_cos,S,R-S,118,23,25649,-0.035218974223909315,-0.06548631250215453,-0.11485090154602848,0.0017415184182683798,1038.0,2.68695282987952,0.5615250704782283,6.099724308609223,-0.010955594790182039,0.034,0.9999999999999261,23234.352050468253,0.5861253451637168,118,2026-10-07 23:46:41.733243,55.3,0.010922504315398752,0.33811731894019176,0.3383289615764774
0942,cdot_cos,T,S-T,119,23,25916,-0.14462692917800204,0.07252241865979316,-0.10940795495409272,0.0023517057001446635,1038.0,2.698441622873853,0.5615279465724682,6.125547442316581,-0.010988787114370705,0.267,0.9999999999999228,-11.54076376512165,0.5910925801849207,119,2026-10-07 23:46:42.000243,55.3,0.996983994272962,0.1445940787507142,0.043029187244692166
0942,cdot_cos,P,T-P,120,24,26515,0.037939482182132014,0.000739781176959608,0.18256641136013407,0.9999587543041955,1079.0,2.7641660679324014,0.5627505013303886,6.164623634981959,-0.06372600319721486,0.599,0.9999999999999221,-43.13689488440592,0.5960599637465428,120,2026-10-07 23:46:42.599244,55.3,0.43711368910278675,0.06880957015834749,0.10972361445500597
0942,cdot_cos,Q,P-Q,121,24,26607,-0.0027249705348512125,-0.0015997318615144122,-0.040664452716983226,0.09545783964115603,1079.0,2.780875487923553,0.56286716897154,6.191539688613399,-0.016444855501515795,0.092,0.9999999999999173,405.2635951930727,0.6010271221976325,121,2026-10-07 23:46:42.691243,55.3,0.05640863335271702,0.4486955990891589,0.18162413033860564
0942,cdot_cos,R,Q-R,122,24,26662,0.08277503537416009,0.09328490097087767,0.0855000059090113,0.99123469768732,1079.0,2.8467260581648066,0.5640782329566009,6.2304485628854795,-0.06573176683461476,0.055,0.9999999999999161,-40.697198447876715,0.6059942645336804,122,2026-10-07 23:46:42.746243,55.3,0.47245217629216196,0.7054331743759771,1.1972830952955185
0942,cdot_cos,S,R-S,123,24,26684,-0.030617951630627027,-0.05485446878280327,-0.11339298700478712,0.0018874634743938383,1079.0,2.8584731371049106,0.5640805382846071,6.25595664423623,-0.011887557136475506,0.022,0.9999999999999126,23356.420236824008,0.61096139203206,123,2026-10-07 23:46:42.768243,55.3,0.010786503610019973,0.5475543809366061,0.5339581336410891
0942,cdot_cos,T,S-T,124,24,26955,-0.10816426290290646,0.0714754010829002,-0.07754631127227943,0.01354218394102212,1079.0,2.8708184509260173,0.564097078484189,6.281520062940119,-0.012545594111957742,0.271,0.9999999999999084,-39.78410128762319,0.6159286369275982,124,2026-10-07 23:46:43.039244,55.3,0.9489002095518019,0.14650447763916657,0.045554663546519214
0942,cdot_cos,P,T-P,125,25,27594,0.029797824633476657,-0.000546852016188392,0.13796208753638312,0.9995142368128079,1119.0,2.937878563985339,0.5653174725195504,6.320442361597723,-0.06904816252331777,0.639,0.999999999999908,-46.29862714350732,0.6208960601180374,125,2026-10-07 23:46:43.678244,55.3,0.4411781050075891,0.06650435125110446,0.10494540384870357
0942,cdot_cos,Q,P-Q,126,25,27683,-0.007775888240943605,-0.003777493593110763,-0.03757371287442026,0.11127073921938072,1119.0,2.955811011824929,0.565453283977356,6.347198329340663,-0.01873288095022231,0.089,0.9999999999999031,370.47891530001164,0.625863218468999,126,2026-10-07 23:46:43.767244,55.3,0.06815750620015634,0.47888090707261105,0.2014881779729204
0942,cdot_cos,R,Q-R,127,25,27734,0.08263550510683688,0.08050147706476364,0.09041139334778049,0.9933054872032236,1119.0,3.0231193654442636,0.566665224936543,6.38599373236737,-0.07128318476554103,0.051,0.9999999999999023,-43.360448722326424,0.6308303588218204,127,2026-10-07 23:46:43.818244,55.3,0.4784494244068607,0.7768321530119677,1.319771639594801
0942,cdot_cos,S,R-S,128,25,27766,-0.04444099865275075,-0.09682162985008819,-0.12707650375958762,0.0008865105235607124,1119.0,3.0350478914321495,0.5666663062221118,6.411098375577366,-0.012800367335656813,0.032,0.9999999999998977,54086.375625576286,0.6357974901892656,128,2026-10-07 23:46:43.850244,55.3,0.01036999234716137,0.5885373923069231,0.37276643712143287
0942,cdot_cos,T,S-T,129,25,28034,-0.06464866834986241,0.051405705276108216,-0.020207669697111658,0.24647824895980128,1119.0,3.0607857585519067,0.5669669134954732,6.439507245345817,-0.027786189270022767,0.268,0.9999999999998945,-49.85182749170166,0.6407647425283821,129,2026-10-07 23:46:44.118243,55.3,0.5831409971687174,0.17524974710841248,0.09603681761103443
0942,cdot_cos,P,T-P,130,26,28713,0.03134913337803718,-0.0003451055672938445,0.0959978017278996,0.995075904589713,1118.0,3.1289817558822586,0.5681800144119121,6.478249902306155,-0.07470788474815869,0.679,0.9999999999998938,-38.679136123214306,0.6457322122132232,130,2026-10-07 23:46:44.797244,55.3,0.5336213078508635,0.06402747744747646,0.10043593126708669
0942,cdot_cos,Q,P-Q,131,26,28802,-0.004924868956033082,-0.0029962906061510508,-0.036274002334070264,0.11857938082901792,1118.0,3.1477350729255797,0.5683245207688237,6.504772566060798,-0.02083094350122776,0.089,0.9999999999998878,372.83440257171634,0.6506993720874887,131,2026-10-07 23:46:44.886244,55.3,0.07529136166698172,0.4897183078057495,0.21071142745304688
0942,cdot_cos,R,Q-R,132,26,28856,0.07598849122666533,0.07690975467101821,0.08091336018269842,0.9887325832627328,1118.0,3.216151614671682,0.56952898131313,6.54339094534315,-0.07699948606353435,0.054,0.9999999999998864,-46.63377545061432,0.6556665139588962,132,2026-10-07 23:46:44.940243,55.3,0.4821661761550169,0.7469307541942766,1.2669729952981894
0942,cdot_cos,S,R-S,133,26,28877,-0.040217468194213714,-0.08398817820419076,-0.11620595942087905,0.001615991055031116,1118.0,3.2284035943785616,0.5695309492220374,6.568152447410915,-0.013963780789717013,0.021,0.9999999999998815,32031.82069924543,0.6606336382955222,133,2026-10-07 23:46:44.961244,55.3,0.010952045050284348,0.6453769155562648,0.5834276050895063
0942,cdot_cos,T,S-T,134,26,29152,-0.09437802921826587,0.06947808862624578,-0.05416056102405215,0.04764868217705817,1118.0,3.243257445125045,0.5695889734728254,6.593470183835114,-0.016999819856833208,0.275,0.9999999999998765,-52.32362375873412,0.6656009036426472,134,2026-10-07 23:46:45.236243,55.3,0.8364467440096292,0.15379187054509186,0.05401400271448541
0942,cdot_cos,P,T-P,135,27,29831,0.029615228544468197,0.001455453681602608,0.12399325776273407,0.9989488588004662,1099.0,3.312989123178362,0.57080500245923,6.6321559733390485,-0.08079274036394352,0.679,0.999999999999876,-52.46003279553792,0.6705683990028953,135,2026-10-07 23:46:45.915244,55.3,0.45403214252054225,0.06655075870132957,0.10269761127145366
0942,cdot_cos,Q,P-Q,136,27,29923,-0.0024790637342104057,-0.0014242382934023768,-0.032094292278678604,0.1449446370196151,1099.0,3.3336333754414507,0.5709813741793389,6.658731133993956,-0.02424615022006302,0.092,0.9999999999998691,320.61030027362483,0.6755355618843798,136,2026-10-07 23:46:46.007244,55.3,0.09708305846262741,0.4898513816463161,0.22439404633791876
0942,cdot_cos,R,Q-R,137,27,29983,0.07294066285631616,0.08368935915328797,0.07541972659052656,0.9847935280629491,1099.0,3.4031217774012843,0.5721792124295054,6.697187270499851,-0.08266117338515148,0.06,0.9999999999998683,-48.767037750688374,0.6805027071138373,137,2026-10-07 23:46:46.067244,55.3,0.4932790186215326,0.6840892723823082,1.158140032663894
0942,cdot_cos,S,R-S,138,27,30019,-0.02921135233867033,-0.05189917828389034,-0.10215201519498648,0.0035086593381803213,1099.0,3.4157240881273276,0.5721834786289091,6.721635237510369,-0.015173943611192736,0.036,0.9999999999998623,15819.051898149053,0.685469838818663,138,2026-10-07 23:46:46.103244,55.3,0.011706939207373842,0.3591898935232004,0.3500641868345373
0942,cdot_cos,T,S-T,139,27,30291,-0.10431657951277354,0.06638716534979039,-0.0751052271741032,0.0154691264324748,1099.0,3.4289834497349547,0.5722022875021904,6.7461667792461455,-0.01602544507569646,0.272,0.9999999999998567,-45.27126382150212,0.6904371115665799,139,2026-10-07 23:46:46.375243,55.3,0.9482526146510837,0.1549985405729003,0.04874765296921722
0942,cdot_cos,P,T-P,140,28,30930,0.03625773578020446,-0.002244345009239625,0.140574315292978,0.9995795479752995,1039.0,3.5000432941989854,0.5734172290680833,6.784765501824473,-0.08687904882545205,0.639,0.9999999999998553,-58.318528017171744,0.6954046090901261,140,2026-10-07 23:46:47.014244,55.3,0.44239902094842753,0.07022296439217737,0.11120476441945334
0942,cdot_cos,Q,P-Q,141,28,31019,-0.0024475220700550535,-0.001477074514274496,-0.038705257850259515,0.10523164889547527,1039.0,3.5187283982281574,0.5735450818797158,6.810471973059644,-0.023138854536805385,0.089,0.9999999999998478,498.5435476531043,0.7003717715951393,141,2026-10-07 23:46:47.103244,55.3,0.0636292280168924,0.5043171406825943,0.2099449890918203
0942,cdot_cos,R,Q-R,142,28,31067,0.08157014575622559,0.08571624664807277,0.08401766782628065,0.99049302449442,1039.0,3.589811745240487,0.5747480127019629,6.8489144953857295,-0.08908747197316794,0.048,0.9999999999998463,-54.82328344797869,0.7053389094089115,142,2026-10-07 23:46:47.151244,55.3,0.4769859979461982,0.8728717802230501,1.4809030627568702
0942,cdot_cos,S,R-S,143,28,31101,-0.03494938317302534,-0.06052964841524435,-0.11651952892925094,0.0015882548133624096,1039.0,3.6025240891295702,0.574749940894017,6.87301114005078,-0.016119941134706266,0.034,0.9999999999998399,37842.46008170849,0.7103060390190485,143,2026-10-07 23:46:47.185244,55.3,0.010818060276240203,0.38250122703963785,0.37389246732597187
0942,cdot_cos,T,S-T,144,28,31370,-0.1145018291606435,0.06524181839732213,-0.07955244598761815,0.012137421120324182,1039.0,3.6158218286791826,0.5747646760356894,6.897177599115795,-0.016923081960008236,0.269,0.9999999999998334,-54.50513087411872,0.7152733191929161,144,2026-10-07 23:46:47.454243,55.3,0.9536502324902913,0.15916419269196766,0.04943397602086368
0942,cdot_cos,P,T-P,145,29,31969,0.03785199447648776,-0.0005058096753423427,0.15235382363713126,0.9997807692438707,1078.0,3.688154424797849,0.5759779771801802,6.935694824350648,-0.09307482147938453,0.599,0.9999999999998325,-62.764087765972775,0.720240816028433,145,2026-10-07 23:46:48.053244,55.3,0.4412350030772143,0.07598208855615216,0.12075558617473502
0942,cdot_cos,Q,P-Q,146,29,32058,-0.0018951170800806407,-0.001119505167757906,-0.0397471115565684,0.09992886024677133,1078.0,3.706848370769453,0.5760991974854972,6.961034746266688,-0.024352601719917294,0.089,0.9999999999998241,566.9200352180136,0.725207980157444,146,2026-10-07 23:46:48.142244,55.3,0.0594888586330944,0.5124735104810927,0.2100443367595956
0942,cdot_cos,R,Q-R,147,29,32109,0.09007338036655567,0.09272702185042989,0.09196849744663631,0.9938544218070839,1078.0,3.7793747096634833,0.5773043078301607,6.9994444183174584,-0.09557309524641258,0.051,0.9999999999998227,-59.09873219649466,0.730175119845967,147,2026-10-07 23:46:48.193243,55.3,0.47464222835966025,0.8375050185748659,1.422085076353539
0942,cdot_cos,S,R-S,148,29,32141,-0.03324108554148334,-0.05454366941666471,-0.12331446590803902,0.001091304112149037,1078.0,3.792273882664089,0.5773056306014634,7.0232277925631434,-0.01719210743004123,0.032,0.9999999999998154,59255.13174918583,0.7351422473343857,148,2026-10-07 23:46:48.225244,55.3,0.010471204442793229,0.411238409111718,0.40309915626893233
0942,cdot_cos,T,S-T,149,29,32408,-0.11563735232615731,0.07719134892504959,-0.08239626678467396,0.010389522592919306,1078.0,3.8056939678466333,0.577318223701399,7.0470686830397895,-0.017948413077549703,0.267,0.9999999999998083,-60.05714648351781,0.7401095358050336,149,2026-10-07 23:46:48.492243,55.3,0.958737710466371,0.16289303071944278,0.05026249132038995
0942,cdot_cos,P,T-P,150,30,33047,0.02970688249357282,-1.809327538595941e-05,0.14534423481973013,0.999677000323853,1139.0,3.8792587610682716,0.5785294559588189,7.085511572481901,-0.0994370962132349,0.639,0.9999999999998073,-67.27750407611022,0.745077084879447,150,2026-10-07 23:46:49.131244,55.3,0.44065200166659113,0.07450782455867959,0.11512487202134325
0942,cdot_cos,Q,P-Q,151,30,33137,-0.0026293965757471028,-0.001456965873156519,-0.03233627906931992,0.14329401304646236,1139.0,3.900914967632626,0.5787029973169264,7.111223357018838,-0.02963195511083773,0.09,0.9999999999997978,402.2392233391374,0.7500442512406481,151,2026-10-07 23:46:49.221244,55.3,0.09482344197407021,0.5285502074573752,0.24062451738171317
0942,cdot_cos,R,Q-R,152,30,33192,0.07932370200997992,0.07942633433636448,0.08195309858572702,0.9893554574285707,1139.0,3.974397798410599,0.5799006590602989,7.14949737067862,-0.10169598305734191,0.055,0.9999999999997969,-60.17060187927745,0.7550113936454418,152,2026-10-07 23:46:49.276243,55.3,0.4923220676724234,0.7874609999135201,1.3360514686904246
0942,cdot_cos,S,R-S,153,30,33212,-0.03956206501095901,-0.0718214141582092,-0.11888576702093892,0.0013937217247783436,1139.0,3.987535677623113,0.5799023455665943,7.1729977617212155,-0.01838203016421088,0.02,0.9999999999997886,49400.32131549562,0.7599785113351569,153,2026-10-07 23:46:49.296243,55.3,0.010755278503123538,0.8914624558197581,0.6568939606256929
0942,cdot_cos,T,S-T,154,30,33487,-0.07032734543889133,0.06044383661764949,-0.030765280427932314,0.154292943119025,1139.0,4.0100562966433895,0.5800890398864164,7.198717560945346,-0.031647248867286704,0.275,0.999999999999782,-71.05314567532714,0.7649458160397773,154,2026-10-07 23:46:49.571244,55.3,0.6575998464800245,0.17668431362295758,0.0818931600737326
0942,cdot_cos,P,T-P,155,31,34186,0.034866238267540796,-0.0018218446008401324,0.10519358370643211,0.9970329190968367,1078.0,4.08471205011574,0.5812948940685315,7.237065018862454,-0.10610038960954438,0.699,0.9999999999997805,-61.74307129877101,0.7699134392013746,155,2026-10-07 23:46:50.270243,55.3,0.49573015747679616,0.06810346476572005,0.10680365303626639
0942,cdot_cos,Q,P-Q,156,31,34275,-0.0012956698756422021,-0.0007511448786052221,-0.036161908143183,0.11922880323670501,1078.0,4.105264940385866,0.5814390297690917,7.262173276495091,-0.02955037664053178,0.089,0.9999999999997704,531.0968252245349,0.774880606407334,156,2026-10-07 23:46:50.359244,55.3,0.07498314264140207,0.5360010638759184,0.23093135134973497
0942,cdot_cos,R,Q-R,157,31,34321,0.08508826973303885,0.08250287709598345,0.08638393960868104,0.9916493638583527,1078.0,4.180120239485653,0.5826372938082797,7.300426503881913,-0.10879067575037105,0.046,0.999999999999769,-66.12924740989209,0.7798477417568072,157,2026-10-07 23:46:50.405244,55.3,0.48269321394389314,0.9590823924076113,1.6272891108649359
0942,cdot_cos,S,R-S,158,31,34355,-0.033403552859797125,-0.049304848081523085,-0.11849182259283597,0.0014243735466390715,1078.0,4.193500520487366,0.582639014258454,7.3236609898288005,-0.01965325443642866,0.034,0.9999999999997593,51810.521829793535,0.7848148685468648,158,2026-10-07 23:46:50.439244,55.3,0.01072149829715098,0.3936101713825798,0.3935376765209758
0942,cdot_cos,T,S-T,159,31,34626,-0.14431243681430142,0.09775015183020196,-0.1109088839545043,0.0021647975618745516,1078.0,4.206885731139669,0.5826416290366238,7.3468335435404075,-0.019723303080828026,0.271,0.9999999999997506,-26.789517064739307,0.7897821806740725,159,2026-10-07 23:46:50.710243,55.3,0.9964547317457352,0.16498350619069047,0.04939192122620756
0942,cdot_cos,P,T-P,160,32,35264,0.03693198927836806,-0.002802735884284838,0.1812444260926695,0.9999556261904564,1059.0,4.282921580842721,0.583848938987016,7.385172037697723,-0.11313897464002495,0.638,0.9999999999997492,-77.37505313266945,0.7947497858958186,160,2026-10-07 23:46:51.348243,55.3,0.4379406435784301,0.07497271289494026,0.11917844781042632
0942,cdot_cos,Q,P-Q,161,32,35338,-0.0029197637805281644,-0.0013416494687423673,-0.039851753058896225,0.09940959244546124,1059.0,4.302550912793612,0.5839689077939573,7.409737146938691,-0.02953450928448785,0.074,0.9999999999997379,696.8850277591919,0.7997169426074554,161,2026-10-07 23:46:51.422244,55.3,0.0589693030505164,0.6468699106128978,0.2652612425796187
0942,cdot_cos,R,Q-R,162,32,35398,0.08616281180332244,0.08525357804595286,0.0890825755838506,0.9927987005047838,1059.0,4.378658327613429,0.5851664823829582,7.447955771465665,-0.11569243764360489,0.06,0.9999999999997361,-71.94368446895089,0.8046840890075285,162,2026-10-07 23:46:51.482244,55.3,0.47486947623505443,0.7472081125525628,1.2684569136636181
0942,cdot_cos,S,R-S,163,32,35434,-0.038578164121468264,-0.06574168388889422,-0.1247409759247907,0.0010086070235828268,1059.0,4.39221588629992,0.5851676985174861,7.47092345289341,-0.020821970632278388,0.036,0.9999999999997266,78009.84581723386,0.8096512164357569,163,2026-10-07 23:46:51.518244,55.3,0.010501182083428259,0.40052381234665124,0.3765988524025124
0942,cdot_cos,T,S-T,164,32,35705,-0.10224100459072046,0.06974329994237599,-0.06366284046925219,0.02873300108253875,1059.0,4.407496042102388,0.5852023430858692,7.494249017461783,-0.023544155902617294,0.271,0.9999999999997169,-78.5746625629064,0.8146185390530483,164,2026-10-07 23:46:51.789243,55.3,0.8908132911530018,0.17060969446631277,0.0563843387544961
0942,cdot_cos,P,T-P,165,33,36323,0.03564564114989046,-5.881504697522749e-05,0.1378866457406109,0.9995122069995303,1059.0,4.484686340700661,0.5864069696228877,7.532536384506565,-0.1200847647663082,0.618,0.9999999999997152,-80.14152593933903,0.8195861561284463,165,2026-10-07 23:46:52.407244,55.3,0.44756334675364634,0.0788471393199055,0.1249033957900859
0942,cdot_cos,Q,P-Q,166,33,36412,-0.0031796077403815977,-0.0018829656579048525,-0.03882524889027206,0.10460849802236294,1059.0,4.5049511063017915,0.5865329858080142,7.556951544369075,-0.03186849784224346,0.089,0.9999999999997028,700.0391801701126,0.8245533266610009,166,2026-10-07 23:46:52.496243,55.3,0.06277905200322825,0.5483163759833294,0.22769399551831584
0942,cdot_cos,R,Q-R,167,33,36466,0.08840616877010235,0.09711346127380854,0.09158577651048395,0.9937237927776658,1059.0,4.582286655625694,0.5877295036877402,7.595141697039279,-0.12283306942184713,0.054,0.9999999999997014,-76.02441477968422,0.8295204681277145,167,2026-10-07 23:46:52.550244,55.3,0.47684947084363494,0.8435349076175014,1.4321398022944911
0942,cdot_cos,S,R-S,168,33,36486,-0.03569465019135742,-0.07135029225162394,-0.12410081896145977,0.0010449139423086644,1059.0,4.596052876324482,0.5877307612995576,7.617864003239463,-0.022084254504395825,0.02,0.9999999999996905,80111.2183643779,0.8344875806138342,168,2026-10-07 23:46:52.570244,55.3,0.010440944936913867,0.7348198281095675,0.6883110349393817
0942,cdot_cos,T,S-T,169,33,36763,-0.09825760608913925,0.06097855567289404,-0.06256295589778182,0.030479967839532263,1059.0,4.611679448750077,0.5877674451254085,7.640979459239742,-0.025148307601802023,0.277,0.99999999999968,-83.52599616687945,0.839454919543385,169,2026-10-07 23:46:52.847244,55.3,0.8852905914865581,0.16964700879834452,0.05641361886496413
0942,cdot_cos,P,T-P,170,34,37382,0.04060938993206009,-0.0007798590884979628,0.13886699602119934,0.9995379359549321,1099.0,4.6900373191987645,0.5889698854584305,7.679230537384657,-0.12727905878053605,0.619,0.9999999999996783,-84.93623207236391,0.8444225661780554,170,2026-10-07 23:46:53.466244,55.3,0.44824470288921703,0.07911167391644244,0.12658783594295284
0942,cdot_cos,Q,P-Q,171,34,37472,-0.0013587504679160604,-0.0007828248538219964,-0.04196814039997615,0.08941179476391,1099.0,4.7096197010586325,0.5890773959658295,7.703189454519707,-0.03214063361688091,0.09,0.9999999999996649,884.922111013586,0.8493897394041795,171,2026-10-07 23:46:53.556243,55.3,0.051815451490936935,0.5455265653576458,0.2175820206651993
0942,cdot_cos,R,Q-R,172,34,37520,0.09698944386516183,0.09266080646308421,0.09834819433307788,0.9956734769752184,1099.0,4.788232100963141,0.5902740364558791,7.741374368952349,-0.1302591058605096,0.048,0.9999999999996632,-81.99494590022411,0.8543568753798617,172,2026-10-07 23:46:53.604243,55.3,0.47083095903721534,0.9640773487889868,1.637758331343923
0942,cdot_cos,S,R-S,173,34,37538,-0.03681971558697144,-0.05853369539383763,-0.13380915945213326,0.0006110952006624958,1099.0,4.802171126542375,0.5902747705681013,7.763855404117005,-0.023321729494661447,0.018,0.9999999999996511,145668.97693170325,0.8593239843354338,173,2026-10-07 23:46:53.622243,55.3,0.0102005797251925,0.8418621149157455,0.7743903099574685
0942,cdot_cos,T,S-T,174,34,37802,-0.09511020655383758,0.07385323384961993,-0.058290490966866136,0.0382922107443911,1099.0,4.818539137100108,0.590320770421218,7.786868728406479,-0.027471322954865107,0.264,0.9999999999996402,-90.20884152989882,0.8642913227351903,174,2026-10-07 23:46:53.886244,55.3,0.8598031384351663,0.18158515122129232,0.06200003999141062
0942,cdot_cos,P,T-P,175,35,38481,0.04588399530379859,-0.0022056761391892874,0.14099420185763617,0.9995891943197885,1099.0,4.898048086387218,0.5915210004529721,7.825090350571211,-0.13465241601405986,0.679,0.9999999999996385,-89.30045926492579,0.8692590554794467,175,2026-10-07 23:46:54.565243,55.3,0.4511373509931557,0.07204373503874721,0.11709712707969062
0942,cdot_cos,Q,P-Q,176,35,38570,-0.0020247594062746187,-0.0011631992904306,-0.047908754710073206,0.06602882816329599,1099.0,4.916374529282726,0.5916002445618902,7.848467407942812,-0.03134738192935929,0.089,0.9999999999996236,1303.6304590342231,0.8742262293893465,176,2026-10-07 23:46:54.654243,55.3,0.03704982657384538,0.5488465756471878,0.20591508871358177
0942,cdot_cos,R,Q-R,177,35,38620,0.08102329876850996,0.07893357490549359,0.08304805817478457,0.9899746020194944,1099.0,4.995742776852417,0.5927877837658106,7.886531799409425,-0.13698649163512183,0.05,0.9999999999996216,-88.95631349012618,0.8791933667782276,177,2026-10-07 23:46:54.704243,55.3,0.46247423589525377,0.9355951953444297,1.5873649513938126
0942,cdot_cos,S,R-S,178,35,38638,-0.03662670030989855,-0.05856429979528535,-0.11764999907840851,0.0014921485587388388,1099.0,5.009934048817169,0.5927895728811656,7.908802628657156,-0.024724742836152648,0.018,0.9999999999996088,62747.07133144808,0.884160473653794,178,2026-10-07 23:46:54.722244,55.3,0.010668479386896475,0.9081656097899633,0.7884039980417966
0942,cdot_cos,T,S-T,179,35,38921,-0.08426540352097456,0.06565446830144886,-0.04763870321107601,0.06695577413725032,1099.0,5.028436738804856,0.5928698516327618,7.932061296127665,-0.032339645789697266,0.283,0.9999999999995967,-94.85577194630015,0.8891278415894838,179,2026-10-07 23:46:55.005243,55.3,0.7902021404893932,0.17492045259552672,0.06538052999182452
0942,cdot_cos,P,T-P,180,36,39580,0.0241431687350831,0.0001585124277988245,0.10840857225605766,0.9975149988078428,1079.0,5.108939024986237,0.5940652644710495,7.970225258935836,-0.1419608550411021,0.659,0.9999999999995952,-91.70154923920123,0.8940955873623996,180,2026-10-07 23:46:55.664243,55.3,0.46199869325351045,0.07978617287013129,0.12215824913714989
0942,cdot_cos,Q,P-Q,181,36,39669,-0.0062671077273087124,-0.0039026421283416615,-0.030410276462391812,0.15687204107823005,1079.0,5.133594914647689,0.5942531574723388,7.9948621697241995,-0.04392373280551594,0.089,0.9999999999995802,521.7710162851654,0.8990627630378099,181,2026-10-07 23:46:55.753243,55.3,0.10731517476853442,0.5894737754270729,0.27703246810619403
0942,cdot_cos,R,Q-R,182,36,39727,0.0713963990235909,0.0798724714629826,0.07766350675089961,0.9865441208008334,1079.0,5.213865357012256,0.5954341530862978,8.03284951569532,-0.1443300791424274,0.058,0.9999999999995779,-85.01839054280869,0.9040299083486929,182,2026-10-07 23:46:55.811244,55.3,0.4987393501436492,0.8169016774827597,1.3839731442166845
0942,cdot_cos,S,R-S,183,36,39748,-0.03506015477709483,-0.06872469101957308,-0.10645655380068574,0.002767478284539393,1079.0,5.228355509235689,0.5954374644977417,8.054932351226688,-0.026292518246663527,0.021,0.9999999999995636,35645.69456077877,0.9089970162268048,183,2026-10-07 23:46:55.832243,55.3,0.01122740832968832,0.6904095311261275,0.690007248734877
0942,cdot_cos,T,S-T,184,36,40039,-0.13683014938851867,0.07336480104568381,-0.10176999461142384,0.003583302420902397,1079.0,5.242862557319554,0.5954417520663154,8.07696852711447,-0.02639618356950421,0.291,0.9999999999995498,-24.178114252379217,0.9139644050511867,184,2026-10-07 23:46:56.123244,55.3,0.9960804171868256,0.16544964663917827,0.049852398913625216
0942,cdot_cos,P,T-P,185,37,40659,0.0402518091970752,0.00029104115863435724,0.1770819585855939,0.9999441414619731,1039.0,5.324647203579691,0.5966376549119824,8.115153197762178,-0.15003580531495778,0.62,0.9999999999995479,-103.38600848173421,0.9189321429106588,185,2026-10-07 23:46:56.743244,55.3,0.4386438642356185,0.08226959608456133,0.1319107197744142
0942,cdot_cos,Q,P-Q,186,37,40748,-0.002381410564859402,-0.0014685172457696368,-0.042633219761934606,0.08646222979599397,1039.0,5.34487685646441,0.5967410074027758,8.1384662456534,-0.037466915068231,0.089,0.9999999999995314,1089.1744299781094,0.9238993203808372,186,2026-10-07 23:46:56.832243,55.3,0.04956413322762171,0.5708991046184243,0.2272994706148228
0942,cdot_cos,R,Q-R,187,37,40804,0.07591416946023372,0.08736983262305947,0.07829558002509311,0.9870003194035447,1039.0,5.42626724420177,0.5979202060551773,8.176439825937823,-0.15203195868178598,0.056,0.9999999999995284,-97.15499876143963,0.9288664636101646,187,2026-10-07 23:46:56.888243,55.3,0.47068841034629755,0.8576320977535801,1.453399781024291
0942,cdot_cos,S,R-S,188,37,40835,-0.031886924263643944,-0.06302137071925713,-0.10780109372387767,0.0025696811052528987,1039.0,5.440931651412811,0.5979232746581532,8.198314890826966,-0.027636374104207155,0.031,0.9999999999995134,40538.181561071884,0.9338335805231904,188,2026-10-07 23:46:56.919244,55.3,0.011096180644078975,0.48373759297165764,0.4730453939045379
0942,cdot_cos,T,S-T,189,37,41099,-0.11042598567677757,0.060724848449776075,-0.07853906141313363,0.012828049535994689,1039.0,5.456258974966013,0.5979385932500492,8.22030058919044,-0.02896505676995265,0.264,0.9999999999994986,-86.73660573826265,0.9388009525814707,189,2026-10-07 23:46:57.183244,55.3,0.9551642951363087,0.18594865965068735,0.05805804376212916
0942,cdot_cos,P,T-P,190,38,41698,0.029632797368456542,0.0018476716458090002,0.14005878304523411,0.9995673940981964,1078.0,5.539112543708374,0.5991316347929562,8.258463752290611,-0.15783002282965997,0.599,0.9999999999994966,-108.01381295215492,0.9437686982429588,190,2026-10-07 23:46:57.782243,55.3,0.4419849604761184,0.08944913576123516,0.13831981426103646
0942,cdot_cos,Q,P-Q,191,38,41807,-0.002894458088315908,-0.0021443911141527036,-0.03252725545677245,0.14200241421296164,1078.0,5.563419039607973,0.5993010279706965,8.282509315463706,-0.04674682511980797,0.109,0.9999999999994795,655.771378704103,0.9487359002257234,191,2026-10-07 23:46:57.891244,55.3,0.09289619815237406,0.48952551625132895,0.22299537522567778
0942,cdot_cos,R,Q-R,192,38,41852,0.07407842108010396,0.08998760999432263,0.07697287916841987,0.9860275976184375,1078.0,5.645829106251163,0.6004765934387326,8.320452103817725,-0.15985988978421417,0.045,0.9999999999994774,-96.22013213213296,0.953703031121757,192,2026-10-07 23:46:57.936243,55.3,0.49283725509741955,1.0807706277837978,1.8313348142931298
0942,cdot_cos,S,R-S,193,38,41886,-0.03388752070174032,-0.0848400174869044,-0.10796594178184428,0.0025464214722077704,1078.0,5.660688396108514,0.6004796278509743,8.342133959916527,-0.0290742595574793,0.034,0.999999999999461,43100.81156064204,0.9586701503175452,193,2026-10-07 23:46:57.970243,55.3,0.011127557849748339,0.46696725415709517,0.4370379369809107
0942,cdot_cos,T,S-T,194,38,42157,-0.0952525407743806,0.053424187752731736,-0.061365020072640275,0.03249967693435352,1078.0,5.677582879533846,0.6005183550190727,8.364257182948103,-0.033148158330621645,0.271,0.9999999999994454,-105.19485346289143,0.9636375426493551,194,2026-10-07 23:46:58.241244,55.3,0.8843523570866604,0.1860016432104523,0.06234126725214578
0942,cdot_cos,P,T-P,195,39,42776,0.032729816167916814,0.0018707141404701493,0.12798235694229743,0.9991567675757029,1059.0,5.7615012867285795,0.6017083518155814,8.40240433095038,-0.1659511142332705,0.619,0.9999999999994438,-111.59942303397791,0.9686053433673278,195,2026-10-07 23:46:58.860243,55.3,0.4492150847361728,0.08662476373736967,0.13557093246322074
0942,cdot_cos,Q,P-Q,196,39,42866,-0.0027567006457593964,-0.0016582491883995669,-0.03548651681367621,0.12320707401169582,1059.0,5.7848243370407095,0.6018550086723831,8.42597485230124,-0.04654861712300859,0.09,0.9999999999994248,814.1623904547733,0.9735725260576351,196,2026-10-07 23:46:58.950243,55.3,0.07691043356467203,0.5933551593958943,0.25914500346811115
0942,cdot_cos,R,Q-R,197,39,42926,0.07420378279875034,0.08894574378428062,0.07696048344450973,0.9860181504452104,1059.0,5.8683052154198405,0.6030280332627839,8.463906535565588,-0.16798533293096085,0.06,0.9999999999994226,-103.52444168835285,0.9785396744129673,197,2026-10-07 23:46:59.010243,55.3,0.4853423764822297,0.821142811117374,1.3913479729855165
0942,cdot_cos,S,R-S,198,39,42946,-0.03346485566559189,-0.0983668992461032,-0.10766863846434223,0.0025885236457408546,1059.0,5.883361474374794,0.6030311111693825,8.485404652906928,-0.030553240087006852,0.02,0.9999999999994053,44651.15767542265,0.98350677550298,198,2026-10-07 23:46:59.030244,55.3,0.011129918383172498,0.8324377686791617,0.7528129477476941
0942,cdot_cos,T,S-T,199,39,43236,-0.08726303152154073,0.04634029592963062,-0.05379817585594884,0.0485663464514382,1059.0,5.901602726167007,0.6030888578947973,8.507620058118633,-0.03711949173677962,0.29,0.9999999999993886,-113.70777481503522,0.9884742036381242,199,2026-10-07 23:46:59.320243,55.3,0.8378677750021027,0.1778251720450388,0.06290086824900892
0942,cdot_cos,P,T-P,200,40,43835,0.022875252754768222,-0.0004900815774806168,0.11013828427630895,0.9977411704656634,1021.0,5.986500074160917,0.6042745619641937,8.545737695427801,-0.17409223139417968,0.599,0.9999999999993867,-115.52017336595894,0.9934420133159493,200,2026-10-07 23:46:59.919244,55.3,0.4553073439303583,0.0899302334106791,0.1417317996559431
0942,cdot_cos,Q,P-Q,201,40,43924,-0.014557200281769008,-0.006883863803947592,-0.03743245303653723,0.11204558070958825,1021.0,6.0093391457930005,0.6044076393720863,8.568962355766223,-0.04725322124848649,0.089,0.9999999999993666,953.122037424023,0.9984091969375065,201,2026-10-07 23:47:00.008243,55.3,0.06827302779725154,0.6056223046495881,0.2566187823829624
0942,cdot_cos,R,Q-R,202,40,43973,0.0726086105274945,0.0790703164835075,0.0871658108092635,0.9919999029591766,1021.0,6.094300844388544,0.6055851687693081,8.606987585264081,-0.1771789320596081,0.049,0.9999999999993644,-110.33755175680457,1.003376331903012,202,2026-10-07 23:47:00.057244,55.3,0.48032022734374336,1.0221126548172947,1.733912216235572
0942,cdot_cos,S,R-S,203,40,44007,-0.04005447658698445,-0.1318255484335419,-0.11266308711447895,0.001965053702761941,1021.0,6.109506185965095,0.6055875001273633,8.628298923308268,-0.031971545257445895,0.034,0.9999999999993457,62284.463976083694,1.008343448862871,203,2026-10-07 23:47:00.091244,55.3,0.010654537432487982,0.6570920528301418,0.4472159287221131
0942,cdot_cos,T,S-T,204,40,44275,-0.0647142149905513,0.03258122600242724,-0.024659738403566847,0.20364228372401996,1021.0,6.138983103980993,0.6058290771626568,8.652975183445717,-0.06219332456390361,0.268,0.9999999999993308,-125.10203740907066,1.0133108639111605,204,2026-10-07 23:47:00.359244,55.3,0.6151231129258011,0.2152262891178022,0.10998850005932015
0942,cdot_cos,P,T-P,205,41,44856,0.036493726930201816,-0.0009396050497379164,0.10120794192075311,0.9963039923042681,1037.0,6.224867476932237,0.6070102265413384,8.691069116603156,-0.18272146896296676,0.581,0.9999999999993289,-102.04310019922569,1.0182786860668072,205,2026-10-07 23:47:00.940243,55.3,0.5170437881638075,0.09304798890005667,0.1478216401914702
0942,cdot_cos,Q,P-Q,206,41,44943,-0.003400486537646371,-0.002050967488815211,-0.03989421346784819,0.09919957450036655,1037.0,6.247104867082859,0.6071277624835911,8.713928285576694,-0.04771938991502593,0.087,0.9999999999993078,1148.6025164767336,1.023245869813936,206,2026-10-07 23:47:01.027244,55.3,0.059067037503313824,0.6214147302487443,0.25560218563932935
0942,cdot_cos,R,Q-R,207,41,44997,0.07954379704673475,0.08795363243212441,0.08294428358438112,0.989917485264859,1037.0,6.332993639995519,0.6082999777749566,8.75191824460722,-0.1857104117181972,0.054,0.9999999999993056,-117.71815537607547,1.0282130115425876,207,2026-10-07 23:47:01.081243,55.3,0.47566375148080864,0.9376986238387206,1.5905328317159229
0942,cdot_cos,S,R-S,208,41,45030,-0.038600199015150556,-0.0864276095103864,-0.1181439960618853,0.001451996121811294,1037.0,6.348376318457441,0.6083016962492843,8.773057459512657,-0.03352844372209388,0.033,0.9999999999992858,88556.43959333084,1.0331801263382423,208,2026-10-07 23:47:01.114244,55.3,0.010685244655561105,0.5210670282228176,0.4661417715733934
0942,cdot_cos,T,S-T,209,41,45294,-0.09093746608243782,0.04918781910887455,-0.05233726706728726,0.05243849599079257,1037.0,6.367384063858225,0.6083637567430483,8.795018441668795,-0.041539729426001,0.264,0.9999999999992673,-129.0883333022031,1.0381475498838793,209,2026-10-07 23:47:01.378243,55.3,0.8245987300377844,0.20090612734694344,0.07199903560903023
0942,cdot_cos,P,T-P,210,42,45893,0.023920388498789896,0.0013226652205021844,0.11485785458122771,0.9982591499063203,1078.0,6.454454753696627,0.6095445173646801,8.833145002461258,-0.19166537585524063,0.599,0.999999999999265,-127.14316829246378,1.0431154289151394,210,2026-10-07 23:47:01.977243,55.3,0.45690969237413387,0.09426433455845218,0.14536008320267474
0942,cdot_cos,Q,P-Q,211,42,46002,-0.008074576278578927,-0.005300532099323701,-0.03199496477736882,0.14562672083499964,1078.0,6.480312736659251,0.609716660666648,8.856652142483096,-0.057412415771458336,0.109,0.9999999999992436,779.8906989062523,1.048082644918833,211,2026-10-07 23:47:02.086244,55.3,0.0964822773018091,0.5172949791146074,0.23722920149195906
0942,cdot_cos,R,Q-R,212,42,46046,0.0743917551542507,0.08967506360668273,0.08246633143282962,0.9896502386837743,1078.0,6.567225059143611,0.6108857866177551,8.894637417850328,-0.19444260802055585,0.044,0.999999999999241,-117.20738224939764,1.0530497728724546,212,2026-10-07 23:47:02.130244,55.3,0.49424034151326734,1.1652742386335009,1.9752800564627473
0942,cdot_cos,S,R-S,213,42,46065,-0.03601843788304517,-0.09356673492677997,-0.11041019303729588,0.002225193617603597,1078.0,6.582856869658999,0.6108884139253626,8.91562899662935,-0.035246689523757854,0.019,0.9999999999992197,60592.79775131857,1.0580168669183432,213,2026-10-07 23:47:02.149244,55.3,0.010925885984632601,0.9092273550589216,0.8227268692309053
0942,cdot_cos,T,S-T,214,42,46352,-0.09005878592444716,0.052257475735175474,-0.05404034804140199,0.04795125570478362,1078.0,6.6017756986358505,0.6109450288714107,8.937361383585191,-0.04276809428937846,0.287,0.9999999999992,-132.85192852148938,1.0629843361878493,214,2026-10-07 23:47:02.436243,55.3,0.8387313247524485,0.18657838256648504,0.06591926472770669
0942,cdot_cos,P,T-P,215,43,46971,0.037540048692612425,0.0003831547845760459,0.1275988346170596,0.9991387082125137,1059.0,6.689952861252161,0.6121240062538207,8.975506061579987,-0.20073092944607016,0.619,0.9999999999991978,-133.9829224151785,1.0679522783387776,215,2026-10-07 23:47:03.055244,55.3,0.45523650935926124,0.08988244016320227,0.14245098968709305
0942,cdot_cos,Q,P-Q,216,43,47061,-0.0014995244906419773,-0.0009131229209378035,-0.039039573183254406,0.10350355227572804,1059.0,6.713050159557895,0.6122460650435435,8.998149332587973,-0.053013929730764714,0.09,0.9999999999991739,1210.211899124579,1.0729194705285523,216,2026-10-07 23:47:03.145243,55.3,0.06164390792791264,0.6162214268755307,0.2566366478414869
0942,cdot_cos,R,Q-R,217,43,47117,0.07843776706240983,0.08947311490777866,0.0799372915530518,0.9881151202079276,1059.0,6.800872718089757,0.6134106099247425,9.036109162232052,-0.20301733611377804,0.056,0.9999999999991711,-128.8086091010703,1.0778866151820188,217,2026-10-07 23:47:03.201244,55.3,0.47765338897478987,0.925284924143518,1.568259973783245
0942,cdot_cos,S,R-S,218,43,47139,-0.03265751573136304,-0.08550555600936026,-0.11109528279377287,0.0021426453198367472,1059.0,6.816682071061969,0.6134131337397078,9.056943025024284,-0.036826287088962024,0.022,0.9999999999991481,65849.14159973017,1.0828537113061125,218,2026-10-07 23:47:03.223244,55.3,0.010967296379814955,0.8065177065603321,0.7186069532823778
0942,cdot_cos,T,S-T,219,43,47431,-0.08399880563007414,0.047433222882156165,-0.051341289898711104,0.05524366724924166,1059.0,6.836359497178411,0.6134782029720249,9.07865498168883,-0.045953155038209625,0.292,0.9999999999991269,-140.26395616244957,1.0878212025876257,219,2026-10-07 23:47:03.515244,55.3,0.8198675849741113,0.18644280632332522,0.06738844560425444
0942,cdot_cos,P,T-P,220,44,48030,0.04449138981886462,0.0016433272078832195,0.12849019544893875,0.9991800998920798,1039.0,6.925564669954791,0.6146543944283435,9.116804773244514,-0.20974662672406127,0.599,0.999999999999125,-139.2574914619119,1.092789151176309,220,2026-10-07 23:47:04.114244,55.3,0.4579885419201477,0.09199714709056199,0.1489234937836054
0942,cdot_cos,Q,P-Q,221,44,48140,-0.001855961283532006,-0.0014653225630761432,-0.04634735110239663,0.07155740783596015,1039.0,6.946572079392904,0.6147385775126591,9.138753095193172,-0.049785898046332176,0.11,0.9999999999990986,1900.1528629895163,1.0977563754541497,221,2026-10-07 23:47:04.224244,55.3,0.04023682539911587,0.4968018068434327,0.19097644943739667
0942,cdot_cos,R,Q-R,222,44,48187,0.06930692855719134,0.09280987465807668,0.07116288984072335,0.9808347980613319,1039.0,7.034861067460346,0.6158917780346554,9.17658799928413,-0.21064958792932756,0.047,0.9999999999990951,-139.4932510128637,1.1027235064319838,222,2026-10-07 23:47:04.271244,55.3,0.4659600518654137,1.11170715583259,1.8784891078179056
0942,cdot_cos,S,R-S,223,44,48219,-0.02573268455991792,-0.05562276801279304,-0.09503961311710926,0.005190658133875177,1039.0,7.051072552041168,0.6158978774144012,9.197323847866286,-0.0389680234496139,0.032,0.9999999999990709,28147.380821842227,1.1076906156266353,223,2026-10-07 23:47:04.303244,55.3,0.012207513157047361,0.5023652945882473,0.506608893150684
0942,cdot_cos,T,S-T,224,44,48490,-0.1381536980641071,0.05274289096957822,-0.11242101350418918,0.001991483350275222,1039.0,7.067012446313994,0.615900217534416,9.21795759494078,-0.03840256109704487,0.271,0.9999999999990471,241.63818478296162,1.1126580896135996,224,2026-10-07 23:47:04.574244,55.3,0.9853832767557091,0.19594505310707566,0.05881879805470826
0942,cdot_cos,P,T-P,225,45,49069,0.04887543777577512,0.00257422405643317,0.18702913583988223,0.9999677742081937,1059.0,7.157274770825203,0.6170745636755828,9.256125802823059,-0.21884330071653574,0.579,0.9999999999990448,-153.6520905499116,1.1176260412554229,225,2026-10-07 23:47:05.153243,55.3,0.43844527291612445,0.095571900084852,0.1558934792939708
0942,cdot_cos,Q,P-Q,226,45,49158,-0.0007068395373498006,-0.0004203345634271831,-0.049582277313124916,0.0605457447970235,1059.0,7.177684706612252,0.6171456239249636,9.277740769966032,-0.0498659241011498,0.089,0.9999999999990171,2377.945167483432,1.1225932363025906,226,2026-10-07 23:47:05.242244,55.3,0.0337547471291866,0.6209853192059117,0.22932512120280368
0942,cdot_cos,R,Q-R,227,45,49217,0.0872116471057714,0.10120338584927466,0.0879184866431212,0.9923235522753117,1059.0,7.267810157643855,0.6183095610746663,9.315780585138025,-0.2216365992899971,0.059,0.9999999999990139,-147.57727703143632,1.1275603858188135,227,2026-10-07 23:47:05.301243,55.3,0.46069897781802,0.9004695581668676,1.5275500174847922
0942,cdot_cos,S,R-S,228,45,49237,-0.026494472078366523,-0.049189103800891955,-0.11370611918413792,0.0018551212244026134,1059.0,7.283940114475943,0.6183117357558605,9.336310218058248,-0.03995850912166084,0.02,0.9999999999989881,83542.40182426573,1.1325274746261758,228,2026-10-07 23:47:05.321243,55.3,0.01060246894305403,0.8021519135319677,0.8064978416043811
0942,cdot_cos,T,S-T,229,45,49528,-0.2661973422099457,0.0513543265701471,-0.23970287013157915,1.750567619105704e-06,1059.0,7.299896234185134,0.6183117378079755,9.356762191946546,-0.03961502251690731,0.291,0.9999999999989628,167381.74963555942,1.1374949941650265,229,2026-10-07 23:47:05.612243,55.3,0.9913668664679187,0.18420702109341663,0.05483202649206559
0942,cdot_cos,P,T-P,230,46,50128,0.027832644779630093,-0.00013627813250588583,0.2940299869895758,0.9999999132172848,1058.0,7.391148600752311,0.6194833037899353,9.39493737495364,-0.22795257228583696,0.6,0.9999999999989602,-160.7571000430395,1.142463012700424,230,2026-10-07 23:47:06.212243,55.3,0.437703407032629,0.09744740318246237,0.15208727761196233
0942,cdot_cos,Q,P-Q,231,46,50217,-0.006930236213299087,-0.0036722349846392112,-0.03476288099292918,0.12759558568559196,1058.0,7.416833118004089,0.6196326907214043,9.41760984367496,-0.0646620154076945,0.089,0.9999999999989325,1093.0712296751537,1.147430209865912,231,2026-10-07 23:47:06.301243,55.3,0.08003483190293338,0.6561117204741976,0.2885900814806455
0942,cdot_cos,R,Q-R,232,46,50268,0.08068903094426796,0.08622178011334161,0.08761926715756706,0.9921964740813367,1058.0,7.5079364869967185,0.6207935641203431,9.455654178076786,-0.2308922314501577,0.051,0.9999999999989293,-143.19409523416428,1.1523973465336752,232,2026-10-07 23:47:06.352243,55.3,0.48677795608624347,1.052721742700159,1.7863405684829359
0942,cdot_cos,S,R-S,233,46,50299,-0.037346076062647504,-0.09383946888532906,-0.11803510700691547,0.0014607529772019368,1058.0,7.524210735759505,0.6207952721910299,9.47603690215379,-0.04154212005585879,0.031,0.9999999999989028,110856.13309796661,1.1573644512836834,233,2026-10-07 23:47:06.383244,55.3,0.010482719311181275,0.7098331655100306,0.5249757665414997
0942,cdot_cos,T,S-T,234,46,50568,-0.06832600602217356,0.042757916569000444,-0.03097992995952606,0.15275039934040657,1058.0,7.55194614325834,0.620973867978262,9.499081947815892,-0.07099244249884189,0.269,0.9999999999988793,-164.899312012927,1.1623319507394185,234,2026-10-07 23:47:06.652243,55.3,0.6604476405105439,0.22271689870264114,0.10310560408488999
0942,cdot_cos,P,T-P,235,47,51186,0.041127073817868856,0.0025863430690858803,0.10945307984004242,0.9976541416953978,1039.0,7.644032427261526,0.6221395171497371,9.537226695869446,-0.23729425302492405,0.618,0.999999999998877,-142.6688360406339,1.1673000386334285,235,2026-10-07 23:47:07.270243,55.3,0.49617565259139984,0.09311588766682351,0.14900693204398952
0942,cdot_cos,Q,P-Q,236,47,51277,-0.0010342667520453885,-0.000627857216062087,-0.042161340569914246,0.08854574190987571,1039.0,7.667037380414534,0.6222429051517104,9.55908579875217,-0.05972331962501842,0.091,0.9999999999988469,1717.5197316007361,1.1722672417688327,236,2026-10-07 23:47:07.361243,55.3,0.05113806680108241,0.6316884488344356,0.2528016830000915
0942,cdot_cos,R,Q-R,237,47,51337,0.08284542967468256,0.10234312478960124,0.08387969642672795,0.9904209080638086,1039.0,7.758999724949393,0.6233985834133269,9.597108147945931,-0.24024618030295677,0.06,0.9999999999988429,-156.20511925649748,1.1772343936923102,237,2026-10-07 23:47:07.421243,55.3,0.4717020094757984,0.9043470748713405,1.5327057422476495
0942,cdot_cos,S,R-S,238,47,51356,-0.02402242483450412,-0.04763083926935441,-0.10686785450918668,0.002705411015592129,1039.0,7.775559029399095,0.6234017383222675,9.617382575913041,-0.043564413629258045,0.019,0.9999999999988142,62341.50347083092,1.182201476167917,238,2026-10-07 23:47:07.440243,55.3,0.010946509660399664,0.866102749248079,0.8715423394579939
0942,cdot_cos,T,S-T,239,47,51646,-0.16333638204447726,0.07369300119810777,-0.13931395720997314,0.0004507883028603861,1039.0,7.79191162942082,0.623402264007011,9.637574085437453,-0.04311173417643373,0.29,0.9999999999987862,861.1234364518461,1.1871690264867454,239,2026-10-07 23:47:07.730243,55.3,0.9895547892483895,0.1889421914133951,0.056388275936983166
0942,cdot_cos,P,T-P,240,48,52225,0.03217659685860223,0.0020140046492074675,0.1955129789030795,0.9999798415679276,1019.0,7.885145500418864,0.6245676689365907,9.67576986650735,-0.24722577351707958,0.579,0.9999999999987833,-175.14430749342517,1.1921370835899812,240,2026-10-07 23:47:08.309243,55.3,0.4379642634527434,0.10271711475479396,0.16102568393444566
0942,cdot_cos,Q,P-Q,241,48,52317,-0.0037480638937912405,-0.002344961071344267,-0.03592466075239347,0.1206134519859804,1019.0,7.910858048306872,0.6247081381104249,9.698087817672082,-0.06868835047419161,0.092,0.9999999999987527,1271.0078529652988,1.197104290953697,241,2026-10-07 23:47:08.401243,55.3,0.07433013961816279,0.6423455800715325,0.2794842161739931
0942,cdot_cos,R,Q-R,242,48,52377,0.07148138079005291,0.0936948625525311,0.07522944468384415,0.9846351433076477,1019.0,8.003337087152026,0.6258540797644462,9.73601418892826,-0.24859156836358495,0.06,0.9999999999987492,-156.99160359350623,1.2020714433050474,242,2026-10-07 23:47:08.461244,55.3,0.48495947763701186,0.9102910602788155,1.5413173140859104
0942,cdot_cos,S,R-S,243,48,52413,-0.03314106160181067,-0.09631999197446067,-0.10462244239186358,0.003061997618840973,1019.0,8.02009297554033,0.6258576411964212,9.756164705767503,-0.0453502751246747,0.036,0.9999999999987184,57067.29615103908,1.2070385538984965,243,2026-10-07 23:47:08.497243,55.3,0.01131541888783408,0.4779622727259576,0.4654413441195339
0942,cdot_cos,T,S-T,244,48,52684,-0.10868129435411518,0.047150849036001447,-0.07554023275230451,0.015106998840434817,1019.0,8.037750370788295,0.625875212058415,9.776492961880402,-0.047891960398554916,0.271,0.9999999999986887,-144.65341966560592,1.212006086182581,244,2026-10-07 23:47:08.768243,55.3,0.9483124612171564,0.2063458365018376,0.06515644002939382
0942,cdot_cos,P,T-P,245,49,53244,0.04016736830538115,-0.0010158958092377484,0.14884866265949634,0.9997338890395049,1019.0,8.131932418924325,0.6270372569634609,9.81469530968628,-0.2569051005705807,0.56,0.9999999999986863,-179.86666372739685,1.216974145033916,245,2026-10-07 23:47:09.328243,55.3,0.4432678239906712,0.10497950775534598,0.16818222881433972
0942,cdot_cos,Q,P-Q,246,49,53336,-0.002236429705842663,-0.001408167338825224,-0.04240379801122381,0.08746960523009265,1019.0,8.155327419474283,0.6271388580894215,9.836298842158945,-0.06427267487258113,0.092,0.9999999999986531,1895.9674302500816,1.2219413551289153,246,2026-10-07 23:47:09.420243,55.3,0.049931045270537835,0.6387983405495459,0.2542934842386657
0942,cdot_cos,R,Q-R,247,49,53383,0.08972081540183868,0.09944003136146672,0.09195724510768134,0.9938506200275637,1019.0,8.249471313585442,0.6282924842880577,9.874401719384164,-0.2601779926274772,0.047,0.9999999999986501,-169.81698056657012,1.2269084840377478,247,2026-10-07 23:47:09.467244,55.3,0.4709673442122124,1.1797889015549508,2.0030615768331743
0942,cdot_cos,S,R-S,248,49,53413,-0.036225088941773946,-0.10227832687952765,-0.12594590434361264,0.0009436524677332115,1019.0,8.266227576220448,0.6282935789538844,9.894387430615854,-0.046620973919515835,0.03,0.9999999999986182,195088.77824508533,1.231875582486418,248,2026-10-07 23:47:09.497243,55.3,0.010247649278352203,0.6193614951981157,0.5585420878335394
0942,cdot_cos,T,S-T,249,49,53683,-0.09027524801678627,0.046235345061603546,-0.05405015907501232,0.047926493315219726,1019.0,8.286633003297329,0.6283491734255469,9.91519297147332,-0.05689831210338109,0.27,0.9999999999985887,-184.86259292579055,1.2368431282426204,249,2026-10-07 23:47:09.767244,55.3,0.8347471487457672,0.21386647977036252,0.07557565584029909
0942,cdot_cos,P,T-P,250,50,54263,0.03455410291479449,-0.0017168751494712148,0.12482935093158076,0.998996305217413,1038.0,8.381715475296444,0.6295072283776432,9.953393664470823,-0.2666353805141495,0.58,0.9999999999985861,-181.11149909691463,1.2418112604285534,250,2026-10-07 23:47:10.347244,55.3,0.45538762774489644,0.10389177750574027,0.1639352965501983
0942,cdot_cos,Q,P-Q,251,50,54352,-0.0031896204637970197,-0.0019432071574923874,-0.03774372337859151,0.1103444132442415,1038.0,8.407147465203987,0.6296350506423,9.975306090893314,-0.07182321339582465,0.089,0.999999999998552,1524.086336925708,1.2467784676934224,251,2026-10-07 23:47:10.436243,55.3,0.06637834206897779,0.6762256281110948,0.28575269559037864
0942,cdot_cos,R,Q-R,252,50,54401,0.08355554892137614,0.08905700647330819,0.08674516938517315,0.9918131690231728,1038.0,8.502083637100219,0.630783143543837,10.013382890991837,-0.26968788766946394,0.049,0.9999999999985488,-172.34204131803256,1.2517456001756417,252,2026-10-07 23:47:10.485244,55.3,0.4801387086570975,1.1415513385320848,1.9374728958414522
0942,cdot_cos,S,R-S,253,50,54419,-0.04036970875691708,-0.09711436868511827,-0.12392525767829321,0.001055097178688597,1038.0,8.519019496380132,0.630784364107111,10.033250454406977,-0.04842844065389004,0.018,0.9999999999985153,181276.50710741154,1.256712673970317,253,2026-10-07 23:47:10.503244,55.3,0.010370485093342447,0.9527070133316231,0.9408810711062859
0942,cdot_cos,T,S-T,254,50,54702,-0.13036163575069076,0.06760563046301273,-0.08999192699377367,0.00685054083191002,1038.0,8.536381089580157,0.6307922889464276,10.053185730699965,-0.049745427990676994,0.283,0.9999999999984829,-166.184736898837,1.2616802603852495,254,2026-10-07 23:47:10.786243,55.3,0.9738728380555145,0.2004667016201013,0.061348385865813725
0942,cdot_cos,P,T-P,255,51,55301,0.04623584818568217,-0.00187962508967145,0.17659748393637292,0.9999426247905209,999.0,8.63248364949711,0.6319482835984017,10.091415959209257,-0.2768287432017609,0.599,0.9999999999984808,-196.43976278202092,1.2666484667464484,255,2026-10-07 23:47:11.385243,55.3,0.44029843598260976,0.09881845076362412,0.16043833041227387
0942,cdot_cos,Q,P-Q,256,51,55390,-0.0012257084084444825,-0.0007842976077024926,-0.04746155659412665,0.06757037200709383,999.0,8.654765593594979,0.6320263445774181,10.112433119148067,-0.06462124771379904,0.089,0.9999999999984434,2718.4836542126836,1.271615676375867,256,2026-10-07 23:47:11.474244,55.3,0.037483079999483596,0.6633971878632462,0.25035892244797364
0942,cdot_cos,R,Q-R,257,51,55438,0.0838582504112934,0.0939356009123849,0.08508395881973788,0.991032522432813,999.0,8.750568348936767,0.6331704428016527,10.150506019494234,-0.2793762990413199,0.048,0.9999999999984399,-187.70683039141994,1.2765828064332043,257,2026-10-07 23:47:11.522244,55.3,0.46361788209333393,1.1763334458486836,1.9958907362872536
0942,cdot_cos,S,R-S,258,51,55471,-0.03405210836534351,-0.06790510710456743,-0.11791035877663691,0.001470850060070076,999.0,8.767693604396452,0.6331721397142334,10.17026216493079,-0.05026396280291088,0.033,0.9999999999984052,135017.17109523658,1.2815499076753751,258,2026-10-07 23:47:11.555244,55.3,0.01048108672820365,0.568300580607269,0.5189471351419837
0942,cdot_cos,T,S-T,259,51,55741,-0.09032224277703982,0.04121543680528906,-0.05627013441169631,0.04262564459564807,999.0,8.788076187256847,0.6332213152790754,10.19074430206725,-0.05994917225461062,0.27,0.9999999999983723,-196.9516666011554,1.2865174839950042,259,2026-10-07 23:47:11.825243,55.3,0.8508180188405767,0.21735469704411342,0.07549104763108998
0942,cdot_cos,P,T-P,260,52,56300,0.041822351456370054,-0.00021755274134028466,0.13214459423340988,0.9993300223894677,979.0,8.885065140800274,0.6343734071037445,10.228975695307142,-0.2867893410313786,0.559,0.9999999999983696,-196.8941745089943,1.291485648209471,260,2026-10-07 23:47:12.384243,55.3,0.4534073029776227,0.1078723023676503,0.1735043891653434
0942,cdot_cos,Q,P-Q,261,52,56408,-0.0019775614101940567,-0.0016311107476477899,-0.04379991286656411,0.08150027719024644,979.0,8.90867742130388,0.6344672982703454,10.250145219974234,-0.07028864197442014,0.108,0.9999999999983317,2305.868665761436,1.296452899323661,261,2026-10-07 23:47:12.492243,55.3,0.045951618983804246,0.5545692041354973,0.21863222688524156
0942,cdot_cos,R,Q-R,262,52,56446,0.0726589024978079,0.09625874018174538,0.07463646390800197,0.9841310774051026,979.0,9.004852088893541,0.6356002429898846,10.288101084696486,-0.28783805658528494,0.038,0.9999999999983288,-192.02120885417335,1.3014200085084204,262,2026-10-07 23:47:12.530244,55.3,0.469632453705053,1.4947942258141345,2.5309123049910873
0942,cdot_cos,S,R-S,263,52,56467,-0.030918181658801176,-0.07715678361193015,-0.10357708415660907,0.0032436317786062843,979.0,9.022281782465754,0.6356039746258121,10.307776670008138,-0.052495395115980864,0.021,0.9999999999982923,63066.887028277306,1.3063870835857125,263,2026-10-07 23:47:12.551244,55.3,0.011298214390850941,0.8245079320184446,0.8299854082006148
0942,cdot_cos,T,S-T,264,52,56759,-0.16018029576731746,0.04122400403324176,-0.1292621141085163,0.0007856643570789415,979.0,9.039481422038316,0.6356048784908577,10.327369268903771,-0.05190196592116139,0.292,0.9999999999982564,656.5462374240939,1.3113547211771652,264,2026-10-07 23:47:12.843244,55.3,0.9886314603948837,0.19719643626721864,0.0589028752484992
0942,cdot_cos,P,T-P,265,53,57279,0.04237337437670916,-0.0006011292216577427,0.20255367014402662,0.999986342634932,998.0,9.13744450124581,0.6367545322461667,10.3656253986576,-0.2970977267248758,0.52,0.9999999999982537,-213.2779192616976,1.3163228396570519,265,2026-10-07 23:47:13.363244,55.3,0.43810205684707376,0.11668307775103927,0.1883905369374883
0942,cdot_cos,Q,P-Q,266,53,57368,-0.002784059887698676,-0.0017767720083480471,-0.04515743426440784,0.07605427400034344,998.0,9.160831822899397,0.6368419057933682,10.386590204039976,-0.07139412360968603,0.089,0.9999999999982147,2583.2029297700024,1.3212900548578694,266,2026-10-07 23:47:13.452243,55.3,0.04236744245727742,0.6807911103852349,0.26277889498412277
0942,cdot_cos,R,Q-R,267,53,57420,0.08663263995018027,0.10231278897916005,0.08941669983787894,0.9929296055543425,998.0,9.258625318894381,0.6379817840431511,10.424721333463422,-0.3001025609089093,0.052,0.9999999999982124,-200.64286457153025,1.3262571932026967,267,2026-10-07 23:47:13.504243,55.3,0.46668492936713163,1.1079535150364186,1.8806441537497094
0942,cdot_cos,S,R-S,268,53,57450,-0.03252719761671965,-0.06851546955334564,-0.1191598375668999,0.001372786384996156,998.0,9.276058988463184,0.6379833589243263,10.444250819417132,-0.05383397264481085,0.03,0.9999999999981746,156372.80585648477,1.3312242856252692,268,2026-10-07 23:47:13.534244,55.3,0.010310480553194902,0.5832403114937712,0.5811223189600886
0942,cdot_cos,T,S-T,269,53,57718,-0.13565509524444191,0.05460556547290822,-0.10312789762772226,0.0033249414297446865,998.0,9.293619737584008,0.6379871733348302,10.463780758919267,-0.0543285196264918,0.268,0.9999999999981368,-129.65227029848208,1.3361918891143951,269,2026-10-07 23:47:13.802243,55.3,0.9909384077816709,0.217221179103236,0.06552518328665528
0942,cdot_cos,P,T-P,270,54,58277,0.0315091216976468,-0.0015011491231897841,0.16716421694208872,0.9999033368075781,1019.0,9.392489540462519,0.6391334832015325,10.502048098422422,-0.3073724245389884,0.559,0.9999999999981352,-220.74651214549633,1.341160126003977,270,2026-10-07 23:47:14.361243,55.3,0.43900320869446285,0.11293266844037896,0.17686905702774752
0942,cdot_cos,Q,P-Q,271,54,58366,-0.0041110765594756914,-0.0025449621551021074,-0.035620198257122496,0.12241069660177724,1019.0,9.419878460900351,0.6392737088024488,10.523787233931737,-0.08570919235285404,0.089,0.9999999999980959,1580.761506726774,1.3461273439744266,271,2026-10-07 23:47:14.450243,55.3,0.0753037968675599,0.7080141717129276,0.30774067907677316
0942,cdot_cos,R,Q-R,272,54,58414,0.08330070377813249,0.08985952100227215,0.08741178033760819,0.992107131390433,1019.0,9.51851606302742,0.640409323226617,10.561914983696239,-0.3103100998182905,0.048,0.999999999998094,-197.7791957247705,1.3510944736334645,272,2026-10-07 23:47:14.498244,55.3,0.48490851812738806,1.2105770345285742,2.0549500443139226
0942,cdot_cos,S,R-S,273,54,58432,-0.03864562808095277,-0.09539656838060656,-0.12194633185908527,0.0011769724976246464,1019.0,9.536093856215095,0.6404106695164371,10.581334695814562,-0.055638358653636553,0.018,0.9999999999980546,189165.6145416074,1.356061537970396,273,2026-10-07 23:47:14.516243,55.3,0.010282939422274203,1.0640392253192923,0.976544065981935
0942,cdot_cos,T,S-T,274,54,58717,-0.09617505917786949,0.04973517443648114,-0.057529431096916724,0.03987256451666313,1019.0,9.556821475138914,0.6404562767764597,10.601451615482073,-0.06573661438752078,0.285,0.9999999999980176,-221.41772447826455,1.3610291956546716,274,2026-10-07 23:47:14.801243,55.3,0.8576004942049482,0.21134190542698894,0.07272848745199892
0942,cdot_cos,P,T-P,275,55,59296,0.03506772648782534,-0.0008814723032184839,0.13124278566569483,0.9992957875753858,999.0,9.656558742308478,0.6415984664364861,10.639720989140772,-0.31786198103668534,0.579,0.9999999999980157,-220.73861765070492,1.365997515881818,275,2026-10-07 23:47:15.380243,55.3,0.4523987366299515,0.108814203568223,0.1722578016745492
0942,cdot_cos,Q,P-Q,276,55,59385,-0.003539623738097988,-0.002261100266033698,-0.038607350225923334,0.10574253821224043,999.0,9.682828322870916,0.6417192358990061,10.661055263699454,-0.08425754096608767,0.089,0.9999999999979744,1934.3005690021084,1.3709647366100566,276,2026-10-07 23:47:15.469243,55.3,0.06250524290763307,0.7042297598468191,0.2951638265442497
0942,cdot_cos,R,Q-R,277,55,59438,0.07412968236387318,0.08933790191082853,0.07766930610197118,0.9865483774255208,999.0,9.781911639561212,0.6428451133010362,10.699089656076676,-0.31941568334578374,0.053,0.9999999999979715,-208.8665621635905,1.3759318773210754,277,2026-10-07 23:47:15.522244,55.3,0.47892392573268433,1.1036591395026778,1.8694965413263316
0942,cdot_cos,S,R-S,278,55,59468,-0.029791987941273596,-0.11076656393641628,-0.10392167030514678,0.0031826024208216506,999.0,9.7998161916582,0.6428487428351798,10.71844520996162,-0.05806574324884973,0.03,0.9999999999979304,72006.46963470533,1.3808989665545424,278,2026-10-07 23:47:15.552243,55.3,0.011098651942737537,0.6996833637837282,0.5968184032329423
0942,cdot_cos,T,S-T,279,55,59735,-0.07446865766498813,0.03028808632124372,-0.044676669723714535,0.07794367683529584,999.0,9.823892641388236,0.6429376269971827,10.73919031806275,-0.0782403678591596,0.267,0.9999999999978936,-226.97659690650576,1.3858666005765274,279,2026-10-07 23:47:15.819244,55.3,0.7727077153462262,0.2332920489814878,0.09017396902634989
0942,cdot_cos,P,T-P,280,56,60295,0.03403990410608692,-0.0015309668061629755,0.10850856177107504,0.997528667640768,999.0,9.924394145814315,0.6440743024670734,10.777439377850046,-0.3282021686708448,0.56,0.9999999999978919,-219.90603952746335,1.3908349175217494,280,2026-10-07 23:47:16.379244,55.3,0.4669144495994845,0.11400069068826195,0.17946697218942692
0942,cdot_cos,Q,P-Q,281,56,60383,-0.0030861867430761513,-0.0019548421271481987,-0.037126090849163074,0.11374225755214565,999.0,9.951573414959089,0.6442038080032465,10.79883907271545,-0.08931718034815729,0.088,0.9999999999978493,1844.5928674695815,1.395802138947773,281,2026-10-07 23:47:16.467244,55.3,0.06893651311139974,0.7238262904657556,0.3088553311906172
0942,cdot_cos,R,Q-R,282,56,60434,0.07881960483033058,0.0912070555648882,0.08190579157340673,0.9893278715958882,999.0,10.051787572936288,0.6453293529460395,10.836938151451754,-0.330965591254056,0.051,0.9999999999978473,-214.69459078750535,1.4007692752247112,282,2026-10-07 23:47:16.518244,55.3,0.481845612574445,1.1587105195988223,1.964983489748994
0942,cdot_cos,S,R-S,283,56,60467,-0.03345310428379437,-0.06982921976310885,-0.11227270911412496,0.0020078501977648074,999.0,10.069761887958169,0.6453316356199741,10.856173975538713,-0.059712288478163275,0.033,0.9999999999978044,118831.38396225919,1.4057363700864398,283,2026-10-07 23:47:16.551244,55.3,0.010644932080113682,0.5433033681865452,0.5446762127842782
0942,cdot_cos,T,S-T,284,56,60734,-0.15367189520676464,0.07133546253418387,-0.12021879092297028,0.0012948055072877441,999.0,10.0876455952366,0.645333107647986,10.87536236778434,-0.059517045485894544,0.267,0.9999999999977626,132.63537832608705,1.4107040207138937,284,2026-10-07 23:47:16.818244,55.3,0.9967249197664046,0.22375000320934485,0.06698017707277455
0942,cdot_cos,P,T-P,285,57,61294,0.043679654303935576,-0.0008809080098425726,0.19735154951070022,0.9999817903502393,1018.0,10.18924438967196,0.6464691353868496,10.913670866400826,-0.33963242334447813,0.56,0.9999999999977615,-246.57441739829284,1.415672376184571,285,2026-10-07 23:47:17.378243,55.3,0.4383400003052764,0.11199689118535082,0.18142641863457026
0942,cdot_cos,Q,P-Q,286,57,61382,-0.002783986410838245,-0.0017176505727301233,-0.046463640714773824,0.0711313394815029,1018.0,10.213082113364193,0.6465498812298908,10.93416695961073,-0.08017132318198036,0.088,0.9999999999977152,3213.3059782428163,1.4206396002888653,286,2026-10-07 23:47:17.466244,55.3,0.039307772105815916,0.7117966138930898,0.2708832237753816
0942,cdot_cos,R,Q-R,287,57,61433,0.08806834210749524,0.09788561390972549,0.09085232851833348,0.9934656964678126,1018.0,10.314520593717143,0.6476767536235685,10.972356397842798,-0.34275568932704825,0.051,0.9999999999977133,-233.0204978117245,1.4256067364520064,287,2026-10-07 23:47:17.517244,55.3,0.4648233858374141,1.171472928103923,1.9889898108421613
0942,cdot_cos,S,R-S,288,57,61465,-0.03412925867035962,-0.06643871025628065,-0.12219760077785485,0.0011607502131641123,1018.0,10.332572352030793,0.6476780692862177,10.991477704338742,-0.061351026360524176,0.032,0.999999999997669,213888.15979730888,1.4305738274189292,288,2026-10-07 23:47:17.549243,55.3,0.010185436869988846,0.6096663827886151,0.5641174473015598
0942,cdot_cos,T,S-T,289,57,61733,-0.0935534517284099,0.052226019459159695,-0.05942419305805028,0.036049120345869566,1018.0,10.353539242215614,0.6477189283668365,11.011238176308405,-0.07138932008477716,0.268,0.999999999997627,-245.68085165469327,1.4355414967714146,289,2026-10-07 23:47:17.817244,55.3,0.8688251503553451,0.23017775746547564,0.07823466486873676
0942,cdot_cos,P,T-P,290,58,62312,0.03298790346250165,-0.0018752679414809409,0.12654135519091153,0.9990868865940079,1059.0,10.455947630032288,0.6488504596055007,11.049541802001905,-0.3502496476470419,0.579,0.9999999999976255,-246.4450984945632,1.4405099380075177,290,2026-10-07 23:47:18.396243,55.3,0.4510505337664388,0.11268496957386691,0.17687113612551555
0942,cdot_cos,Q,P-Q,291,58,62401,-0.003247910722085566,-0.0019235935983361757,-0.03623581418458721,0.11880028093629927,1059.0,10.484028436982152,0.6489848977672441,11.070870253438471,-0.09662521983050269,0.089,0.9999999999975798,1886.5508463334058,1.4454771672722975,291,2026-10-07 23:47:18.485244,55.3,0.07245233374295142,0.7320665508977837,0.3155146848299367
0942,cdot_cos,R,Q-R,292,58,62449,0.08471357367426438,0.08646257816729276,0.08796148439634995,0.9923416438422272,1059.0,10.586255476092093,0.6501069380620397,11.109049499998667,-0.3534275230745193,0.048,0.9999999999975778,-228.87083862777422,1.450444295760408,292,2026-10-07 23:47:18.533243,55.3,0.4835477176426225,1.2544830411686154,2.129729981457107
0942,cdot_cos,S,R-S,293,58,62468,-0.038814062773851785,-0.08296430348124469,-0.12352763644811617,0.0010785287809573995,1059.0,10.60445880893434,0.6501081566532919,11.128076439990581,-0.06329369934315185,0.019,0.9999999999975319,238089.53428667056,1.4554113522866519,293,2026-10-07 23:47:18.552243,55.3,0.010214683891002902,1.0656474498890471,0.9580701495918924
0942,cdot_cos,T,S-T,294,58,62751,-0.0922742999256837,0.061556993374151714,-0.053460237151831916,0.049437197109797944,1059.0,10.626750079187877,0.6501640118772749,11.148007834889349,-0.07764998656748964,0.283,0.9999999999974886,-257.026759550892,1.4603790766940823,294,2026-10-07 23:47:18.835244,55.3,0.8312001932778841,0.2219456201242435,0.07876773941179446
0942,cdot_cos,P,T-P,295,59,63371,0.045440380339197284,0.0010935214305196797,0.13771468026488098,0.9995075484075057,1039.0,10.730080029924661,0.6512923921324927,11.186331738661565,-0.361530130508036,0.62,0.9999999999974875,-251.58198455516037,1.4653476642472942,295,2026-10-07 23:47:19.455244,55.3,0.45602005410260466,0.10278446281640799,0.1666612108657806
0942,cdot_cos,Q,P-Q,296,59,63460,-0.0014436777402551352,-0.000886632805230256,-0.046884058079452416,0.06961046670099216,1039.0,10.754202813080223,0.651370914933945,11.206627179805592,-0.0848954949606983,0.089,0.9999999999974369,3522.984794615645,1.4703148959445818,296,2026-10-07 23:47:19.544243,55.3,0.038444816863646564,0.7131878627872452,0.27104250736586444
0942,cdot_cos,R,Q-R,297,59,63520,0.08017035471090767,0.09774159284619979,0.0816140324511628,0.9891561702473189,1039.0,10.85702746950079,0.6524858244646865,11.244755348139735,-0.3634665065268923,0.06,0.9999999999974343,-249.85974546377403,1.4752820546690575,297,2026-10-07 23:47:19.604243,55.3,0.46466977551373867,1.0109586206742331,1.7137442736761286
0942,cdot_cos,S,R-S,298,59,63540,-0.02702075937533389,-0.052949683691082564,-0.10719111408624156,0.002657605493106037,1039.0,10.875517847561131,0.652488817692546,11.263721683433943,-0.06572684375390876,0.02,0.9999999999973862,99471.09834353767,1.4802491106311495,298,2026-10-07 23:47:19.624243,55.3,0.010781158216315402,0.918098712813098,0.9245189030170131
0942,cdot_cos,T,S-T,299,59,63811,-0.2250328559216702,0.048275074890135924,-0.1980120965463363,1.755649667460637e-05,1039.0,10.893751418013315,0.6524888374661688,11.282605020949076,-0.06492350524367593,0.271,0.9999999999973387,40626.774178816246,1.485216820963141,299,2026-10-07 23:47:19.895243,55.3,0.9877026226123746,0.22595911749509304,0.06728254779403563
0942,cdot_cos,P,T-P,300,60,64410,0.04133199056457282,0.00030759650871658013,0.26636484648624303,0.9999995992693822,1019.0,10.997987689243471,0.6536142674703985,11.32094974996555,-0.3726702047086603,0.599,0.9999999999973374,-273.4481027770523,1.4901853963132758,300,2026-10-07 23:47:20.494244,55.3,0.4378896624747907,0.10810283749217348,0.1740171472957542
0942,cdot_cos,Q,P-Q,301,60,64500,-0.002665130328465801,-0.0016599752936573094,-0.043997120893038616,0.08068762269539106,1019.0,11.023258617328938,0.6537050010887989,11.341377104603128,-0.0908731278756593,0.09,0.9999999999972857,3105.762580628784,1.4951526330701972,301,2026-10-07 23:47:20.584243,55.3,0.04500441971924314,0.7165642556410785,0.28078808983852277
0942,cdot_cos,R,Q-R,302,60,64556,0.07956232621311625,0.0972877340029346,0.08222745654158205,0.9895140567298033,1019.0,11.126969255258865,0.6548168036857897,11.37952206234993,-0.37455445357477535,0.056,0.9999999999972827,-255.15440103031298,1.5001197813444427,302,2026-10-07 23:47:20.640243,55.3,0.46889172513434024,1.092149392884553,1.8519756773201264
0942,cdot_cos,S,R-S,303,60,64586,-0.029860098844223266,-0.0818205760158685,-0.10942242505733951,0.0023498290459001243,1019.0,11.145579349332008,0.6548194419086495,11.398392686172278,-0.0675819800550432,0.03,0.9999999999972328,116355.77804759041,1.505086861279202,303,2026-10-07 23:47:20.670244,55.3,0.010649698150533467,0.6377111835843035,0.6203364691047616
0942,cdot_cos,T,S-T,304,60,64850,-0.10586264378693151,0.0497328119243195,-0.07600254494270825,0.014731288079069748,1019.0,11.165231926273924,0.6548359809460381,11.41747476126526,-0.0714887033401373,0.264,0.9999999999971838,-236.2122530649735,1.5100545694487084,304,2026-10-07 23:47:20.934243,55.3,0.9468182551374466,0.2361967093470272,0.07444157932543695
0942,cdot_cos,P,T-P,305,61,65429,0.033959107816470754,-0.0016750045761625405,0.13982175160340227,0.9995616887445177,1041.0,11.270291211867239,0.6559573267416239,11.455821770146219,-0.38370948331482246,0.579,0.9999999999971823,-278.4339863793664,1.5150231332133282,305,2026-10-07 23:47:21.513243,55.3,0.44321932171041206,0.11572401431835512,0.18144954333905874
0942,cdot_cos,Q,P-Q,306,61,65518,-0.001954725803839036,-0.0011785205790272796,-0.03591383362030979,0.12067697232120342,1041.0,11.299240334854579,0.6560925894971293,11.476953196298139,-0.106343001592004,0.089,0.9999999999971311,2050.5754203094034,1.5199903700784838,306,2026-10-07 23:47:21.602243,55.3,0.07366517905643584,0.7520319604186698,0.3252710448015753
0942,cdot_cos,R,Q-R,307,61,65565,0.08896059367128924,0.09180115466603792,0.09091531947512828,0.9934882705027991,1041.0,11.404152900821762,0.6572051936143509,11.515185501731008,-0.3870770888824184,0.047,0.9999999999971291,-252.32163259602987,1.524957493852192,307,2026-10-07 23:47:21.649244,55.3,0.48419546135931846,1.314570118485834,2.2321822546209154
0942,cdot_cos,S,R-S,308,61,65598,-0.03370157823464038,-0.05613538182046053,-0.12266217190592962,0.0011313427361697977,1041.0,11.422809925992247,0.657206459619768,11.533946838241729,-0.06921010713064975,0.033,0.9999999999970771,251078.6900826063,1.5299245802812413,308,2026-10-07 23:47:21.682244,55.3,0.010124645424811504,0.5817963793689787,0.5653643991056181
0942,cdot_cos,T,S-T,309,61,65868,-0.11077757885366761,0.06985099296073033,-0.07707600061902722,0.01389405380913728,1041.0,11.442551461860115,0.6572220072875444,11.552928882311916,-0.07335479978202489,0.27,0.9999999999970257,-266.5797025617643,1.5348923220175932,309,2026-10-07 23:47:21.952243,55.3,0.9450645975322277,0.23268352608953302,0.07311679951061925
0942,cdot_cos,P,T-P,310,62,66470,0.02435309151464379,-0.00048089100357469035,0.1351306703683114,0.999431946121172,997.0,11.548459030080595,0.6583395009391785,11.591283585257917,-0.3950696741539257,0.602,0.9999999999970245,-287.8896662200048,1.539860992188902,310,2026-10-07 23:47:22.554244,55.3,0.4429384766436387,0.11060392699680362,0.17592619305727683
0942,cdot_cos,Q,P-Q,311,62,66557,-0.015644292584308432,-0.008200014632402435,-0.03999738409895222,0.09869091581186532,997.0,11.575718589964266,0.6584497550221192,11.61190918170524,-0.10226021154271059,0.087,0.9999999999969702,2655.769789211267,1.5448282260381603,311,2026-10-07 23:47:22.641243,55.3,0.05707573178110928,0.7651532433808065,0.31332827452495293
0942,cdot_cos,R,Q-R,312,62,66610,0.07937848980333143,0.09404615597851389,0.09502278238763986,0.9948045335791933,997.0,11.681595694428855,0.6595601583374681,11.650176504048652,-0.39884149883085246,0.053,0.999999999996967,-267.0933013154495,1.5497953660003223,312,2026-10-07 23:47:22.694243,55.3,0.47539611704454116,1.1768890838229482,1.997681216313008
0942,cdot_cos,S,R-S,313,62,66640,-0.03382466606081729,-0.09764860276892877,-0.11320315586414872,0.0019073438020212844,997.0,11.700468832849499,0.6595622856419445,11.668869357446441,-0.07147678286886268,0.03,0.9999999999969137,153887.09965315775,1.5547624419745563,313,2026-10-07 23:47:22.724244,55.3,0.01025474559158446,0.6448537295790757,0.6291046140214362
0942,cdot_cos,T,S-T,314,62,66907,-0.1121511377594119,0.04550748643015811,-0.07832647169859461,0.012977780033581838,997.0,11.7202869182036,0.6595767598881845,11.687751313243185,-0.0751781519856284,0.267,0.9999999999968606,-255.7210272223407,1.5597301923279547,314,2026-10-07 23:47:22.991244,55.3,0.9519577378006843,0.23705669163557105,0.0742250387794062
0942,cdot_cos,P,T-P,315,63,67467,0.02841057938763322,0.0017948799487132916,0.14056171714704513,0.9995792550770752,979.0,11.827057106182894,0.6606907041614898,11.726118377441898,-0.40656483000889665,0.56,0.999999999996859,-297.4894579241318,1.564698786181744,315,2026-10-07 23:47:23.551244,55.3,0.4425997629764772,0.12400300589509661,0.19066104996302408
0942,cdot_cos,Q,P-Q,316,63,67576,-0.0027846312017096044,-0.002372025192285449,-0.031195210589342822,0.15121604019109894,979.0,11.859170284806108,0.660859066874363,11.747710040396525,-0.12297376524153109,0.109,0.9999999999968061,1684.4054121465977,1.5696660863985987,316,2026-10-07 23:47:23.660243,55.3,0.09964810145232685,0.6309870323101558,0.2946163176441718
0942,cdot_cos,R,Q-R,317,63,67621,0.06783646268982568,0.0993026556185583,0.07062109389153529,0.9802633992493883,979.0,11.964612279226507,0.6619494961544217,11.78569808453976,-0.40548488077725153,0.045,0.9999999999968029,-259.08247394138766,1.574633203074082,317,2026-10-07 23:47:23.705244,55.3,0.4982147019906654,1.3873176024257738,2.343155431564428
0942,cdot_cos,S,R-S,318,63,67656,-0.023620652947171177,-0.10438631004554592,-0.09145711563699686,0.006320738077395514,979.0,11.984028869024428,0.6619565216758712,11.804398147976984,-0.07505858616842781,0.035,0.9999999999967473,47032.28037726353,1.5796002918251504,318,2026-10-07 23:47:23.740243,55.3,0.012249806731566358,0.5687190695839307,0.5547597085120108
0942,cdot_cos,T,S-T,319,63,67926,-0.09630088979615188,0.02390382956059029,-0.0726802368489807,0.017649909479578032,979.0,12.004422614097383,0.6619761392308043,11.82329431011545,-0.0789647702952917,0.27,0.9999999999966926,-199.11676761800408,1.5845680686902779,319,2026-10-07 23:47:24.010243,55.3,0.9517361571267992,0.23707055937626928,0.07553238915909175
0942,cdot_cos,P,T-P,320,64,68446,0.04659972405215388,0.0010088199680674769,0.14290061384830577,0.9996302833774611,979.0,12.112046971087613,0.6630862992818867,11.861671018024742,-0.41827018349128314,0.52,0.999999999996691,-305.6364826541825,1.5895365867908517,320,2026-10-07 23:47:24.530244,55.3,0.44431962734182445,0.12708370950271775,0.2069699172889051
0942,cdot_cos,Q,P-Q,321,64,68536,-0.0021376707541660403,-0.0014038258164317556,-0.048737394806319924,0.06325849555497062,979.0,12.136589671980209,0.6631564919680399,11.88144864709362,-0.09589550286750338,0.09,0.9999999999966316,4592.710413159799,1.594503835429196,321,2026-10-07 23:47:24.620243,55.3,0.03467525803205794,0.7324850471345457,0.27269667658439783
0942,cdot_cos,R,Q-R,322,64,68592,0.08491708019375334,0.11105812911961452,0.08705475094791938,0.9919510149833844,979.0,12.243894279571832,0.6642562347030411,11.919675374080255,-0.4208701688956259,0.056,0.9999999999966297,-295.5006254510866,1.5994709846700916,322,2026-10-07 23:47:24.676243,55.3,0.4620189174361779,1.129247450372303,1.9161537069932573
0942,cdot_cos,S,R-S,323,64,68613,-0.02793799438360996,-0.06372021964014786,-0.1128550745773633,0.0019443416190217532,979.0,12.263065386421907,0.6642583885855731,11.93820855203052,-0.07558286980024004,0.021,0.9999999999965717,160309.25269415785,1.6044380301460064,323,2026-10-07 23:47:24.697243,55.3,0.010375298386463044,0.9092361766265795,0.9129098500035954
0942,cdot_cos,T,S-T,324,64,68886,-0.16386359074318965,0.06003461667372372,-0.13592559635957968,0.0005436367553557619,979.0,12.282082198990148,0.66425899080862,11.956685265742571,-0.075091321585785,0.273,0.9999999999965149,816.222854497417,1.609405833760876,324,2026-10-07 23:47:24.970243,55.3,0.9934753727838522,0.23352046933781287,0.06965865409612028
0942,cdot_cos,P,T-P,325,65,69425,0.033495196604901536,-0.000220868766274217,0.1973587873480912,0.9999817976371044,1040.0,12.390567562680353,0.6653658321733068,11.995076853286786,-0.4298941771518341,0.539,0.9999999999965147,-320.55438736377783,1.614374447068769,325,2026-10-07 23:47:25.509243,55.3,0.43809213696243504,0.12778366533853375,0.20127154673507422
0942,cdot_cos,Q,P-Q,326,65,69514,-0.0036032895062934243,-0.0021888652924168654,-0.03709848611119496,0.11389623131185056,1040.0,12.419832990225087,0.6654917844513663,12.015791430329243,-0.1165956570339012,0.089,0.999999999996456,2487.4382976229854,1.6193416958191815,326,2026-10-07 23:47:25.598243,55.3,0.06808139044196841,0.7721555697551704,0.3288250285925211
0942,cdot_cos,R,Q-R,327,65,69567,0.08462963229296674,0.09574254583214889,0.08823292179926016,0.9924548801617016,1040.0,12.528011254096773,0.6665882923217975,12.05403476233088,-0.43266859718451883,0.053,0.999999999996455,-288.25414634398163,1.6243088363185092,327,2026-10-07 23:47:25.651244,55.3,0.481658600002352,1.2022532226447278,2.041099318333697
0942,cdot_cos,S,R-S,328,65,69588,-0.03516750173179678,-0.06886095885091466,-0.11979713402476352,0.0013253115671879492,1040.0,12.547271831825428,0.6665897553832713,12.072478434872401,-0.07742786199118476,0.021,0.9999999999963949,242806.43128606473,1.6292758794152475,328,2026-10-07 23:47:25.672243,55.3,0.010172960475018625,1.031453363640062,0.9171703680311996
0942,cdot_cos,T,S-T,329,65,69865,-0.08662038168104459,0.048142387485191965,-0.05145287994924781,0.05492247783086399,1040.0,12.571332295369656,0.6666503835578165,12.091967245935674,-0.09688174372704986,0.277,0.9999999999963397,-320.8719688790186,1.6342437141096255,329,2026-10-07 23:47:25.949243,55.3,0.8180757973814884,0.24071188869834528,0.0868608792210376
0942,cdot_cos,P,T-P,330,66,70465,0.0576210787329527,0.003101036045414756,0.1442414604139973,0.9996566966581908,1078.0,12.680626218164312,0.6677529261845617,12.13035910877323,-0.4416841840183966,0.6,0.9999999999963389,-312.733886134831,1.6392125587994817,330,2026-10-07 23:47:26.549243,55.3,0.45810639963479516,0.10997777614159432,0.18215653799109316
0942,cdot_cos,Q,P-Q,331,66,70573,-0.000577519871318006,-0.0004273814972335322,-0.05819859860427071,0.03847978677480286,1078.0,12.703305626739569,0.667795329735829,12.14949677429656,-0.09212640629024786,0.108,0.9999999999962739,8243.59675737569,1.6441798696393557,331,2026-10-07 23:47:26.657243,55.3,0.0224980255606767,0.607648182050905,0.209994523844975
0942,cdot_cos,R,Q-R,332,66,70619,0.07881431225008978,0.09486133773556535,0.07939183212140778,0.9877556206476651,1078.0,12.811878225487307,0.6688828738833391,12.187651679545711,-0.4425826952951176,0.046,0.999999999996271,-322.2455748644553,1.6491469874574562,332,2026-10-07 23:47:26.703244,55.3,0.45300884322097273,1.3921882039860787,2.360273885820395
0942,cdot_cos,S,R-S,333,66,70653,-0.029351781459961743,-0.05788955405958003,-0.10816609371005152,0.002518462654187899,1078.0,12.831386941506288,0.6688856444771051,12.20604332297256,-0.07992385585617677,0.034,0.9999999999962093,130895.71047687714,1.6541140685983575,333,2026-10-07 23:47:26.737243,55.3,0.010699541965744831,0.5889166115438758,0.5737857652641493
0942,cdot_cos,T,S-T,334,66,70924,-0.10607401755180255,0.06391619391901746,-0.07672223609184081,0.014164653808856174,1078.0,12.85192455507229,0.6689012269802781,12.224641728543313,-0.08426845777610689,0.271,0.9999999999961491,-278.81283717325095,1.659081901760982,334,2026-10-07 23:47:27.008243,55.3,0.9497498165237203,0.24102825094555136,0.07578455190406817
0942,cdot_cos,P,T-P,335,67,71543,0.03351463564610649,0.0003924426900308136,0.13958865319790903,0.9995560047153402,1079.0,12.962024253518777,0.6699998995961545,12.263037693725437,-0.4532868729213842,0.619,0.9999999999961479,-335.8765930931338,1.664050850598905,335,2026-10-07 23:47:27.627244,55.3,0.44304025528479746,0.11327534425551578,0.17786704110902482
0942,cdot_cos,Q,P-Q,336,67,71632,-0.002753590475117852,-0.001606291057243106,-0.036268226121224344,0.1186127706134569,1079.0,12.99215943126062,0.670130151261945,12.283715459378163,-0.12471741558950432,0.089,0.999999999996085,2522.573936676934,1.669018104138146,336,2026-10-07 23:47:27.716243,55.3,0.07175401745267364,0.7822570656791958,0.33859750271732764
0942,cdot_cos,R,Q-R,337,67,71692,0.0725229201859934,0.08356012999508027,0.07527651066111125,0.9846744700838632,1079.0,13.101266011209674,0.6712104376335111,12.321812644366645,-0.4532131376279838,0.06,0.9999999999960821,-304.0820755354503,1.673985266149229,337,2026-10-07 23:47:27.776243,55.3,0.4844141327304674,1.0733667978573003,1.818442999150912
