record_id,input,event,transition,event_index,k,peak,value_cos,value_sin,value_return,x_input,rr,knowledge,decision,decision_norm,entropy,delta_t,cosine_similarity,delta_h_over_delta_d,frobenius_norm,matrix_size,timestamp,scale,P,zdot,zdot_back
0612,cdot_cos,Q,P-Q,1,0,1125,-0.01693715019515242,-0.01883215157314656,-0.03965176041559796,0.017487635187617572,819.0,8.686355900386892e-05,0.5000217158897373,0.5000217158897373,,,1.0,,0.004967141530112327,1,2026-10-07 20:31:17.209243,101.6,,,
0612,cdot_cos,R,Q-R,2,0,1154,0.07982130489765518,0.15106550906223154,0.0967584550928076,0.9999462255877832,819.0,0.007147064797652886,0.501263431806969,0.7088935435830965,-9.210284856031341e-06,,1.0000000000000002,,0.009934283060224654,2,2026-10-07 20:31:17.238244,101.6,,,
0612,cdot_cos,S,R-S,3,0,1185,-0.004558772569950156,-0.016378234076652204,-0.08438007746760534,0.0001891055951949905,819.0,0.008754957896443484,0.5012636666340332,0.8682141385984138,-4.610959610302408e-06,0.031,1.0,19.586010073617786,0.014901424594104486,3,2026-10-07 20:31:17.269243,101.6,0.3688088459251408,0.0512010404572906,0.05186751931582575
0612,cdot_cos,T,S-T,4,0,1414,-0.04220392755274787,0.003381778521513535,-0.03764515498279772,0.02135782804937075,819.0,0.010321529306004903,0.5012901882997212,1.0025803765994672,-5.389273970576557e-06,0.229,1.0,-0.029346360422141584,0.01986856615525928,4,2026-10-07 20:31:17.498244,101.6,0.8655248881726649,0.030285537291813765,0.006840923185857724
0612,cdot_cos,P,T-P,5,1,1834,0.019520108315088637,-8.734968111893222e-05,0.06172403586783651,0.9981135344712432,898.0,0.02262573397609419,0.5025296123776701,1.1236903739833601,-7.310487329597958e-05,0.42,0.9999999999999999,-0.05463472957331966,0.024835707804717888,5,2026-10-07 20:31:17.918243,101.6,0.39602408990155935,0.0176118138635005,0.029295725404974493
0612,cdot_cos,Q,P-Q,6,1,1963,-0.01570879869509772,-0.019891812039478478,-0.035228907010186356,0.027139328841037518,898.0,0.025115452951345322,0.5025633127253654,1.2310236796214082,-2.143466394273023e-05,0.129,0.9999999999999999,1.533224814786133,0.029802849389433433,6,2026-10-07 20:31:18.047244,101.6,0.08976222369973051,0.06833389212142499,0.01930014709497001
0612,cdot_cos,R,Q-R,7,1,1993,0.05183770832016464,0.11782368224756681,0.06754650701526235,0.9989550336817525,898.0,0.04025587814342184,0.5038037495589202,1.3329394309176197,-0.00017847805182730848,0.03,1.0,-0.1266032929984269,0.03476999091868509,7,2026-10-07 20:31:18.077244,101.6,0.4148231135311676,0.2996520956555307,0.504680839735884
0612,cdot_cos,S,R-S,8,1,2043,-0.0019475987067443534,-0.017716708934378444,-0.05378530702690899,0.00421623662456455,898.0,0.04309457869067716,0.5038089849165036,1.4249869986318973,-4.266648969751175e-05,0.05,0.9999999999999999,25.94121986222867,0.0397371324960311,8,2026-10-07 20:31:18.127244,101.6,0.041457076426010764,0.05924824024831861,0.05677401094510648
0612,cdot_cos,T,S-T,9,1,2273,-0.035609489826657445,0.002644335864072372,-0.03366189111991309,0.03167475188958408,898.0,0.0461807021682537,0.5038483158540996,1.511544947566888,-4.9682489337008085e-05,0.23,1.0000000000000002,-0.17838373729003074,0.04470427434398771,9,2026-10-07 20:31:18.357243,101.6,0.8683010876783485,0.04616001567634676,0.013417928163376247
0612,cdot_cos,P,T-P,10,2,2732,0.019481521364965504,-4.5077358985724165e-05,0.05509101119162295,0.9963056399685305,899.0,0.06432818590179668,0.5050854142603477,1.5972203220045385,-0.0003616206717642467,0.459,0.9999999999999999,-0.25215308729828223,0.049671416752034944,10,2026-10-07 20:31:18.816243,101.6,0.4220583985245864,0.023896511807947256,0.039537001598132844
0612,cdot_cos,Q,P-Q,11,2,2861,-0.011943216743957144,-0.01505862428605699,-0.03142473810892265,0.03943933801641462,899.0,0.06811770000794928,0.5051343843385748,1.6753412215921297,-9.050253724799358e-05,0.129,0.9999999999999999,5.5364039497502535,0.05463855850447544,11,2026-10-07 20:31:18.945244,101.6,0.05000178846586898,0.09310748744816828,0.02937607834226828
0612,cdot_cos,R,Q-R,12,2,2893,0.07205479574670796,0.14200732145012096,0.0839980124906651,0.9998034108770364,899.0,0.0883499176634241,0.5063757604778717,1.754137089781958,-0.0005707972709056342,0.032,1.0,-0.3869050793337191,0.059605700006329705,12,2026-10-07 20:31:18.977243,101.6,0.4310869830133158,0.3726496275503776,0.6322568017335878
0612,cdot_cos,S,R-S,13,2,2941,-0.0018978320785312734,-0.0174475054405433,-0.07395262782523923,0.0005453229016324253,899.0,0.09196727617117345,0.5063764375417587,1.8257662102895846,-0.00011760955514189935,0.048,1.0000000000000002,669.3426196475662,0.06457284161845597,13,2026-10-07 20:31:19.025243,101.6,0.021209121050760654,0.0812215705723019,0.07536163557811161
0612,cdot_cos,T,S-T,14,2,3171,-0.03367440140823679,0.002529088080512973,-0.03177656932970552,0.03810721192718875,899.0,0.09614718843836507,0.5064237507671661,1.8948641679474196,-0.00014177583683621262,0.23,0.9999999999999999,-0.5107722309400905,0.06953998403805928,14,2026-10-07 20:31:19.255244,101.6,0.8432817416961582,0.05807829020433468,0.01817353159648532
0612,cdot_cos,P,T-P,15,3,3631,0.020733040548823977,-0.00015229121267413504,0.054407441957060765,0.9960409966464574,858.0,0.1186832896651674,0.5076603739376694,1.9661601738769412,-0.0008728855010936301,0.46,1.0000000000000002,-0.5912145928495289,0.07450712784119394,15,2026-10-07 20:31:19.715244,101.6,0.4327574074354763,0.02944331387934161,0.048991524406092016
0612,cdot_cos,Q,P-Q,16,3,3760,-0.012453127632908427,-0.01706722275397542,-0.0331861681817324,0.03319124117636155,858.0,0.12323503720735936,0.5077015806091235,2.030806322612512,-0.00019853104874342905,0.129,0.9999999999999998,16.36517652489514,0.07947426989224278,16,2026-10-07 20:31:19.844243,101.6,0.033482902457317276,0.11169669634686497,0.03528486466815467
0612,cdot_cos,R,Q-R,17,3,3789,0.0664128758483717,0.15565173832472032,0.07886600348128013,0.9996689089350018,858.0,0.14750103732265857,0.5089426103128198,2.0984241399042842,-0.0011843769048701437,0.029,1.0000000000000002,-0.7943773248862903,0.08444141132194641,17,2026-10-07 20:31:19.873244,101.6,0.4350148503642236,0.492501936627499,0.83675862466549
0612,cdot_cos,S,R-S,18,3,3840,-0.0007764749523212743,-0.01767480294081554,-0.06718935080069298,0.0010835396227605787,858.0,0.1518001495317543,0.5089439554060124,2.159266332879592,-0.00023197051405807951,0.051,0.9999999999999998,708.0597805767635,0.0894085530035003,18,2026-10-07 20:31:19.924243,101.6,0.016478121043195505,0.08912371980212482,0.08429631782540657
0612,cdot_cos,T,S-T,19,3,4070,-0.03527041674993817,-0.0023783208739442266,-0.034493941797616896,0.029182069341876768,858.0,0.1565916567424753,0.5089801816308277,2.21859317621887,-0.00026639091753514023,0.23,1.0,-0.9501515449816027,0.09437569627427966,19,2026-10-07 20:31:20.154243,101.6,0.8787892914563717,0.06739229733921531,0.02083264004661303
0612,cdot_cos,P,T-P,20,4,4489,0.021007099012028994,-0.00010327225712110973,0.05627751576196717,0.9967238199686456,838.0,0.18280060630779335,0.5102174419093011,2.281761767143509,-0.0016034473796925526,0.419,1.0000000000000002,-1.0806590055628191,0.09934284167814135,20,2026-10-07 20:31:20.573244,101.6,0.43436780101851513,0.037285940175312476,0.06255119227999535
0612,cdot_cos,Q,P-Q,21,4,4599,-0.015914399328844243,-0.01714085669841308,-0.036921498340873236,0.02294990268010082,838.0,0.18783727460938715,0.51024592882909,2.338240592400582,-0.00033650792848715955,0.11,1.0000000000000002,44.47442758259621,0.10430998395211691,21,2026-10-07 20:31:20.683244,101.6,0.02316850034951138,0.1488512757362665,0.04578789365085272
0612,cdot_cos,R,Q-R,22,4,4648,0.06303064661371674,0.13106260680984894,0.07894504594256098,0.999671556314973,838.0,0.21554788696977198,0.5114867194042522,2.3990853701839616,-0.0020147507302447666,0.049,1.0,-1.3525592757974603,0.1092771255832329,22,2026-10-07 20:31:20.732243,101.6,0.4347527132434374,0.3325919498189516,0.5655227012323434
0612,cdot_cos,S,R-S,23,4,4698,-8.554684554008512e-05,-0.020121091620387128,-0.06311619345925683,0.0016380567384696692,838.0,0.2204312856916444,0.5114887524454128,2.4530138833661805,-0.0003837453508121226,0.05,1.0,802.2490695254403,0.1142442673268032,23,2026-10-07 20:31:20.782243,101.6,0.014260976662869653,0.10172859343263035,0.09766797443744868
0612,cdot_cos,T,S-T,24,4,4888,-0.03718903879616938,0.0056978381484709285,-0.03710349195062929,0.02253892221147585,838.0,0.22572074631303501,0.5115167261365726,2.5059099484600043,-0.0004253518674518641,0.19,0.9999999999999998,-1.4873445339068136,0.11921141114453941,24,2026-10-07 20:31:20.972243,101.6,0.9068151063939015,0.09135843709700428,0.027839266428371586
0612,cdot_cos,P,T-P,25,5,5327,0.021537553937890745,-2.7895014388382582e-05,0.058726592734060126,0.9974436668942247,839.0,0.25514749178850604,0.5127546068051134,2.5637730347475913,-0.0025501761578538636,0.439,0.9999999999999998,-1.7165017149082018,0.12417855927672326,25,2026-10-07 20:31:21.411244,101.6,0.4346531734078158,0.03998626173248473,0.06703131087806612
0612,cdot_cos,Q,P-Q,26,5,5457,-0.01459976301484092,-0.021295181052453045,-0.03613731695273167,0.024805987028326055,839.0,0.2608286841141566,0.5127853904241964,2.614702713120183,-0.0005282866431118676,0.13,1.0,65.68069560941095,0.1291457023618961,26,2026-10-07 20:31:21.541243,101.6,0.02176921545715597,0.13998712874265026,0.04370147942808126
0612,cdot_cos,R,Q-R,27,5,5486,0.04455525697352028,0.13274038673508431,0.0591550199883612,0.9975522859857016,839.0,0.2915441452615951,0.5140232453464196,2.670943132801975,-0.0030572584004583724,0.029,0.9999999999999999,-2.043027589052424,0.1341128436364476,27,2026-10-07 20:31:21.570244,101.6,0.43727084701157143,0.6266427452846147,1.0591538326702932
0612,cdot_cos,S,R-S,28,5,5537,-4.5392625422089424e-05,-0.01889707117035758,-0.04460064959894237,0.010650656137210236,839.0,0.29717396334066426,0.5140364607622061,2.7200252811701633,-0.0005972331564758968,0.051,1.0000000000000004,186.148153318093,0.13907998549189304,28,2026-10-07 20:31:21.621243,101.6,0.016260171574505735,0.1128712584367412,0.1103885897856696
0612,cdot_cos,T,S-T,29,5,5746,-0.03681957714190494,0.00011203214414101682,-0.03677418451648285,0.023287919829158933,839.0,0.3030570136221427,0.5140653565232632,2.7683266677336773,-0.0006362996843128947,0.209,0.9999999999999998,-1.3519812736460708,0.1440471308611875,29,2026-10-07 20:31:21.830244,101.6,0.9404503448963876,0.09139807801897151,0.02814856594008829
0612,cdot_cos,P,T-P,30,6,6166,0.022476710365595558,-0.0001293956647523446,0.059296287507500496,0.9975870824068691,838.0,0.33537835995259435,0.5153030764836438,2.8224311908714625,-0.0037177820511539827,0.42,0.9999999999999999,-2.489644237371418,0.14901428164453176,30,2026-10-07 20:31:22.250243,101.6,0.43655118248452035,0.04594295810849546,0.07695558650107534
0612,cdot_cos,Q,P-Q,31,6,6295,-0.013075900206203375,-0.018786872003235634,-0.03555261057179893,0.02628435976238793,838.0,0.3416490984332789,0.515335685377543,2.869267665918519,-0.0007648931584178288,0.129,1.0,90.55470884299484,0.15398142541959148,31,2026-10-07 20:31:22.379244,101.6,0.02105694909483328,0.15435803388331884,0.04861037581926004
0612,cdot_cos,R,Q-R,32,6,6326,0.06370734587654998,0.15437741552430034,0.07678324608275336,0.9995909147428533,838.0,0.3752027326944906,0.5165756980872367,2.9221934350536376,-0.004332872988944578,0.031,0.9999999999999998,-2.8773735967659824,0.15894856664814944,32,2026-10-07 20:31:22.410244,101.6,0.438907128547323,0.6357199964917938,1.0823752987487651
0612,cdot_cos,S,R-S,33,6,6375,-0.00010308459641487696,-0.01898153093158309,-0.06381043047296486,0.0015266681914016438,838.0,0.3810637382157701,0.5165775917977362,2.9675123400421612,-0.000798461280688261,0.049,1.0000000000000002,1866.394947457032,0.1639157085506525,33,2026-10-07 20:31:22.459244,101.6,0.011955921304755524,0.12312529492829041,0.11961235757713252
0612,cdot_cos,T,S-T,34,6,6605,-0.04040461840464012,-0.005911136615638415,-0.040301533808225244,0.016388746600351056,838.0,0.3872690115974631,0.5165979207047546,3.0122576268251247,-0.0008588473423753844,0.23,1.0,-2.9704529433093185,0.16888285608568943,34,2026-10-07 20:31:22.689243,101.6,0.9321042744951011,0.08954247447725187,0.02697944948562159
0612,cdot_cos,P,T-P,35,7,7004,0.02128962564014105,-4.752597143178592e-05,0.061694244044781174,0.9981078265948401,819.0,0.42225327647530597,0.5178358861949517,3.063558419889081,-0.00510073937948621,0.399,0.9999999999999998,-3.426502653507416,0.1738500096674578,35,2026-10-07 20:31:23.088243,101.6,0.435342164945311,0.05198193201474492,0.08767986184923031
0612,cdot_cos,Q,P-Q,36,7,7113,-0.018626450877398833,-0.020672225648460843,-0.03991607651753988,0.017032155105058903,819.0,0.4287505933452295,0.5178570095310964,3.107142060523334,-0.0009958543898706989,0.109,1.0,194.32938819417757,0.17881715355367897,36,2026-10-07 20:31:23.197243,101.6,0.016212494266589026,0.19552144836549584,0.0596084116506748
0612,cdot_cos,R,Q-R,37,7,7143,0.07789255936409778,0.14820891003700648,0.09651901024149662,0.9999449014159874,819.0,0.46487695221898406,0.5190970301630975,3.157543968190906,-0.005813414447317375,0.03,1.0000000000000002,-3.8850644361232693,0.18378429465824067,37,2026-10-07 20:31:23.227243,101.6,0.4366177578773254,0.7062573117466868,1.2042119624584846
0612,cdot_cos,S,R-S,38,7,7193,-0.0023203635381195535,-0.019449056525134477,-0.08021292290221733,0.0002887579492857798,819.0,0.47112603205003073,0.5190973882154034,3.1999312123663217,-0.0010532799786836832,0.05,1.0000000000000002,13294.522587874766,0.1887514367203259,38,2026-10-07 20:31:23.277244,101.6,0.010896170073823283,0.13242364535436257,0.12498159662093333
0612,cdot_cos,T,S-T,39,7,7423,-0.037637895580447354,-0.0027032054893242554,-0.0353175320423278,0.02690259969209254,819.0,0.4781193167544203,0.5191307466494023,3.2419704773558125,-0.0011953855213065105,0.23,1.0000000000000002,-4.259958444920307,0.19371858624528818,39,2026-10-07 20:31:23.507244,101.6,0.8879157465810433,0.0965848213182679,0.03040558567125909
0612,cdot_cos,P,T-P,40,8,7823,0.022420327425540676,-0.00014046919457482172,0.06005822300598803,0.9977664243144988,838.0,0.515555049856434,0.520367824746029,3.291095098677155,-0.006697206915502644,0.4,0.9999999999999999,-4.447432550296032,0.1986857437399221,40,2026-10-07 20:31:23.907244,101.6,0.4397671741048906,0.056113865475050095,0.09358933275503412
0612,cdot_cos,Q,P-Q,41,8,7952,-0.010813739028090345,-0.015726014530650558,-0.03323406645363102,0.03303543262287815,838.0,0.5230104091344604,0.5204087794532478,3.332242074239393,-0.0013940001931150479,0.129,1.0,129.48955278961589,0.2036528893250965,41,2026-10-07 20:31:24.036243,101.6,0.02227459570320279,0.17777512528276365,0.05779348277539868
0612,cdot_cos,R,Q-R,42,8,8002,0.04419771147009058,0.1458938927602265,0.055011450498180924,0.996275767747434,838.0,0.561421032179387,0.5216437516912137,3.3806378971275426,-0.007497620538051046,0.05,1.0000000000000002,-4.942313808599703,0.20862003129465628,42,2026-10-07 20:31:24.086244,101.6,0.44304925921280375,0.4552493439832239,0.7682124608985319
0612,cdot_cos,S,R-S,43,8,8052,0.0026245105301145465,-0.018180991298289425,-0.04157320093997603,0.014431046272455537,838.0,0.5685353435327828,0.5216616383466415,3.420764129512055,-0.001446982240525057,0.05,0.9999999999999998,338.27667346491415,0.2135871734566242,43,2026-10-07 20:31:24.136243,101.6,0.015274710749882228,0.14319716240914437,0.14228622706791594
0612,cdot_cos,T,S-T,44,8,8262,-0.03609195868949801,-0.005285648449017124,-0.038716469219612554,0.019197458184381774,838.0,0.5757407484203014,0.5216854326766294,3.4604696832432933,-0.0014840757705299754,0.21,0.9999999999999996,-1.55892307216863,0.21855432417634607,44,2026-10-07 20:31:24.346244,101.6,0.9753154088952768,0.11177798405514129,0.034311451845326864
0612,cdot_cos,P,T-P,45,9,8661,0.02265486722077375,-7.966639853487493e-05,0.058746825910271756,0.997448903134444,839.0,0.6154820968359421,0.5229215849247091,3.5078646387367383,-0.008519350615769705,0.399,1.0000000000000004,-5.69126890006356,0.22352148605003974,45,2026-10-07 20:31:24.745243,101.6,0.43788479617678333,0.05950676730157249,0.09960237698155563
0612,cdot_cos,Q,P-Q,46,9,8790,-0.012251098721473347,-0.017651194939456532,-0.0349059659422471,0.028019197875202472,839.0,0.6232271487269563,0.5229563055216595,3.5468622385585884,-0.0017264810578814453,0.129,0.9999999999999996,195.64380092853708,0.22848863273446138,46,2026-10-07 20:31:24.874244,101.6,0.019555136681731845,0.18808716884691104,0.06003916194584615
0612,cdot_cos,R,Q-R,47,9,8820,0.06845034816524309,0.16802195085078112,0.08070144688671643,0.9997252205606662,839.0,0.6640085863984452,0.5241949890124984,3.5936997961275186,-0.009444675466316275,0.03,0.9999999999999998,-6.230965751555911,0.23345577355320038,47,2026-10-07 20:31:24.904243,101.6,0.4416663285555287,0.7973456608899329,1.3593812557162965
0612,cdot_cos,S,R-S,48,9,8870,-7.476115261802305e-05,-0.01496630331080963,-0.06852510931786111,0.0009461610921924628,839.0,0.6710678883803523,0.5241961611901769,3.6317375454955214,-0.0016956422329818016,0.05,0.9999999999999997,6610.800884217686,0.23842291587347192,48,2026-10-07 20:31:24.954243,101.6,0.010358275971934672,0.1432487928351578,0.14118603963814147
0612,cdot_cos,T,S-T,49,9,9080,-0.04640049732338475,0.00022180347844523232,-0.046325736170766726,0.008953696486921355,839.0,0.678333465681961,0.524207253710002,3.6694507843541344,-0.0017639109472819409,0.21,1.0,-6.15448206326868,0.24339006888019188,49,2026-10-07 20:31:25.164243,101.6,0.9620363539465997,0.11723845821474942,0.034597987150517644
0612,cdot_cos,P,T-P,50,10,9500,0.02154845335346561,-0.00014664339837271414,0.06794895067685036,0.9989968568270021,878.0,0.720308040830547,0.5254447344372762,3.7154553578633656,-0.01055968845920326,0.42,1.0,-7.107809695990501,0.2483572371406886,50,2026-10-07 20:31:25.584243,101.6,0.4347613364006208,0.05957801086593204,0.09993946463949059
0612,cdot_cos,Q,P-Q,51,10,9629,-0.014321689657249961,-0.018936094009371063,-0.035870143010715574,0.025471178655357155,878.0,0.7283789948093439,0.5254762821602703,3.7526512711108087,-0.002103076307272543,0.129,0.9999999999999996,268.05776611894254,0.25332438502949306,51,2026-10-07 20:31:25.713243,101.6,0.017933807281787353,0.19748039222387923,0.06256553471935557
0612,cdot_cos,R,Q-R,52,10,9660,0.05121740066644168,0.1294417678130627,0.06553909032369165,0.9987189221384063,878.0,0.7712579820243078,0.5267130981228667,3.7981821772058133,-0.011563087351523683,0.031,1.0,-7.648681234993242,0.2582915257482671,52,2026-10-07 20:31:25.744244,101.6,0.4412597571638071,0.8133709746002693,1.3831931359665797
0612,cdot_cos,S,R-S,53,10,9709,-0.001527380853376455,-0.019450421534877096,-0.05274478151981814,0.00468417728530408,878.0,0.7788079952345606,0.5267188982590744,3.834571471868219,-0.0021044591636900085,0.049,0.9999999999999996,1630.7596665312342,0.26325866812236126,53,2026-10-07 20:31:25.793243,101.6,0.011169539970072228,0.16197398359605727,0.15408190225005564
0612,cdot_cos,T,S-T,54,10,9939,-0.03655484922957297,0.0002376663901903729,-0.03502746837619652,0.027684953935343988,878.0,0.7871314324167215,0.5267531787322247,3.8708295368030514,-0.0023437812689904394,0.23,0.9999999999999997,-6.98129527707491,0.2682258252734064,54,2026-10-07 20:31:26.023244,101.6,0.9029307632539567,0.11373948948137586,0.03618885731374298
0612,cdot_cos,P,T-P,55,11,10378,0.022043011342301546,-0.00010733097858540534,0.05859786057187452,0.9974100996890887,858.0,0.8311281603959935,0.5279880358798563,3.9156640860767062,-0.01279941737350453,0.439,0.9999999999999996,-8.467081495675403,0.2731930009160507,55,2026-10-07 20:31:26.462244,101.6,0.44180628891995877,0.05966433838896961,0.10022033708262416
0612,cdot_cos,Q,P-Q,56,11,10507,-0.014716650698473839,-0.0202137693461519,-0.03675966204077538,0.02332150419299597,858.0,0.8395167215222368,0.5280169053473156,3.9513167241967206,-0.00251936117467681,0.129,0.9999999999999994,356.0874897788624,0.2781601500965957,56,2026-10-07 20:31:26.591244,101.6,0.016900335992684503,0.20672077807093114,0.0650276056297931
0612,cdot_cos,R,Q-R,57,11,10536,0.06037502225990866,0.1418988575605895,0.0750916729583825,0.9995142419262614,858.0,0.8844621211382937,0.5292540158551267,3.995780210342581,-0.013925554803983733,0.029,0.9999999999999999,-9.220028087457639,0.2831272903980639,57,2026-10-07 20:31:26.620243,101.6,0.44083544889822057,0.9094059172390807,1.5498413660709283
0612,cdot_cos,S,R-S,58,11,10587,-0.0008013930683769782,-0.019026194850666162,-0.06117641532828563,0.001994184721416579,858.0,0.8922622647221035,0.5292564837268345,4.030697311360704,-0.002490678877972411,0.051,0.9999999999999999,4633.496907276871,0.2880944330545485,58,2026-10-07 20:31:26.671244,101.6,0.010142021596718983,0.1651965082680892,0.15294399183940707
0612,cdot_cos,T,S-T,59,11,10797,-0.03303129977845354,0.002549864047308464,-0.03222990671007656,0.03645436936945268,858.0,0.9013121649816388,0.5293015970019089,4.065642727867933,-0.0029171157959861846,0.21,0.9999999999999998,-9.452581691543466,0.2930615913048679,59,2026-10-07 20:31:26.881243,101.6,0.8639983388664442,0.13098987098404297,0.04309476314064446
0612,cdot_cos,P,T-P,60,12,11236,0.024099407045336235,-7.105269993383783e-05,0.057130706823789776,0.9969950348320844,819.0,0.9472780105354015,0.5305352174425914,4.1095081415614745,-0.01526643644231621,0.439,0.999999999999999,-10.010632313694892,0.29802877361208774,60,2026-10-07 20:31:27.320243,101.6,0.44533892184234114,0.062035766267839,0.10470579852793327
0612,cdot_cos,Q,P-Q,61,12,11346,-0.016133318560263735,-0.017957253276488255,-0.04023272560559997,0.016501823049699358,819.0,0.9557795677648014,0.5305556326882431,4.143771979553265,-0.002906765630146048,0.11,0.9999999999999993,605.4137688564641,0.3029959222278421,61,2026-10-07 20:31:27.430244,101.6,0.014235227794712244,0.2518820373545843,0.07728688390363579
0612,cdot_cos,R,Q-R,62,12,11375,0.08587021882328133,0.1621002835686216,0.10200353738354506,0.9999684390815147,819.0,1.00269205875341,0.5317925512006788,4.187338757512548,-0.016501783678788403,0.029,0.9999999999999998,-10.99103773770165,0.307963062312738,62,2026-10-07 20:31:27.459244,101.6,0.43873862607243025,0.947786539447866,1.6176721030554693
0612,cdot_cos,S,R-S,63,12,11425,-0.0019664890979743145,-0.016412304703053764,-0.08783670792125564,0.00013310894328419798,819.0,1.0107511870527777,0.5317927158251261,4.220973847411638,-0.002914422799203669,0.05,0.9999999999999998,82535.49884437148,0.3129302050468203,63,2026-10-07 20:31:27.509243,101.6,0.009446505324155089,0.16458113666045548,0.16118256598735226
0612,cdot_cos,T,S-T,64,12,11655,-0.04691374084705157,-0.0033854818983017833,-0.04494725174907725,0.010285913340857421,819.0,1.0191501724194556,0.5318054370591022,4.254443518823452,-0.0030621428121936104,0.23,0.9999999999999992,-11.612082072176264,0.31789736861060786,64,2026-10-07 20:31:27.739244,101.6,0.9529043641929819,0.12248158520057677,0.03651732768120841
0612,cdot_cos,P,T-P,65,13,12055,0.02236843143365561,-0.0001481926758535322,0.06928217228070718,0.9991238254792814,838.0,1.067092716245043,0.5330409165850626,4.297513284104772,-0.017958491817373235,0.4,0.9999999999999994,-12.057139509131328,0.3228645533545322,65,2026-10-07 20:31:28.139244,101.6,0.4362727089572326,0.07151044437244264,0.11985635956396845
0612,cdot_cos,Q,P-Q,66,13,12184,-0.01292010817389595,-0.018516551950930077,-0.03528853960755156,0.026979820490238296,838.0,1.0763585279174097,0.5330742732821888,4.330715896297922,-0.003565965592370358,0.129,0.9999999999999994,431.4733611225952,0.3278317056183792,66,2026-10-07 20:31:28.268243,101.6,0.01766657097922747,0.22484465327887898,0.07182799746020721
0612,cdot_cos,R,Q-R,67,13,12215,0.05591531480060756,0.12175937581657062,0.06883542297450351,0.9990831770849027,838.0,1.1251026367909938,0.5343092863132458,4.3735100264255236,-0.019260519939818914,0.031,0.9999999999999991,-12.708007083954593,0.3327988457241539,67,2026-10-07 20:31:28.299244,101.6,0.44270297751422016,0.9233333882666314,1.572390608825292
0612,cdot_cos,S,R-S,68,13,12264,-0.00013102511441982312,-0.02210870386318331,-0.05604633991502738,0.0033537788607347525,838.0,1.1336051979899409,0.5343134313750412,4.406061458254702,-0.00344702292473879,0.049,0.9999999999999994,3815.0208117020397,0.3377659885018309,68,2026-10-07 20:31:28.348243,101.6,0.010177447456421783,0.18118783002112426,0.17352165712136938
0612,cdot_cos,T,S-T,69,13,12474,-0.037031080438325266,0.00015765475934034702,-0.036900055323905445,0.022998804914786536,838.0,1.142859044133064,0.5343418563378269,4.438576843881506,-0.003781064171099336,0.21,0.9999999999999991,-11.751686321566932,0.34273315302084906,69,2026-10-07 20:31:28.558244,101.6,0.9154442353761433,0.14036298920819074,0.044065934014871806
0612,cdot_cos,P,T-P,70,14,12893,0.021237553463281895,-5.485329788021673e-05,0.058268633901607164,0.9973222397360596,839.0,1.192557653457381,0.5355742619576703,4.480935793281968,-0.020825197949436536,0.419,0.9999999999999992,-13.829970834199134,0.34770034751580103,70,2026-10-07 20:31:28.977243,101.6,0.4411201374472671,0.07088619025829207,0.11861243275493323
0612,cdot_cos,Q,P-Q,71,14,13023,-0.01330166917632732,-0.01949429656136763,-0.034539222639609214,0.02905201596264663,839.0,1.2022616715695127,0.5356101555194661,4.51313142587349,-0.004169657782158834,0.13,0.9999999999999989,464.02584012248354,0.3526675016631594,71,2026-10-07 20:31:29.107244,101.6,0.0184173496159361,0.23136617473499266,0.07464629317024407
0612,cdot_cos,R,Q-R,72,14,13072,0.043313746101306574,0.13899216532066394,0.05661541527763389,0.9968340343906964,839.0,1.252712858888479,0.5368415110160377,4.555251311035038,-0.022214607460651428,0.049,0.9999999999999991,-14.654541055555542,0.3576346442501519,72,2026-10-07 20:31:29.156243,101.6,0.44383558814830554,0.6102020323777247,1.0296160677340074
0612,cdot_cos,S,R-S,73,14,13122,0.002774788663107926,-0.018893361782632442,-0.04053895743819865,0.016004394729725376,839.0,1.2620614707425297,0.5368612770817646,4.586944799135382,-0.004216614174171827,0.05,0.9999999999999989,910.5501082107533,0.36260178732195814,73,2026-10-07 20:31:29.206244,101.6,0.014004844982835501,0.1888836205910449,0.1869722370810134
0612,cdot_cos,T,S-T,74,14,13312,-0.03473572478110092,0.0001462842932169575,-0.037510513444208846,0.021645634097497115,839.0,1.2716012209475835,0.536888010118779,4.6184853324373,-0.004335109512317396,0.19,0.9999999999999989,-4.432543077008938,0.36756895223330316,74,2026-10-07 20:31:29.396243,101.6,0.9730363155429292,0.16053414496475646,0.05020921160554642
0612,cdot_cos,P,T-P,75,15,13732,0.023416228096994524,-0.00015817974411153486,0.05815195287809545,0.9972903930648204,818.0,1.3230644458291372,0.538119462606561,4.660251288483196,-0.023940394768378455,0.42,0.9999999999999991,-15.92045608789388,0.37253615492223435,75,2026-10-07 20:31:29.816243,101.6,0.4409072613841354,0.07268235618079555,0.12253148781322296
0612,cdot_cos,Q,P-Q,76,15,13841,-0.015701385506327246,-0.017468805859194195,-0.03911761360332177,0.01844491265692199,818.0,1.3326544001394518,0.5381422340197082,4.691415275576566,-0.004566132446883322,0.109,0.9999999999999987,850.815107355957,0.37750330746942123,76,2026-10-07 20:31:29.925244,101.6,0.014363923116927616,0.2839763647444449,0.08798123220472127
0612,cdot_cos,R,Q-R,77,15,13872,0.06847870679295322,0.14374975538696316,0.08418009229928046,0.9998070135121633,818.0,1.3849712933434262,0.5393763185041818,4.733008032378653,-0.02548087076428341,0.031,0.9999999999999987,-16.947574157632612,0.3824704471676524,77,2026-10-07 20:31:29.956243,101.6,0.4400787662552274,0.9889585788843656,1.6876417162572377
0612,cdot_cos,S,R-S,78,15,13921,-0.0019451573079572017,-0.01600532064645559,-0.07042386410091042,0.0007802897857984111,818.0,1.3939698320302825,0.5393772814470633,4.763651212718278,-0.004481608152778196,0.049,0.9999999999999987,21807.38132446409,0.3874375903456748,78,2026-10-07 20:31:30.005243,101.6,0.009226703640117169,0.1871832452387976,0.18364364667053662
0612,cdot_cos,T,S-T,79,15,14151,-0.04724767883518913,-0.003414716047079317,-0.04530252152723192,0.00992487897855842,818.0,1.4033152513768283,0.5393895295524771,4.794199052008005,-0.004685073238221496,0.23,0.9999999999999984,-16.611963938060615,0.3924047657153229,79,2026-10-07 20:31:30.235244,101.6,0.9575011392034632,0.13605794661710408,0.0406322580284603
0612,cdot_cos,P,T-P,80,16,14550,0.02175371352050514,-6.352429802917885e-05,0.06900139235569427,0.9990984935642178,859.0,1.4565564874741503,0.5406222522121317,4.835472474186386,-0.027277408035652866,0.399,0.9999999999999984,-18.327183832056825,0.3973719729996772,80,2026-10-07 20:31:30.634243,101.6,0.43681589765114254,0.07958454488433105,0.13343668194817546
0612,cdot_cos,Q,P-Q,81,16,14679,-0.01365384663036219,-0.018779012796801837,-0.03540756015086733,0.02666417892033733,859.0,1.4668237181945245,0.5406551446667297,4.865896357544881,-0.0053770288066563076,0.129,0.9999999999999986,665.8177231414822,0.40233913087669715,81,2026-10-07 20:31:30.763244,101.6,0.017027053568769778,0.24903694161120637,0.07959093581685399
0612,cdot_cos,R,Q-R,82,16,14711,0.06147006897682534,0.1388960903513535,0.07512391560718754,0.9995158298256331,859.0,1.5208080184098416,0.5418878715464331,4.907003435792767,-0.028881537123513386,0.032,0.9999999999999984,-19.067085097156024,0.4073062705111803,82,2026-10-07 20:31:30.795244,101.6,0.4431598667105579,0.989215430312676,1.6870093817286589
0612,cdot_cos,S,R-S,83,16,14759,-0.0008489309763497518,-0.020784464101818806,-0.06231899995317509,0.001776006489003051,859.0,1.5301335057345358,0.541890061486064,4.936853469804242,-0.0050948436724307725,0.048,0.9999999999999982,10861.803273432459,0.41227341366837844,83,2026-10-07 20:31:30.843244,101.6,0.009383730546405839,0.21257943506792823,0.19428098593112877
0612,cdot_cos,T,S-T,84,16,14970,-0.03173608426631804,0.002462166493827864,-0.03088715328996829,0.04156135522049792,859.0,1.5412156441763627,0.5419413090678875,4.96697419997046,-0.006094957584821509,0.211,0.9999999999999983,-19.51533861314652,0.41724058969663136,84,2026-10-07 20:31:31.054244,101.6,0.8486667075842432,0.15598649605885068,0.052521983136620515
0612,cdot_cos,P,T-P,85,17,15409,0.021830991320025188,-0.0001368103057330332,0.05356707558634323,0.9956896430226253,838.0,1.5959598070713708,0.5431687848896973,5.007768821294878,-0.030740557880572606,0.439,0.999999999999998,-20.07827759850538,0.42220781398698204,85,2026-10-07 20:31:31.493243,101.6,0.44855269352859106,0.07450667282004075,0.12470196559227346
0612,cdot_cos,Q,P-Q,86,17,15538,-0.01290794975957753,-0.018498382998451218,-0.034738941079602716,0.02848507367053476,838.0,1.6066325029123585,0.5432038933515965,5.03746574091878,-0.006117945446868578,0.129,0.999999999999998,701.3298533112326,0.4271749739459821,86,2026-10-07 20:31:31.622243,101.6,0.017869609416455025,0.2568524671831151,0.08273407628672662
0612,cdot_cos,R,Q-R,87,17,15569,0.05450640074236909,0.12117852628394417,0.06741435050194662,0.9989409231526776,838.0,1.6622277436046144,0.5444348354523636,5.07815015069848,-0.032514338592050204,0.031,0.9999999999999981,-21.4440574651978,0.4321421130688733,87,2026-10-07 20:31:31.653243,101.6,0.4440409286357228,1.0532482602796414,1.793394861040515
0612,cdot_cos,S,R-S,88,17,15618,-0.0001209159500489911,-0.019462613811594937,-0.05462731669241808,0.0038718812754802772,838.0,1.6719338950496963,0.544439605520787,5.107296282942813,-0.005789938196778452,0.049,0.9999999999999977,5602.519298123037,0.4371092565875315,88,2026-10-07 20:31:31.702244,101.6,0.009895625753778557,0.20624247048857033,0.19808472336901634
0612,cdot_cos,T,S-T,89,17,15848,-0.037449477784790054,-0.005465746714194208,-0.037328561834741064,0.022040601429651682,838.0,1.6824395057124943,0.5444667588780246,5.136489201806841,-0.006304761963745176,0.23,0.9999999999999978,-18.959856877373756,0.442076441154148,89,2026-10-07 20:31:31.932243,101.6,0.9215886202857522,0.14552346712721764,0.04567656809912214
0612,cdot_cos,P,T-P,90,18,16247,0.021927306801738475,-5.6135784163370926e-05,0.05937678458652853,0.9976066889461072,839.0,1.7388746899282164,0.5456955010350314,5.176922152297073,-0.034529068267330806,0.399,0.9999999999999978,-22.970080535318264,0.4470436661637821,90,2026-10-07 20:31:32.331244,101.6,0.4415751220295188,0.08467947996853949,0.14144156445043113
0612,cdot_cos,Q,P-Q,91,18,16377,-0.011704684037469585,-0.01687153238637724,-0.03363199083920806,0.03176806043768572,839.0,1.7500137307273889,0.5457346203745305,5.205976563094679,-0.006949772100765636,0.13,0.9999999999999979,705.0041365657389,0.45201082860636976,91,2026-10-07 20:31:32.461244,101.6,0.018904142884112553,0.2628515532426242,0.08568492922440381
0612,cdot_cos,R,Q-R,92,18,16408,0.06083772596593007,0.13373306402553306,0.07254241000339966,0.9993707225690768,839.0,1.8072160937712987,0.5469649594714424,5.246303675558102,-0.036371543867845066,0.031,0.9999999999999976,-23.913546957034622,0.45697796744533326,92,2026-10-07 20:31:32.492243,101.6,0.44533751742673394,1.082190932125847,1.8452375175454774
0612,cdot_cos,S,R-S,93,18,16457,-6.67500358305807e-05,-0.018972872318128484,-0.060904476001760646,0.0020499358037278327,839.0,1.8171095685191914,0.5469674825913304,5.27476346596332,-0.006409313144119011,0.049,0.9999999999999976,11875.072154115243,0.461945111176061,93,2026-10-07 20:31:32.541243,101.6,0.009327428794219259,0.2083843997063986,0.20190764791617766
0612,cdot_cos,T,S-T,94,18,16667,-0.04042348427721608,0.00015833496204649422,-0.0403567342413855,0.01629858368226892,839.0,1.8276377649425257,0.5469875432705511,5.303241078456582,-0.006858885126914838,0.21,0.9999999999999971,-22.410606233743195,0.4669122957002353,94,2026-10-07 20:31:32.751244,101.6,0.9365560327042038,0.16316812560522442,0.05013426868254456
0612,cdot_cos,P,T-P,95,19,17086,0.01973281101114028,-9.333250738967657e-05,0.06015629528835636,0.9977885204984636,898.0,1.8856401812733856,0.5482153516799635,5.343342380834275,-0.038479617724125684,0.419,0.9999999999999972,-25.753800311845108,0.4718795355581718,95,2026-10-07 20:31:33.170244,101.6,0.43966035362365596,0.08256304649585659,0.1384305879018136
0612,cdot_cos,Q,P-Q,96,19,17215,-0.01575885528305048,-0.01999191254238693,-0.03549166629419076,0.026443298789772456,898.0,1.8968255979060535,0.5482478830293711,5.371710364792063,-0.007558730752045927,0.129,0.999999999999997,950.4950619982748,0.47684670011066926,96,2026-10-07 20:31:33.299244,101.6,0.016726663596258226,0.2709452238690775,0.08670865606719319
0612,cdot_cos,R,Q-R,97,19,17245,0.050900961276515146,0.1180932005903693,0.06665981655956563,0.9988566370231869,898.0,1.9555440490316076,0.549476402416574,5.411715056361903,-0.04039370365220585,0.03,0.9999999999999973,-26.72727288001392,0.4818138383706767,97,2026-10-07 20:31:33.329243,101.6,0.4435815834603836,1.1499717860887992,1.9572817041851358
0612,cdot_cos,S,R-S,98,19,17295,-0.0020499345362986507,-0.01872119333778958,-0.05295089581281379,0.004587550213690307,898.0,1.9658239050713815,0.5494820433823583,5.439594809980021,-0.007198380207697946,0.05,0.999999999999997,5884.687961968654,0.48678098259889174,98,2026-10-07 20:31:33.379244,101.6,0.009936911272532581,0.22344411893206795,0.20559712079547765
0612,cdot_cos,T,S-T,99,19,17525,-0.032905966453714436,0.002419593402775767,-0.030856031917415785,0.04168749036060227,898.0,1.9778884609248144,0.5495333027736219,5.467787429868366,-0.008496064866219061,0.23,0.9999999999999967,-25.316037247647685,0.49174817748229543,99,2026-10-07 20:31:33.609244,101.6,0.858353297876504,0.15544787362514648,0.052454590667099614
0612,cdot_cos,P,T-P,100,20,17984,0.02162499477249105,-4.005155196111182e-05,0.05453096122620549,0.9960901768923943,839.0,2.037329926938949,0.5507577909320897,5.50757801941916,-0.042597531096729896,0.459,0.9999999999999967,-27.849567996788952,0.49671543961419723,100,2026-10-07 20:31:34.068243,101.6,0.4490817671303246,0.0772420242792997,0.12950210460595746
0612,cdot_cos,Q,P-Q,101,20,18094,-0.013979645950678774,-0.015085877878981609,-0.03560464072316982,0.026149404090183112,839.0,2.0487966392132115,0.5507899280310871,5.535370392248365,-0.008362396354683981,0.11,0.9999999999999962,1065.2839182779392,0.501682600899195,101,2026-10-07 20:31:34.178244,101.6,0.016673439027805267,0.32606041709441025,0.10424283885693325
0612,cdot_cos,R,Q-R,102,20,18143,0.06484775568424478,0.13372761227545746,0.07882740163492355,0.9996676082959634,839.0,2.109063218699719,0.5520181793069854,5.575110452647301,-0.04469970969800179,0.049,0.9999999999999962,-29.584592384600985,0.5066497444596993,102,2026-10-07 20:31:34.227243,101.6,0.4435607239353492,0.7209058832046258,1.2299301936021958
0612,cdot_cos,S,R-S,103,20,18194,-5.7942034973928323e-05,-0.018319930658612683,-0.06490569771921871,0.0013661128127156372,839.0,2.119445415767265,0.5520198573640163,5.602389799669181,-0.007831311471819598,0.051,0.9999999999999967,21970.88510557867,0.5116168891005748,103,2026-10-07 20:31:34.278244,101.6,0.009024436954820844,0.2123935597805566,0.2035724915205045
0612,cdot_cos,T,S-T,104,20,18384,-0.03831258450627322,0.005907839500615311,-0.0382546424712993,0.020101162795417512,839.0,2.130727361797336,0.5520445483779001,5.629771975544433,-0.008553504692853443,0.19,0.9999999999999957,-29.249233119080706,0.5165840769689137,104,2026-10-07 20:31:34.468243,101.6,0.9190337486504323,0.19022676936475647,0.059378663316163385
0612,cdot_cos,P,T-P,105,21,18823,0.02178592044273079,-0.00011973050207970334,0.06009850494900401,0.99777552657448,859.0,2.1917315881258723,0.5532698286429582,5.669328825944286,-0.0470129620702146,0.439,0.9999999999999959,-31.38829415124716,0.521551345080244,105,2026-10-07 20:31:34.907244,101.6,0.44128660562419875,0.08338025544331332,0.13896179118117635
0612,cdot_cos,Q,P-Q,106,21,18952,-0.010850392991136147,-0.01484223419874458,-0.032636313433866936,0.035031444449649986,859.0,2.203935226076565,0.5533128360070302,5.696704456296341,-0.009563851889753146,0.129,0.9999999999999958,870.7604148381896,0.526518514590794,106,2026-10-07 20:31:35.036243,101.6,0.01992672987639653,0.2865497068466758,0.09460184457901302
0612,cdot_cos,R,Q-R,107,21,18983,0.06389425340648895,0.12877393438987497,0.0747446463976251,0.999496818381398,859.0,2.2656614124923147,0.5545395585421614,5.7362019446645505,-0.049161371953670874,0.031,0.9999999999999959,-32.27911685806092,0.5314856523188517,107,2026-10-07 20:31:35.067244,101.6,0.4468823005896976,1.1671119324688317,1.9911673037338604
0612,cdot_cos,S,R-S,108,21,19032,-0.0007828517885086655,-0.01852271511655566,-0.06467710519499761,0.0013981672133124006,859.0,2.2762961658896326,0.5545412741070903,5.7629621181724175,-0.008607090851055207,0.049,0.9999999999999956,23639.02433511753,0.5364527965843078,108,2026-10-07 20:31:35.116243,101.6,0.008989220171696085,0.22965882391363565,0.2170357836187326
0612,cdot_cos,T,S-T,109,21,19242,-0.036375457404180085,0.0028945141180325876,-0.03559260561567142,0.026180560647607987,859.0,2.288167977235851,0.5545733976725699,5.7899164026723415,-0.009655761130756934,0.21,0.9999999999999953,-32.64489056700166,0.5414199958875984,109,2026-10-07 20:31:35.326244,101.6,0.8970841067556716,0.17694127935929316,0.05653243498199237
0612,cdot_cos,P,T-P,110,22,19682,0.02301276809021268,-0.00017068206515117245,0.059388225494392766,0.9976094626590691,858.0,2.3506115032205357,0.5557971230363503,5.829249560028073,-0.05158617748046722,0.44,0.9999999999999954,-34.26456424844746,0.5463872767499626,110,2026-10-07 20:31:35.766243,101.6,0.44360413345543864,0.08448217250411692,0.1419171045106471
0612,cdot_cos,Q,P-Q,111,22,19811,-0.013584343915277417,-0.01859627383109098,-0.036597112005490096,0.023700654553031702,858.0,2.362512289039474,0.5558261874578493,5.855992428316459,-0.009988976316290527,0.129,0.9999999999999946,1431.2069196233938,0.5513544489415566,111,2026-10-07 20:31:35.895243,101.6,0.01554042289887461,0.2909556240746814,0.09225415363517957
0612,cdot_cos,R,Q-R,112,22,19840,0.0641025285069755,0.15160844115433314,0.07768687242225292,0.9996267863527291,858.0,2.4256780542318035,0.557051692536755,5.895281157784779,-0.053832711235151785,0.029,0.9999999999999948,-35.77605321555247,0.5563215855326036,112,2026-10-07 20:31:35.924243,101.6,0.4428854518415376,1.2766040308881972,2.178129834218263
0612,cdot_cos,S,R-S,113,22,19891,-0.0007646736074763383,-0.0175717142892155,-0.06486720211445184,0.0013714590098210444,858.0,2.4365553228309893,0.557053373420752,5.921558759588943,-0.0094134409700469,0.051,0.9999999999999947,26426.136690355248,0.5612887307412132,113,2026-10-07 20:31:35.975244,101.6,0.008926712888351227,0.22538234740653548,0.2132797764546237
0612,cdot_cos,T,S-T,114,22,20121,-0.03660938625872891,-0.0024714654825651896,-0.03584471265125257,0.025535391585663755,858.0,2.44866705366727,0.5570846698017754,5.948036788309085,-0.010531179402132182,0.23,0.9999999999999942,-35.71462244308027,0.566255942882904,114,2026-10-07 20:31:36.205244,101.6,0.8993022342978577,0.1651357194921285,0.05265969928817743
0612,cdot_cos,P,T-P,115,23,20540,0.022401028288369828,-4.897242754367353e-05,0.05901041454709874,0.9975161488965661,839.0,2.5125177537973684,0.5583068765619271,5.987174422760753,-0.05634939065897791,0.419,0.9999999999999943,-37.488101645876945,0.5712232285729936,115,2026-10-07 20:31:36.624243,101.6,0.4434770355930095,0.09194191137364764,0.1523883057997573
0612,cdot_cos,Q,P-Q,116,23,20689,-0.008155140369469011,-0.0165330974250022,-0.03055616865783884,0.042921738824152275,839.0,2.525714375398387,0.5583594506873485,6.013715526506469,-0.011826828314964379,0.149,0.999999999999994,846.8531237976329,0.5761904113794308,116,2026-10-07 20:31:36.773243,101.6,0.023178283392060964,0.25966743035893153,0.08856793020817733
0612,cdot_cos,R,Q-R,117,23,20721,0.03983141886188519,0.1366419172745865,0.0479865592313542,0.9924260247807816,839.0,2.58989864804433,0.5595746896657179,6.052725912625693,-0.058371543838704534,0.032,0.9999999999999938,-38.300874438864554,0.5811575486223046,117,2026-10-07 20:31:36.805243,101.6,0.45050455511431975,1.1944060031076273,2.005758520185724
0612,cdot_cos,S,R-S,118,23,20769,0.0027046109335947736,-0.018437747217893773,-0.037126807928290415,0.022486792080258382,839.0,2.602156359597275,0.5596022168303436,6.078836248795639,-0.011314041716203642,0.048,0.9999999999999939,1709.4932501154558,0.5861246928245138,118,2026-10-07 20:31:36.853244,101.6,0.015619855934094486,0.2509857791465296,0.2553689906863536
0612,cdot_cos,T,S-T,119,23,20960,-0.03822352114986559,0.0001562805829792693,-0.04092813208346036,0.01539347736964744,839.0,2.613993282842397,0.5596210605156687,6.104745248663811,-0.010976250450928104,0.191,0.9999999999999933,17.92596614979699,0.591091895403815,119,2026-10-07 20:31:37.044243,101.6,0.969693980728452,0.20185653565300504,0.061973420131528095
0612,cdot_cos,P,T-P,120,24,21379,0.02373345939733881,-0.0001486057605002109,0.0619569805472044,0.9981575763014007,818.0,2.679265556216723,0.5608425703996863,6.143722753952517,-0.061384343545789546,0.419,0.999999999999994,-41.26703660314837,0.5960591940727467,120,2026-10-07 20:31:37.463244,101.6,0.4399086837375974,0.0927488755171023,0.15578108203896435
0612,cdot_cos,Q,P-Q,121,24,21508,-0.01274136699524937,-0.019242597542884855,-0.03647482639258818,0.02398984532264521,818.0,2.6917168405257286,0.560871919313901,6.169591343796977,-0.011881392098350752,0.129,0.9999999999999927,1686.7046966481491,0.6010263720897623,121,2026-10-07 20:31:37.592243,101.6,0.01550757161377908,0.3038329355677387,0.09652158379074156
0612,cdot_cos,R,Q-R,122,24,21539,0.06252380894161741,0.1621766310237071,0.07526517593686678,0.9995227257398205,818.0,2.7576544535931995,0.5620943436631277,6.208535187672723,-0.0637990086878393,0.031,0.9999999999999928,-42.47102622123919,0.6059935086348771,122,2026-10-07 20:31:37.623244,101.6,0.4431848221912316,1.2470724108312075,2.12701977637003
0612,cdot_cos,S,R-S,123,24,21588,0.0006235024872326667,-0.018810450945978642,-0.06190030645438474,0.001853043422750517,818.0,2.7690353299972634,0.562096609254868,6.233953201754042,-0.011167979594310817,0.049,0.9999999999999923,23230.58835215628,0.6109606535895987,123,2026-10-07 20:31:37.672243,101.6,0.008980745424916683,0.24042789417419724,0.2322627837564068
0612,cdot_cos,T,S-T,124,24,21798,-0.03923405045959484,-0.0028741008282003803,-0.03985755294682751,0.017131989714577262,818.0,2.781216387222271,0.5621175552654192,6.259476421932905,-0.012004024942487812,0.21,0.999999999999992,-39.91429996351281,0.6159278698466529,124,2026-10-07 20:31:37.882244,101.6,0.9327229335349834,0.1875623673997269,0.05800503440479713
0612,cdot_cos,P,T-P,125,25,22197,0.020263816418522793,-1.6826527941020475e-05,0.05949786687811763,0.9976358818265761,858.0,2.8478115243051487,0.5633369062332091,6.29829832995032,-0.06651738237511279,0.399,0.9999999999999922,-44.706863628796796,0.6208951727740615,125,2026-10-07 20:31:38.281244,101.6,0.4406362745208586,0.09957139012150282,0.16690510547087192
0612,cdot_cos,Q,P-Q,126,25,22327,-0.015092732001348506,-0.020898908395629627,-0.0353565484198713,0.02679901944586469,858.0,2.86067435653923,0.56336965059032,6.323808909419885,-0.013028950856493067,0.13,0.9999999999999921,1633.5160081937786,0.6258623544039358,126,2026-10-07 20:31:38.411244,101.6,0.016484212764342678,0.30819969209112164,0.09894486333908735
0612,cdot_cos,R,Q-R,127,25,22356,0.056906978813856215,0.1339283481254261,0.07199971081520472,0.999335074640755,858.0,2.9279434442488403,0.564590290461526,6.362609712236765,-0.06905044265216506,0.029,0.9999999999999916,-45.895184253093014,0.6308294896852671,127,2026-10-07 20:31:38.440243,101.6,0.4442745437923347,1.3609199626309065,2.319623714124492
0612,cdot_cos,S,R-S,128,25,22407,-0.0007847879474979019,-0.02113297606443294,-0.05769176676135412,0.0028389344954430247,858.0,2.9396077143718227,0.5645937569760611,6.387649458135945,-0.012136395480291445,0.051,0.9999999999999913,16418.234106846714,0.6357966359459941,128,2026-10-07 20:31:38.491244,101.6,0.009190962144486349,0.2474501070273966,0.22871117888200634
0612,cdot_cos,T,S-T,129,25,22637,-0.032727886772594666,-0.0024195857022046145,-0.031943098825096765,0.037491854222303674,858.0,2.953183355165635,0.5646395362554729,6.413072622609832,-0.014185550538512125,0.23,0.9999999999999908,-44.76162763038664,0.6407638679890436,129,2026-10-07 20:31:38.721244,101.6,0.8654949963155986,0.17703538262304414,0.05902452519048751
0612,cdot_cos,P,T-P,130,26,23055,0.022913784667774644,6.560293031722491e-05,0.055641671440369314,0.9965059507996535,820.0,3.021043990378423,0.5658559095733906,6.451750306353488,-0.0718429164361436,0.418,0.9999999999999907,-47.40104460391763,0.6457311934008511,130,2026-10-07 20:31:39.139244,101.6,0.4481856747669066,0.09688719127379643,0.16234601725547412
0612,cdot_cos,Q,P-Q,131,26,23185,-0.012335334244658649,-0.018918571633484104,-0.03524911891243329,0.027085162564187082,820.0,3.0341810470705286,0.5658889597574414,6.476895490297114,-0.0140962942463082,0.13,0.9999999999999905,1747.2405630527423,0.650698378235103,131,2026-10-07 20:31:39.269243,101.6,0.016629421364576628,0.3143075713049213,0.10105428224696639
0612,cdot_cos,R,Q-R,132,26,23216,0.05819598772232725,0.15753471320238627,0.0705313219669859,0.9992281763244171,820.0,3.1027639589177025,0.5671078381109524,6.51557331810181,-0.07453462345841194,0.031,0.9999999999999903,-49.585201868591504,0.6556655139773746,132,2026-10-07 20:31:39.300243,101.6,0.44446858961156943,1.2980695094873271,2.2123519950701263
0612,cdot_cos,S,R-S,133,26,23265,0.0007474205518285947,-0.019300536403993564,-0.057448567170498656,0.002909749118204643,820.0,3.114661356658743,0.5671113863022863,6.5402478726324045,-0.01309940684455551,0.049,0.99999999999999,17314.516279781663,0.6606326594980613,133,2026-10-07 20:31:39.349244,101.6,0.009187388531518119,0.2531636454393172,0.24280403553143615
0612,cdot_cos,T,S-T,134,26,23475,-0.03692018399218202,-0.0027613974166613015,-0.037667604544010615,0.021310205952033083,820.0,3.1275739961707556,0.5671373720744153,6.565090034244812,-0.01427374936605973,0.21,0.9999999999999891,-45.19175014986963,0.665599888277219,134,2026-10-07 20:31:39.559244,101.6,0.9210205928973199,0.19555579706447068,0.06148875958101292
0612,cdot_cos,P,T-P,135,27,23875,0.02228312589514876,-0.00016056339910465846,0.05920330988733078,0.9975642365002847,818.0,3.1967947914258206,0.568353391249954,6.603669981747371,-0.07747205884800458,0.4,0.999999999999989,-51.971474425103075,0.6705672185344518,135,2026-10-07 20:31:39.959244,101.6,0.442304746300918,0.10304805715903753,0.17305198813766243
0612,cdot_cos,Q,P-Q,136,27,24004,-0.014120939534193754,-0.02144912050387931,-0.03640406542934252,0.02415875562398999,818.0,3.2100124418979856,0.5683828303359042,6.628426230123023,-0.014985806679269634,0.129,0.999999999999989,2122.560879587577,0.6755344062621796,136,2026-10-07 20:31:40.088243,101.6,0.01545696451226253,0.3215904085380027,0.10246240676096942
0612,cdot_cos,R,Q-R,137,27,24033,0.04350543239814694,0.1389732092345752,0.0576263719323407,0.9971421945819975,818.0,3.2797651168286253,0.5695974920277745,6.666968067500619,-0.08005308576133952,0.029,0.9999999999999885,-53.56823181101466,0.6805015405566313,137,2026-10-07 20:31:40.117243,101.6,0.44361348005586543,1.4212995900844434,2.405264652780677
0612,cdot_cos,S,R-S,138,27,24084,0.0005690323630386877,-0.017972296762564396,-0.042936400035108256,0.012588064088262919,818.0,3.2924478181228833,0.5696128207675516,6.691435898746793,-0.014740323473078453,0.051,0.9999999999999881,4260.804426077426,0.6854686875583055,138,2026-10-07 20:31:40.168243,101.6,0.011903882083739601,0.24795566929489307,0.24868041753447218
0612,cdot_cos,T,S-T,139,27,24314,-0.04286671966512038,-0.009806309391169816,-0.043435752028159066,0.011972804865790202,818.0,3.3050565950967044,0.5696274001699353,6.715808358547909,-0.014710677696092588,0.23,0.9999999999999883,2.033401384066068,0.6904359340885918,139,2026-10-07 20:31:40.398243,101.6,0.9979867735706218,0.18078705088166616,0.054820769451395704
0612,cdot_cos,P,T-P,140,28,24693,0.021340974248982212,-5.317439328477813e-05,0.0642076939141026,0.9985336356049235,839.0,3.3756098615284498,0.570842897122309,6.7543046150723605,-0.08329412261020719,0.379,0.9999999999999877,-56.42420145947926,0.6954032665428934,140,2026-10-07 20:31:40.777244,101.6,0.4389416602982702,0.11051545082193781,0.18615637580935468
0612,cdot_cos,Q,P-Q,141,28,24803,-0.01693520331127517,-0.018273351120279994,-0.038276177560257384,0.020058111437209765,839.0,3.388827306819733,0.5708673047974973,6.778674055700884,-0.01579976057768593,0.11,0.9999999999999873,2765.2925365411324,0.7003704468444631,141,2026-10-07 20:31:40.887244,101.6,0.013955804024078798,0.3835835126589067,0.12015859355712215
0612,cdot_cos,R,Q-R,142,28,24834,0.06436797055925711,0.1301177988621116,0.08130317387053228,0.9997415119224485,839.0,3.4599982343134092,0.5720833993247354,6.8171608801543355,-0.08607593440259761,0.031,0.9999999999999872,-57.78841385341568,0.7053375819334361,142,2026-10-07 20:31:40.918243,101.6,0.4420006501035945,1.34509516181915,2.2958363707637433
0612,cdot_cos,S,R-S,143,28,24883,-0.0029917865637205474,-0.019524651592199984,-0.06735975712297766,0.0010649612638728738,839.0,3.4722232068525205,0.5720846942916149,6.841138340040271,-0.014965216774679019,0.049,0.9999999999999867,54913.15550483425,0.7103047282548619,143,2026-10-07 20:31:40.967244,101.6,0.008636712936937154,0.27352302409052665,0.24948923549206645
0612,cdot_cos,T,S-T,144,28,25093,-0.03394756483939878,0.005247224549058961,-0.030955778275678233,0.04128450664987511,839.0,3.486803490674281,0.572134894481726,6.865619134309757,-0.01791696015348439,0.21,0.9999999999999863,-58.79944622261102,0.7152719706183875,144,2026-10-07 20:31:41.177243,101.6,0.8481092923472598,0.20537728718635853,0.06942992296076358
0612,cdot_cos,P,T-P,145,29,25532,0.021178491175141173,-0.00012599196284225858,0.05512605601453995,0.9963187222097032,818.0,3.558481667470791,0.573345922625888,6.903999566978944,-0.08910922992739495,0.439,0.9999999999999862,-58.78663523809014,0.7202393534816884,145,2026-10-07 20:31:41.616243,101.6,0.4498088287453887,0.09716263504379119,0.16327602914922604
0612,cdot_cos,Q,P-Q,146,29,25641,-0.01571709541753772,-0.01755239172777304,-0.03689558659267889,0.023009008959773463,818.0,3.5721122842427295,0.573373879810585,6.9281033925865,-0.01715027557292342,0.109,0.9999999999999855,2573.8984498796426,0.7252065359429016,146,2026-10-07 20:31:41.725244,101.6,0.015058841621015779,0.39468875269470355,0.12505153001778388
0612,cdot_cos,R,Q-R,147,29,25673,0.061215995929522364,0.13344708808031538,0.07693309134706008,0.9995970931116288,818.0,3.6445238155582365,0.5745879891051203,6.9665095826784365,-0.09214109397848641,0.032,0.9999999999999851,-61.76611837426221,0.7301736711900448,147,2026-10-07 20:31:41.757244,101.6,0.44314005101746323,1.32628213729067,2.2628603536095913
0612,cdot_cos,S,R-S,148,29,25721,-0.002284530048904934,-0.01907614580555533,-0.0635005259784273,0.0015754251496501277,818.0,3.6569943410293324,0.5745899019085694,6.990188300899401,-0.016054923863865034,0.048,0.999999999999985,39777.30704704765,0.7351408171731364,148,2026-10-07 20:31:41.805243,101.6,0.00874636173320648,0.2766891699559256,0.2598026139811656
0612,cdot_cos,T,S-T,149,29,25951,-0.03684536524246238,-0.0026972602251153217,-0.034560835193557446,0.028990139855898264,818.0,3.6710859758740053,0.5746250999066821,7.014193691945129,-0.01820759547230694,0.23,0.9999999999999847,-61.15892163951716,0.7401080793171553,149,2026-10-07 20:31:42.035244,101.6,0.8884922813277213,0.18928091841431355,0.06126797758553437
0612,cdot_cos,P,T-P,150,30,26350,0.021865520301797878,-1.4816163052323838e-05,0.05871088554426026,0.9974395945654909,819.0,3.7440635634999166,0.5758356650463036,7.052518242459273,-0.09534252741099904,0.399,0.999999999999984,-63.718117608120465,0.7450754528638504,150,2026-10-07 20:31:42.434243,101.6,0.44528994208125505,0.10939612713414376,0.18290122212007853
0612,cdot_cos,Q,P-Q,151,30,26480,-0.012184140817663471,-0.018867040083284593,-0.03404966111946135,0.03048841733339873,819.0,3.758384085327052,0.5758726537520583,7.076442138148135,-0.018929061841817658,0.13,0.9999999999999831,2065.859402484573,0.7500426520593781,151,2026-10-07 20:31:42.564243,101.6,0.017653288161368703,0.33737505072620144,0.11015786020873378
0612,cdot_cos,R,Q-R,152,30,26512,0.0412877950261391,0.1474188645034309,0.05347193584380257,0.9956479584449733,819.0,3.831781076688729,0.5770801095982466,7.114721921134012,-0.09807723976276853,0.032,0.9999999999999836,-65.54954218061505,0.755009786856339,152,2026-10-07 20:31:42.596244,101.6,0.4461953474799105,1.3585978211294314,2.2936559800524057
0612,cdot_cos,S,R-S,153,30,26560,0.0006062441505789381,-0.016429072593106823,-0.04068155087556016,0.015777834581208183,819.0,3.8453343458793356,0.5770992365395899,7.138323831298444,-0.018317898395528578,0.048,0.9999999999999829,4169.999789072802,0.7599769331017586,153,2026-10-07 20:31:42.644243,101.6,0.012853034673663683,0.28301836908950956,0.2823597748043046
0612,cdot_cos,T,S-T,154,30,26790,-0.03911491572342843,-0.00904575678043952,-0.039721159874007365,0.017366897720168098,819.0,3.858950840121322,0.5771202895818132,7.1618749556239845,-0.018468234949326354,0.23,0.9999999999999823,-7.14084701886835,0.7649442033897177,154,2026-10-07 20:31:42.874244,101.6,0.9918927650348505,0.19101645672725157,0.0592021488782013
0612,cdot_cos,P,T-P,155,31,27169,0.02430859048235711,-0.00011173290144256822,0.06342350620578555,0.9984122181096868,779.0,3.9332019159738714,0.5783301427193496,7.200152735651826,-0.10177781601117959,0.379,0.9999999999999822,-68.85925115794981,0.769911578634507,155,2026-10-07 20:31:43.253243,101.6,0.4410735615370529,0.11653268461229535,0.19591312889854728
0612,cdot_cos,Q,P-Q,156,31,27298,-0.012687952330907228,-0.021497999846359205,-0.03699654281326434,0.02277955696362248,779.0,3.947282615057442,0.5783577355556054,7.22368635589115,-0.01951921581961128,0.129,0.9999999999999812,2981.1578421587446,0.774878781029605,156,2026-10-07 20:31:43.382244,101.6,0.014783598354298827,0.3443207463097031,0.1091527060741896
0612,cdot_cos,R,Q-R,157,31,27329,0.04920475727587443,0.16470651783614526,0.06189270960678166,0.9981455284260211,779.0,4.022036668521775,0.5795663047199042,7.261945546563786,-0.1047131319301761,0.031,0.9999999999999813,-70.49155201638314,0.7798459147352642,157,2026-10-07 20:31:43.413243,101.6,0.44326236889767745,1.4205272178825321,2.411421079494611
0612,cdot_cos,S,R-S,158,31,27378,0.0023482814257494372,-0.020154031918986126,-0.04685647585012499,0.00848766086966966,779.0,4.035355302566159,0.5795765776359646,7.285165179374039,-0.0188623782447327,0.049,0.9999999999999808,8356.999432382598,0.7848130620546406,158,2026-10-07 20:31:43.462244,101.6,0.010552126753861739,0.27414860413544473,0.271808858048654
0612,cdot_cos,T,S-T,159,31,27588,-0.040468410042056355,-0.009731683964423128,-0.04281669146780579,0.012740137424460346,779.0,4.048903231727048,0.579591997345375,7.30837757208719,-0.019250898679908895,0.21,0.9999999999999797,-25.196352592303256,0.7897803262262285,159,2026-10-07 20:31:43.672243,101.6,0.9800203545714884,0.2119349835030598,0.06451394838518829
0612,cdot_cos,P,T-P,160,32,27948,0.0254229237386971,-0.00018250693523857265,0.06589133378075346,0.9987639029131616,738.0,4.124367995637444,0.5808003407804783,7.346608353336883,-0.1083259345455679,0.36,0.9999999999999799,-73.71665478370319,0.7947477026248323,160,2026-10-07 20:31:44.032243,101.6,0.43942542415120533,0.12536715447929941,0.2096243441955433
0612,cdot_cos,Q,P-Q,161,32,28077,-0.008577537114669218,-0.016500617402702394,-0.03400046085336632,0.03063652195453316,738.0,4.139167582952144,0.5808373907996666,7.370000884490789,-0.021478163742989744,0.129,0.9999999999999791,2344.0681733844417,0.7997149091419644,161,2026-10-07 20:31:44.161243,101.6,0.017535322943664496,0.35107108643353424,0.11472548305968985
0612,cdot_cos,R,Q-R,162,32,28108,0.04474508586030894,0.1547305338495945,0.053322622974978154,0.9955817277629393,738.0,4.214944335937296,0.5820408907888381,7.408171716870534,-0.11108824457518626,0.031,0.9999999999999788,-74.45789915950004,0.8046820425789946,162,2026-10-07 20:31:44.192243,101.6,0.44634783291343255,1.4486698055698985,2.444411386617802
0612,cdot_cos,S,R-S,163,32,28157,0.004562178764368719,-0.02187695634411939,-0.04018290709594022,0.0165841710631824,738.0,4.228985110897478,0.5820609301863278,7.431257112754226,-0.020804708618625215,0.049,0.9999999999999786,4505.301918548597,0.8096491904658373,163,2026-10-07 20:31:44.241244,101.6,0.013042105917985276,0.2845840292550172,0.2865464277588134
0612,cdot_cos,T,S-T,164,32,28367,-0.03725346268955553,-0.016663536861329254,-0.04181564145392425,0.01408486906293674,738.0,4.2428335708042875,0.5820779493523931,7.454235477264553,-0.020587286397469415,0.21,0.9999999999999779,12.775139529230435,0.8146164625702237,164,2026-10-07 20:31:44.451244,101.6,0.9894945768684628,0.21522627029762884,0.0659450471752849
0612,cdot_cos,P,T-P,165,33,28686,0.020869592346135658,-1.973231887443049e-05,0.05812305503569119,0.9972824475635457,779.0,4.319380144422482,0.5832824962524291,7.492399967215588,-0.11491508349050486,0.319,0.9999999999999778,-78.30977531071213,0.8195838217893833,165,2026-10-07 20:31:44.770243,101.6,0.4400584009138374,0.14391792521782557,0.2399579110288222
0612,cdot_cos,Q,P-Q,166,33,28816,-0.01194204744099287,-0.02071996693892501,-0.032811639787128526,0.0344342462766319,779.0,4.33465320709326,0.5833240692763588,7.515605570827453,-0.0231738157892368,0.13,0.9999999999999774,2206.749931310837,0.8245510335481367,166,2026-10-07 20:31:44.900243,101.6,0.019085373092809867,0.35166869854370736,0.11748509746752643
0612,cdot_cos,R,Q-R,167,33,28866,0.028232388756998673,0.14459981845004863,0.04017443619799154,0.9834017867476534,779.0,4.410814006043846,0.584510843890783,7.553545463139645,-0.11668399862705048,0.05,0.999999999999977,-78.7935482452029,0.8295181821877424,167,2026-10-07 20:31:44.950243,101.6,0.44870178059804355,0.9544318511675698,1.5232159790117095
0612,cdot_cos,S,R-S,168,33,28916,0.006010839809787222,-0.020953102760850394,-0.02222154894721145,0.09468654156829237,779.0,4.430096392210017,0.5846250606373871,7.577607533454642,-0.029862077779821996,0.05,0.9999999999999762,760.1505333382066,0.8344853315915607,168,2026-10-07 20:31:45.000243,101.6,0.054615875886282944,0.3349089720823084,0.3856477233234301
0612,cdot_cos,T,S-T,169,33,29126,-0.034433626448573715,-0.014543605872002823,-0.040444466258360935,0.016156287357559623,779.0,4.4443049032520765,0.5846445484400334,7.6003798188716845,-0.022087369370646467,0.21,0.9999999999999751,398.9525422775324,0.8394526122594228,169,2026-10-07 20:31:45.210243,101.6,0.7032815742154483,0.2188788217983438,0.06765957639075874
0612,cdot_cos,P,T-P,170,34,29465,0.02388639210831526,-0.0001047714928480753,0.058320018556888974,0.9973361458967636,758.0,4.5220254973653216,0.5858470259282813,7.638511389923776,-0.12196645281559186,0.339,0.9999999999999756,-83.06108382160195,0.8444200020589095,170,2026-10-07 20:31:45.549243,101.6,0.4409136656739619,0.13662145541279186,0.22926428941960192
0612,cdot_cos,Q,P-Q,171,34,29575,-0.01214620066911706,-0.015512368098245514,-0.036032592777432315,0.025064680496573573,758.0,4.536934250021949,0.5858772330314825,7.661339699536697,-0.023637411174924444,0.11,0.9999999999999745,3255.1628994555385,0.8493872015510996,171,2026-10-07 20:31:45.659244,101.6,0.01560926740467392,0.4236454849572721,0.13553411506025304
0612,cdot_cos,R,Q-R,172,34,29625,0.05193273123832801,0.1600711123955791,0.06407893190744507,0.9985143549612352,758.0,4.615227504055921,0.5870800810206683,7.699483832798476,-0.12530134655083153,0.05,0.9999999999999744,-84.51935430737437,0.854354350957684,172,2026-10-07 20:31:45.709243,101.6,0.44425547424499534,0.9215356989532086,1.5658650806794405
0612,cdot_cos,S,R-S,173,34,29674,0.003295470524656817,-0.02017906743266455,-0.04863726071367119,0.007092879805834554,758.0,4.62908781991727,0.5870886216717891,7.721945951102648,-0.02240541203910571,0.049,0.999999999999973,12047.785708222698,0.8593215002334696,173,2026-10-07 20:31:45.758244,101.6,0.010127923913583005,0.2866679806130715,0.2828635890071191
0612,cdot_cos,T,S-T,174,34,29884,-0.03906808215388919,-0.013358290346823601,-0.04236355267854601,0.013332388022166467,758.0,4.643320966156002,0.5871046752736703,7.744443318488525,-0.023077753364026645,0.21,0.9999999999999727,-41.88102644487992,0.8642887892742157,174,2026-10-07 20:31:45.968243,101.6,0.9712865534482625,0.22180916962850522,0.0677768868511056
0612,cdot_cos,P,T-P,175,35,30223,0.024176539388587555,3.796054326415656e-05,0.06324462154247674,0.9983831439307197,759.0,4.722247671161242,0.5883063054636034,7.78256167528401,-0.12914582466721725,0.339,0.9999999999999727,-88.2701451676184,0.8692561937246969,175,2026-10-07 20:31:46.307244,101.6,0.43985740306943844,0.13848606074872866,0.2328221386585251
0612,cdot_cos,Q,P-Q,176,35,30353,-0.012869164192270126,-0.02363225729046235,-0.03704570358085768,0.022668635566377025,759.0,4.7372145153436405,0.5883335767305888,7.8051277192925115,-0.0247349083153052,0.13,0.9999999999999718,3828.6052645701466,0.8742234146242093,176,2026-10-07 20:31:46.437243,101.6,0.014681063379166137,0.3623354995418856,0.11512957063383092
0612,cdot_cos,R,Q-R,177,35,30382,0.0407931770173519,0.16860245015150596,0.05366234120962202,0.9957309844161536,759.0,4.816454901042133,0.5895309430931375,7.843199903339965,-0.1321442728416248,0.029,0.9999999999999716,-89.70467843918306,0.8791905456182826,177,2026-10-07 20:31:46.466244,101.6,0.44360581479769734,1.6256020702904763,2.7324270930514563
0612,cdot_cos,S,R-S,178,35,30433,0.003445777632338895,-0.020596958193183967,-0.037347399385013004,0.021999385493338262,759.0,4.831499435420488,0.5895573854318422,7.8656774132200376,-0.025335942302131445,0.051,0.9999999999999707,4039.2921266197063,0.8841576973798325,178,2026-10-07 20:31:46.517244,101.6,0.01476221865150771,0.2887307340244106,0.2949908701638314
0612,cdot_cos,T,S-T,179,35,30643,-0.03929211507126901,-0.013477453169450803,-0.0427378927036079,0.012841228744274133,759.0,4.845905435912623,0.5895728198110252,7.887947567262055,-0.024334388976259093,0.21,0.9999999999999697,64.89106649518864,0.8891249950349294,179,2026-10-07 20:31:46.727243,101.6,0.9596775463303471,0.22488355577529728,0.0686000023434975
0612,cdot_cos,P,T-P,180,36,30982,0.02344975527434157,-2.2826761860238492e-05,0.06274187034561057,0.9982985542055033,759.0,4.925950528846113,0.5907721721867157,7.926041273931522,-0.13640851609898566,0.339,0.9999999999999698,-93.44553727022492,0.8940924145697723,180,2026-10-07 20:31:47.066243,101.6,0.43972465735583066,0.14084814898780917,0.23612121809289197
0612,cdot_cos,Q,P-Q,181,36,31112,-0.011936862136000963,-0.021691058051273988,-0.03538661741034253,0.026719457337631206,759.0,4.941400480926357,0.5908042580792066,7.948459269312553,-0.026585631308374096,0.13,0.9999999999999689,3422.7779333873223,0.8990596401553566,181,2026-10-07 20:31:47.196243,101.6,0.01606822917051041,0.36842365106473096,0.11884578523264804
0612,cdot_cos,R,Q-R,182,36,31143,0.04119860759008669,0.1329636179451791,0.05313546972608765,0.9954972934095883,759.0,5.021740678122943,0.5919991413999196,7.986505963014757,-0.13946198923006825,0.031,0.9999999999999685,-94.46642694312206,0.9040267726866552,182,2026-10-07 20:31:47.227243,101.6,0.4451383905328428,1.541700075231807,2.5916192644059937
0612,cdot_cos,S,R-S,183,36,31192,0.0037821301272354313,-0.022918901775509634,-0.03741647746285126,0.02184888866941819,759.0,5.036985885590729,0.5920253542174106,8.00877145666693,-0.026717410477999297,0.049,0.9999999999999681,4301.124012731045,0.9089939232613271,183,2026-10-07 20:31:47.276243,101.6,0.01470023643754104,0.3067557683347573,0.3111266830160456
0612,cdot_cos,T,S-T,184,36,31402,-0.03680324090981524,-0.01254174544882922,-0.04058537103705067,0.015930301165962522,759.0,5.051802743419749,0.5920444659842587,8.030882780000544,-0.0260439488317401,0.21,0.999999999999967,35.23806310592935,0.9139612297545548,184,2026-10-07 20:31:47.486243,101.6,0.9744728108017172,0.22843196095511376,0.0705564658524761
0612,cdot_cos,P,T-P,185,37,31741,0.02364308308436443,-8.501570108848817e-05,0.060446323994179665,0.9978525973339705,739.0,5.132927309191877,0.593241044238172,8.068951505790462,-0.14381849711727415,0.339,0.999999999999967,-98.42611454818338,0.9189286647846849,185,2026-10-07 20:31:47.825243,101.6,0.4409115489191948,0.14167983646989687,0.23930550375258933
0612,cdot_cos,Q,P-Q,186,37,31851,-0.016933419285336995,-0.022810196174837993,-0.04057650236970142,0.015944432766709836,739.0,5.147861672546339,0.5932601551194852,8.090990769004108,-0.026725116057487237,0.11,0.9999999999999659,6127.052915104707,0.9238958752957273,186,2026-10-07 20:31:47.935244,101.6,0.012507855248249912,0.4390382470041229,0.1357669395860209
0612,cdot_cos,R,Q-R,187,37,31882,0.048228139311895166,0.14702595193755524,0.06516155859723216,0.9986688956521169,739.0,5.229515723532784,0.5944565876175412,8.129072565548707,-0.14735584418910924,0.031,0.9999999999999656,-100.8253523099928,0.9288630076355656,187,2026-10-07 20:31:47.966244,101.6,0.44103302487905466,1.551058944818368,2.634001644724024
0612,cdot_cos,S,R-S,188,37,31930,0.0008342193419226618,-0.021379716381179595,-0.047393919969972505,0.00804025068335705,739.0,5.244027327125078,0.5944662155266391,8.15091108310982,-0.02643064670099064,0.048,0.9999999999999646,12559.860740017224,0.9338301579374485,188,2026-10-07 20:31:48.014244,101.6,0.010304354029471252,0.31106692731283636,0.30232507483946014
0612,cdot_cos,T,S-T,189,37,32160,-0.03706243124091502,-0.016514786869852218,-0.03789665058283768,0.02083023087594237,739.0,5.259378148554816,0.5944911586360397,8.172903199817238,-0.02803832205726274,0.23,0.9999999999999636,-64.45368660546715,0.9387974938567075,189,2026-10-07 20:31:48.244244,101.6,0.9442743774757664,0.21219571233704831,0.06674270186842697
0612,cdot_cos,P,T-P,190,38,32480,0.026838936671640626,-0.00017024907550909678,0.06390136791255564,0.9984873508695193,719.0,5.34163735480012,0.595686220697648,8.210968931581842,-0.15149998956758912,0.32,0.9999999999999637,-103.30983760306059,0.9437649249802932,190,2026-10-07 20:31:48.564243,101.6,0.44267095306383014,0.1517008859331842,0.2570600195165751
0612,cdot_cos,Q,P-Q,191,38,32589,-0.016982176528094202,-0.02392322521539692,-0.04382111319973483,0.011518390556110258,719.0,5.356466715552054,0.5957000001530638,8.232738862628572,-0.027561644830923177,0.109,0.9999999999999626,8994.429823001898,0.948732138344961,191,2026-10-07 20:31:48.673243,101.6,0.011144949908440456,0.4474141595212537,0.1360491812104024
0612,cdot_cos,R,Q-R,192,38,32620,0.04521907716757714,0.1504272317953795,0.062201253695671345,0.9982026579327996,719.0,5.439173641575754,0.5968935750723239,8.270801067664598,-0.15497135592032507,0.031,0.9999999999999627,-106.74630392567633,0.9536992704691815,192,2026-10-07 20:31:48.704243,101.6,0.43948571298412503,1.5754991720921594,2.667965355603208
0612,cdot_cos,S,R-S,193,38,32669,0.001803997412647762,-0.02226552852180023,-0.04341507975492938,0.011997675792624583,719.0,5.454147664221768,0.5969079140362856,8.29251084197103,-0.028310983038803444,0.049,0.9999999999999615,8833.300175621283,0.9586664225363496,193,2026-10-07 20:31:48.753243,101.6,0.01140281228819158,0.3097842901644378,0.30559229889825384
0612,cdot_cos,T,S-T,194,38,32879,-0.03733664127759181,-0.01331814647319427,-0.03914063869023957,0.01840260713070454,719.0,5.469532502011869,0.5969299075009848,8.314272609577072,-0.02916824855951887,0.21,0.9999999999999608,-38.97819340605169,0.9636337473175312,194,2026-10-07 20:31:48.963244,101.6,0.9710373298474617,0.23501877942102356,0.07326113233381176
0612,cdot_cos,P,T-P,195,39,33199,0.025404546386367327,-0.0001850663822106134,0.06274118766395914,0.9982984363891683,738.0,5.552855551578598,0.5981224153828105,8.352326094183882,-0.15924625756802963,0.32,0.9999999999999605,-109.07937045193111,0.9686011936668034,195,2026-10-07 20:31:49.283243,101.6,0.4418275731428251,0.15481810671430368,0.26038452989602945
0612,cdot_cos,Q,P-Q,196,39,33328,-0.011873048120806683,-0.022950121645884693,-0.03727759450717401,0.022152494986121464,738.0,5.568616090309023,0.5981488643278389,8.374085254680514,-0.030391514325482476,0.129,0.9999999999999591,4871.82922057769,0.9735684330367982,196,2026-10-07 20:31:49.412243,101.6,0.014410093943906736,0.3850303209432382,0.12217471884050336
0612,cdot_cos,R,Q-R,197,39,33358,0.04084338310655742,0.17405160652846277,0.0527164312273641,0.9953023744814158,738.0,5.6521933743819535,0.599336612831563,8.412091395211553,-0.16244540371166344,0.03,0.999999999999959,-111.18000904411043,0.9785355638106138,197,2026-10-07 20:31:49.442244,101.6,0.4435643289829469,1.659323819026278,2.7859094690976844
0612,cdot_cos,S,R-S,198,39,33408,0.004234768103871853,-0.0203059588953182,-0.036608615002685564,0.02367362702498148,738.0,5.6681755194506,0.5993648497129505,8.43381218171729,-0.03133866613955672,0.05,0.9999999999999583,4643.1026065968545,0.9835027177631032,198,2026-10-07 20:31:49.492243,101.6,0.015244361841440384,0.30792938502924194,0.31964290137292295
0612,cdot_cos,T,S-T,199,39,33618,-0.044045169469574694,-0.0197554887650524,-0.04827993757344655,0.0073531829262951124,738.0,5.682986312884878,0.5993736201381391,8.455206587977434,-0.029120602079014204,0.21,0.9999999999999569,252.9026829180549,0.9884700520361633,199,2026-10-07 20:31:49.702244,101.6,0.9266603222693149,0.23633318872748676,0.07052758778227641
0612,cdot_cos,P,T-P,200,40,33937,0.025835396085322624,-2.1530413479838942e-05,0.06988056555489731,0.9991754644798158,779.0,5.767435458716144,0.6005647810475567,8.49326978814367,-0.16732755986200248,0.319,0.9999999999999568,-116.02710993140298,0.9934375127502186,200,2026-10-07 20:31:50.021244,101.6,0.43781164607436224,0.15692272718555084,0.26473086467481627
0612,cdot_cos,Q,P-Q,201,40,34067,-0.013533501353130546,-0.02322553445526298,-0.03936889743845317,0.01798832996720549,779.0,5.783103012829259,0.6005862148731457,8.51478040753476,-0.03131456509543379,0.13,0.9999999999999558,6345.717156377173,0.9984047583737872,201,2026-10-07 20:31:50.151244,101.6,0.012991734638260404,0.38636417250363075,0.12051964702396188
0612,cdot_cos,R,Q-R,202,40,34096,0.045370384164216605,0.1613487800916154,0.058903885517347154,0.9974891871628879,779.0,5.867890143567088,0.6017741585949106,8.552819039671517,-0.17076559459294532,0.029,0.9999999999999557,-117.38858242403356,1.0033718876637499,202,2026-10-07 20:31:50.180243,101.6,0.4419217203058792,1.727159911768543,2.923694163373412
0612,cdot_cos,S,R-S,203,40,34147,0.002329766272505956,-0.019522764349541515,-0.043040617891710646,0.012457129765579021,779.0,5.883278287711835,0.6017889866694648,8.574174513440894,-0.03125858689056513,0.051,0.9999999999999544,9408.302284445424,1.0083390435955908,203,2026-10-07 20:31:50.231244,101.6,0.011527752365024386,0.3060687502324179,0.3017283165636577
0612,cdot_cos,T,S-T,204,40,34357,-0.03641721076079956,-0.008895164597956248,-0.03874697703330552,0.019139183086022308,779.0,5.899109156090795,0.6018117682174842,8.5955926131195,-0.032242720218916256,0.21,0.999999999999953,-43.198703069429634,1.0133063874831307,204,2026-10-07 20:31:50.441243,101.6,0.9699384607851128,0.24105037428127243,0.07538508751885754
0612,cdot_cos,P,T-P,205,41,34716,0.024246182016954342,-6.740170760429468e-05,0.0606633927777539,0.9978993397438068,799.0,5.984519444909969,0.6029989640565345,8.633632571054406,-0.1752717737971348,0.359,0.9999999999999529,-120.47637708419519,1.0182739117646185,205,2026-10-07 20:31:50.800243,101.6,0.44217852725358936,0.14192061138484616,0.23791166801998426
0612,cdot_cos,Q,P-Q,206,41,34846,-0.011114033629037729,-0.01810643301927227,-0.03536021564599207,0.026789303697230534,799.0,6.001008155065114,0.6030308185140527,8.655121843561325,-0.03412594441052456,0.13,0.9999999999999519,4430.960072260553,1.0232411624142828,206,2026-10-07 20:31:50.930244,101.6,0.015986237937069582,0.39165227992996254,0.1268362319626553
0612,cdot_cos,R,Q-R,207,41,34895,0.03472770202543209,0.14551355582914777,0.04584173565446982,0.9905992476978347,799.0,6.086349037691759,0.6042080987120116,8.693042114064202,-0.17794526865565372,0.049,0.9999999999999518,-122.16235735084231,1.0282083155572717,207,2026-10-07 20:31:50.979244,101.6,0.44564961894717814,1.0528714776626946,1.7416506658498994
0612,cdot_cos,S,R-S,208,41,34945,0.004442721170199916,-0.018875675964313825,-0.030284980855232176,0.044067950731340864,799.0,6.104189559876058,0.6042604434376054,8.714769429804317,-0.03751531699094588,0.05,0.9999999999999505,2682.7908652055303,1.0331754707907979,208,2026-10-07 20:31:51.029243,101.6,0.023676559735724932,0.334247268090353,0.3568104436859798
0612,cdot_cos,T,S-T,209,41,35155,-0.03822899588051821,-0.012227043356358408,-0.04267171705071812,0.012926737130259953,799.0,6.119773764500795,0.6042757976015102,8.735915250653903,-0.03286011159692301,0.21,0.9999999999999493,303.18846554607336,1.0381428243425121,209,2026-10-07 20:31:51.239244,101.6,0.8679099064669848,0.24302077977273806,0.07421049821303004
0612,cdot_cos,P,T-P,210,42,35515,0.02475855951352807,-0.00015873937763998105,0.06298755539404628,0.9983404297188929,778.0,6.206258287380608,0.6054609865803089,8.77396467818355,-0.18368864778388844,0.36,0.9999999999999494,-127.26117006238337,1.0431103681400327,210,2026-10-07 20:31:51.599244,101.6,0.4399431649001171,0.14265436872778173,0.2402347857772602
0612,cdot_cos,Q,P-Q,211,42,35644,-0.013380419166556785,-0.022805144309378175,-0.038138978680084853,0.020333942260377047,778.0,6.222484909984797,0.6054851133741245,8.795180777658212,-0.03475095591380022,0.129,0.9999999999999484,6173.124079748152,1.048077622603927,211,2026-10-07 20:31:51.728243,101.6,0.013761797156166973,0.3981186817296188,0.1257877721254974
0612,cdot_cos,R,Q-R,212,42,35674,0.03434228807237427,0.14207756977962213,0.04772270723893106,0.9922218411616801,778.0,6.30897290726685,0.6066617858100044,8.833130426328703,-0.1865583656001197,0.03,0.9999999999999479,-129.01416320914805,1.0530447518255523,212,2026-10-07 20:31:51.758244,101.6,0.44320356865897875,1.7223565562148657,2.8829332427350827
0612,cdot_cos,S,R-S,213,42,35704,-0.0007647270940179661,-0.016820418413998006,-0.03510701516639224,0.02746822835258342,778.0,6.325826303357689,0.6066943427548568,8.854413923090732,-0.036652233909508954,0.03,0.9999999999999463,4604.428713146055,1.0580118817580109,213,2026-10-07 20:31:51.788243,101.6,0.016739920912365393,0.5495902756471605,0.561779869694649
0612,cdot_cos,T,S-T,214,42,35934,-0.04026504577546535,-0.009777047857090876,-0.039500318681447384,0.01775397498347352,778.0,6.3419483238056795,0.6067153852962552,8.875482418132288,-0.035152506820857105,0.23,0.9999999999999453,71.27119582438479,1.0629792711948993,214,2026-10-07 20:31:52.018244,101.6,0.9582338329029206,0.22530890980349427,0.07009574107821809
0612,cdot_cos,P,T-P,215,43,36293,0.02338395291620614,-2.0271607634259267e-05,0.0636489986916715,0.9984481249159837,779.0,6.429468401867297,0.607898136305419,8.913537925005208,-0.19218566900155143,0.359,0.9999999999999455,-132.76941720110733,1.0679468323133097,215,2026-10-07 20:31:52.377243,101.6,0.441714777561506,0.14534916938490597,0.2437885182774853
0612,cdot_cos,Q,P-Q,216,43,36423,-0.012239133584984114,-0.020915668953514953,-0.035623086501190254,0.026101721571214057,779.0,6.446309027424042,0.6079290392120601,8.934697272261634,-0.037281534962304214,0.13,0.9999999999999436,5012.6072553076565,1.0729140933112757,216,2026-10-07 20:31:52.507244,101.6,0.01568606197382884,0.4030928600803187,0.12954327351342507
0612,cdot_cos,R,Q-R,217,43,36453,0.05155447659989614,0.16674383614945018,0.06379361018488025,0.9984707245850184,779.0,6.53427254548818,0.6091105185749615,8.972759852551208,-0.1961062032257434,0.03,0.9999999999999434,-134.4286436568923,1.0778812219550904,217,2026-10-07 20:31:52.537244,101.6,0.4449065147751943,1.7249630299143468,2.932117268804587
0612,cdot_cos,S,R-S,218,43,36503,0.002438358330130323,-0.02041255156577018,-0.04911611826976582,0.006758333851230625,779.0,6.549806809218903,0.6091185112962413,8.99352865988811,-0.03490802570720033,0.05,0.9999999999999419,20168.121954335813,1.0828483784021659,218,2026-10-07 20:31:52.587244,101.6,0.00987452537712952,0.31834046861890286,0.31068527461446394
0612,cdot_cos,T,S-T,219,43,36713,-0.03714345717333625,-0.009072432510827518,-0.03958181550346657,0.017610155708795563,779.0,6.56610659235007,0.6091393376138308,9.014440621605202,-0.036716689506240595,0.21,0.9999999999999407,-86.84510793946237,1.0878157517892415,219,2026-10-07 20:31:52.797244,101.6,0.9519336032387037,0.24939069359172705,0.07761801491031947
0612,cdot_cos,P,T-P,220,44,37072,0.020771422238808054,-6.060049400933217e-05,0.05791487941214431,0.9972245186528985,819.0,6.654550900527428,0.6103180354512663,9.052481041070727,-0.2006013997446747,0.359,0.9999999999999409,-139.0387807913492,1.0927833317361284,220,2026-10-07 20:31:53.156243,101.6,0.44176954129369433,0.14721780016665517,0.2463629754243963
0612,cdot_cos,Q,P-Q,221,44,37202,-0.013740786824840194,-0.02113400607338573,-0.03451220906364825,0.029129535195109645,819.0,6.671808972869728,0.6103524466392878,9.073543156399316,-0.039454905093683636,0.13,0.9999999999999389,4682.968066964467,1.0977505980492046,221,2026-10-07 20:31:53.286243,101.6,0.016834567291038452,0.4078516112664649,0.13275440263307803
0612,cdot_cos,R,Q-R,222,44,37232,0.04033423449900926,0.13664234369809183,0.054075021323849455,0.995905558729837,819.0,6.760592319456709,0.6115282628304138,9.111567647526572,-0.20436458320329615,0.03,0.9999999999999387,-140.2512393979554,1.1027177260859415,222,2026-10-07 20:31:53.316243,101.6,0.4462220252118185,1.7548980934558442,2.959444886232691
0612,cdot_cos,S,R-S,223,44,37281,0.0007129067313080838,-0.020817173819250304,-0.03962132776770118,0.017540839964116463,819.0,6.777102858477079,0.6115489608437135,9.132375223704178,-0.038301699322938386,0.049,0.9999999999999379,8023.131567094302,1.1076848817274738,223,2026-10-07 20:31:53.365243,101.6,0.013093319186386863,0.3441472146042481,0.3369497759259167
0612,cdot_cos,T,S-T,224,44,37512,-0.034416174324511294,-0.007891658976523311,-0.035129081055819376,0.02740840240615132,819.0,6.794318746487925,0.6115813016751407,9.15331253263647,-0.040036272481073734,0.231,0.9999999999999358,-53.634154769292316,1.1126522951002906,224,2026-10-07 20:31:53.596244,101.6,0.9576000799150659,0.23090343365370308,0.07452765372660776
0612,cdot_cos,P,T-P,225,45,37891,0.02408877851599197,-0.0001385966826441075,0.05850495284050326,0.9973856009877675,798.0,6.88378024482509,0.6127575067818531,9.191364395421466,-0.20944888869985973,0.379,0.9999999999999358,-144.0332262221691,1.1176199229265498,225,2026-10-07 20:31:53.975244,101.6,0.4453701969254638,0.14010217742312375,0.23604616975505127
0612,cdot_cos,Q,P-Q,226,45,38020,-0.01447617502275708,-0.023256932121213787,-0.03856495353874905,0.01948946590563409,798.0,6.900516196974653,0.6127804774368728,9.21211239974849,-0.03948587210356423,0.129,0.999999999999934,7399.136700752482,1.1225871930064804,226,2026-10-07 20:31:54.104243,101.6,0.013508978680181138,0.4125071662966508,0.12973606317490977
0612,cdot_cos,R,Q-R,227,45,38050,0.03705043224575781,0.13521023505302637,0.05152660726851489,0.9947019446365458,798.0,6.990207093729626,0.6139521839675014,9.25012423953849,-0.21300675417070983,0.03,0.999999999999934,-148.0924425453667,1.127554320184973,227,2026-10-07 20:31:54.134243,101.6,0.44280481823634166,1.77554475459815,2.989696558499085
0612,cdot_cos,S,R-S,228,45,38080,-0.001514301263761125,-0.01819630098615482,-0.03856473350951894,0.019489893105348648,798.0,7.007048882250542,0.6139751289034149,9.270823031605037,-0.040303403162219614,0.03,0.9999999999999326,7526.8613370590765,1.1325214481138572,228,2026-10-07 20:31:54.164243,101.6,0.013772504576327789,0.5613470687749682,0.5613929506972148
0612,cdot_cos,T,S-T,229,45,38330,-0.03991229448358564,-0.012820509786517312,-0.03839799321982451,0.019816281753267363,798.0,7.023887917856124,0.6139984575689293,9.29148456500173,-0.04039287285931596,0.25,0.9999999999999307,-3.8351828157880665,1.1374889010932219,229,2026-10-07 20:31:54.414243,101.6,0.9977874640556449,0.21476288607785143,0.06735614242232657
0612,cdot_cos,P,T-P,230,46,38689,0.024562472721328044,-2.703549330189383e-05,0.06447476720491369,0.9985728338775791,799.0,7.114430325289468,0.6151733448831633,9.329567641463264,-0.21860341621448032,0.359,0.9999999999999306,-151.68309436667616,1.142456519628123,230,2026-10-07 20:31:54.773243,101.6,0.44254060838133297,0.15008566015068842,0.25220726304552665
0612,cdot_cos,Q,P-Q,231,46,38799,-0.012146985465965692,-0.014190096252851121,-0.036709458187293736,0.023437969139221856,799.0,7.131649421844318,0.6152009051453284,9.350246261511629,-0.041889123922405985,0.11,0.9999999999999288,6411.923487281571,1.1474237664321294,231,2026-10-07 20:31:54.883244,101.6,0.014718943926180207,0.49198518433540334,0.15653724140772918
0612,cdot_cos,R,Q-R,232,46,38850,0.05820487642029863,0.14753637313479462,0.07035186188626433,0.9992139856361466,799.0,7.222667065843257,0.6163751722904982,9.388348951218338,-0.22284579636945523,0.051,0.999999999999929,-154.10179292795178,1.1523909249780007,232,2026-10-07 20:31:54.934243,101.6,0.4439575132692687,1.0471025252534096,1.7846596862536968
0612,cdot_cos,S,R-S,233,46,38899,0.0014820909723221142,-0.019213616388894895,-0.056722785447976515,0.003131723961655094,799.0,7.238453879420166,0.616378850539002,9.408616853977241,-0.03893957903567831,0.049,0.999999999999927,49998.31227954824,1.1573580813717461,233,2026-10-07 20:31:54.983244,101.6,0.00888970909704194,0.33112725439215723,0.32217986891651534
0612,cdot_cos,T,S-T,234,46,39109,-0.039640370716042476,-0.0061979966775482275,-0.041122461688364594,0.01509707439081656,799.0,7.255117536773688,0.616396582052632,9.429056644219555,-0.04119390575062803,0.21,0.9999999999999254,-127.13673304965273,1.162325485556079,234,2026-10-07 20:31:55.193243,101.6,0.946745691868724,0.25742172116718154,0.07935074930248645
0612,cdot_cos,P,T-P,235,47,39488,0.02000212225993287,-5.807892352488605e-05,0.05964249297597535,0.9976702858899342,859.0,7.346571002310382,0.6175676576739519,9.467135007226382,-0.227502880262959,0.379,0.9999999999999248,-159.09218082974374,1.1672931549459562,235,2026-10-07 20:31:55.572243,101.6,0.44090308956201385,0.14410329761711954,0.24130201988573638
0612,cdot_cos,Q,P-Q,236,47,39617,-0.014790561728081133,-0.020391825274055267,-0.034792683988014,0.028334356086947145,859.0,7.364347836367465,0.6176008969726796,9.487767173027917,-0.04455162370077817,0.129,0.9999999999999232,5504.064873964162,1.172260435760722,236,2026-10-07 20:31:55.701244,101.6,0.016465297239015877,0.42550476434513057,0.13780491517118235
0612,cdot_cos,R,Q-R,237,47,39646,0.057217529474002424,0.1377468416803416,0.07200809120208355,0.9993356401727405,859.0,7.456351231511426,0.6187725212342348,9.52588407020193,-0.232023648054288,0.029,0.9999999999999232,-160.010363821478,1.1772275598390518,237,2026-10-07 20:31:55.730243,101.6,0.4457545960895526,1.8608334484834652,3.1725308670331436
0612,cdot_cos,S,R-S,238,47,39697,-0.0007844199457464825,-0.019333973036294177,-0.058001949419748906,0.002751104101597026,859.0,7.472276176379506,0.6187757447371709,9.546009444773766,-0.04045350584930485,0.051,0.9999999999999211,59429.181856042196,1.1821947198875749,238,2026-10-07 20:31:55.781244,101.6,0.008777502084476752,0.3336556473973974,0.31225382094274173
0612,cdot_cos,T,S-T,239,47,39907,-0.03447138795545475,0.0026778408741300118,-0.03368696800970827,0.03159669994475852,859.0,7.49038410754596,0.6188127662336854,9.56661540595828,-0.04610200332257247,0.21,0.9999999999999191,-152.5734506991615,1.1871621346930064,239,2026-10-07 20:31:55.991244,101.6,0.884686675317174,0.26305434996301635,0.0862282436497843
0612,cdot_cos,P,T-P,240,48,40347,0.02272060968701129,-0.00014403208033973006,0.05719199764246604,0.9970136333425482,838.0,7.5827590033639725,0.619980244740606,9.604694891259943,-0.2366389880177786,0.44,0.9999999999999192,-163.20384792160542,1.192129924242796,240,2026-10-07 20:31:56.431243,101.6,0.44700744980878765,0.12508892489738743,0.20994294504093675
0612,cdot_cos,Q,P-Q,241,48,40476,-0.013368528005303148,-0.01915797090983996,-0.036089137692314435,0.02492467641541498,838.0,7.600462361455661,0.6200094132097825,9.625136783571898,-0.04568096140068928,0.129,0.9999999999999171,6546.727751162844,1.1970972101917072,241,2026-10-07 20:31:56.560243,101.6,0.015294620565856969,0.4288591265436741,0.137235334044099
0612,cdot_cos,R,Q-R,242,48,40507,0.05418920764713208,0.11997725693247588,0.06755773565243522,0.9989562238868384,838.0,7.69340465801224,0.6211777409413007,9.663260207790634,-0.2412829147175915,0.031,0.9999999999999168,-167.42044893749448,1.2020643363296435,242,2026-10-07 20:31:56.591244,101.6,0.44455802390390436,1.7601823073473097,2.9981385985993274
0612,cdot_cos,S,R-S,243,48,40556,-0.00010946260696894143,-0.019517842636666585,-0.05429867025410102,0.004002821657369827,838.0,7.709593664511194,0.6211824196187289,9.683277969671696,-0.04232717554537392,0.049,0.9999999999999151,42523.92737639877,1.207031493226243,243,2026-10-07 20:31:56.640243,101.6,0.009091407047756166,0.3472703382892304,0.3303878877337561
0612,cdot_cos,T,S-T,244,48,40746,-0.035877325229207384,0.005536036974215556,-0.035767862622238446,0.0257304011884538,838.0,7.727437151164585,0.6212124939270238,9.703651731604882,-0.04675454712509701,0.19,0.999999999999913,-147.2144109285651,1.2119988851321115,244,2026-10-07 20:31:56.830244,101.6,0.9096513133728485,0.29262547155998714,0.09391308764942383
0612,cdot_cos,P,T-P,245,49,41185,0.02217753670498143,-4.423645454006117e-05,0.05805486193418881,0.9972636055457513,819.0,7.8207913437039895,0.622377399595689,9.741749624101264,-0.24607699736648983,0.439,0.9999999999999134,-171.1060866153913,1.216966698390273,245,2026-10-07 20:31:57.269243,101.6,0.4448579173062562,0.12710744413681957,0.21265191922415622
0612,cdot_cos,Q,P-Q,246,49,41295,-0.012193600855246041,-0.013665574846478259,-0.03437113756022747,0.029537630235685806,819.0,7.8390374871167126,0.6224118810979087,9.762151420692765,-0.0484394076371357,0.11,0.9999999999999108,5731.698940217333,1.221933957443388,246,2026-10-07 20:31:57.379244,101.6,0.016905788033457117,0.5099713735939487,0.16587403102475468
0612,cdot_cos,R,Q-R,247,49,41345,0.06393891907211681,0.14622038554588052,0.07613251992736285,0.9995629666952157,819.0,7.932985045894658,0.623578014199917,9.800300303187601,-0.2508898815121777,0.05,0.9999999999999104,-173.60837585896806,1.2269011153185725,247,2026-10-07 20:31:57.429244,101.6,0.44622605368459367,1.1011544109083093,1.8789511755589139
0612,cdot_cos,S,R-S,248,49,41395,0.0006116062389642844,-0.017343243495516206,-0.06332731283315253,0.0016033507491436145,819.0,7.9491529282075435,0.6235798835921001,9.820148370424356,-0.043478201186724894,0.05,0.9999999999999086,110951.40024313563,1.231868274156511,248,2026-10-07 20:31:57.479244,101.6,0.008476351275044227,0.33105902658618014,0.3233576462577048
0612,cdot_cos,T,S-T,249,49,41605,-0.042939623146739186,-0.0031638450117000027,-0.04355122938570347,0.011834807494760027,819.0,7.966090948553276,0.623593682016513,9.840144876538389,-0.045643516709499656,0.21,0.9999999999999063,-156.9248385169736,1.2368357100236227,249,2026-10-07 20:31:57.689243,101.6,0.953667961215288,0.26507277908922916,0.08065723974158465
0612,cdot_cos,P,T-P,250,50,42004,0.020445811395025437,-8.453296637853344e-05,0.06338543454176462,0.9984060743553766,878.0,8.06048349542502,0.6247570185330381,9.878278410934715,-0.255827137387473,0.399,0.9999999999999065,-180.6731050666161,1.241803478833673,250,2026-10-07 20:31:58.088243,101.6,0.4397343260872228,0.14166959804825954,0.23657279917730192
0612,cdot_cos,Q,P-Q,251,50,42133,-0.012966671017331658,-0.01702383219210681,-0.03341248241235709,0.03246125604302445,878.0,8.079143287795787,0.6247948181013051,9.898614201518646,-0.050927349490794284,0.129,0.9999999999999036,5420.691221904611,1.2467707756736854,251,2026-10-07 20:31:58.217243,101.6,0.017892488766094693,0.44003988600479466,0.1446495532617647
0612,cdot_cos,R,Q-R,252,50,42164,0.05796384440092197,0.11285209055927131,0.07093051541825363,0.999258830942083,878.0,8.174013786014257,0.6259576607734609,9.936772530885598,-0.260422865821942,0.031,0.9999999999999037,-180.1580913286901,1.251737899973775,252,2026-10-07 20:31:58.248243,101.6,0.4473367406805623,1.7945482240771258,3.0603386522086895
0612,cdot_cos,S,R-S,253,50,42213,-0.0014030359420159086,-0.01858065312530751,-0.059366880342937876,0.0023957148133229235,878.0,8.19040527768857,0.625960446937774,9.956513142910485,-0.04530311175883706,0.049,0.9999999999999014,77210.00267510611,1.2567050574205292,253,2026-10-07 20:31:58.297244,101.6,0.008665078807826344,0.36356976468432617,0.33452023825127386
0612,cdot_cos,T,S-T,254,50,42423,-0.03300788145149028,0.004828449306522855,-0.03160484550947437,0.03875191689694864,878.0,8.20964362295332,0.6260055134154002,9.976888884910403,-0.05328448175715712,0.21,0.9999999999998995,-177.10214817566205,1.2616725043472226,254,2026-10-07 20:31:58.507244,101.6,0.8608905620731446,0.2722604639363252,0.09161116792738831
0612,cdot_cos,P,T-P,255,51,42882,0.02024657305216623,-1.3137052794910201e-05,0.05325445450365651,0.9955511575736186,839.0,8.304754672541826,0.6271625366070338,10.01498535891404,-0.2649340976163839,0.459,0.9999999999998992,-182.92599265914723,1.2666404058662613,255,2026-10-07 20:31:58.966244,101.6,0.4498340837973951,0.12364226900251554,0.20721361566123098
0612,cdot_cos,Q,P-Q,256,51,43012,-0.015136924228913775,-0.02195617484976365,-0.035383497281080006,0.026727702460441764,839.0,8.32314722589763,0.6271935793781511,10.035100169278753,-0.05158328531523488,0.13,0.9999999999998965,6872.801770655305,1.2716077098330056,256,2026-10-07 20:31:59.096244,101.6,0.015985943954797275,0.4391762992036013,0.1414811796600327
0612,cdot_cos,R,Q-R,257,51,43041,0.05324300707108728,0.13645978222739347,0.06837993130000106,0.9990397930159511,839.0,8.418940510334762,0.6283531558261379,10.073270316841525,-0.27016146232634,0.029,0.9999999999998961,-188.49828951820123,1.276574829160084,257,2026-10-07 20:31:59.125243,101.6,0.44527421375147264,1.939832783810384,3.3032167047286927
0612,cdot_cos,S,R-S,258,51,43092,-4.703663154465699e-05,-0.0211318634141439,-0.053290043702631934,0.004432856251403803,839.0,8.435657527358632,0.6283582977211563,10.092931679796711,-0.04746281810612018,0.051,0.9999999999998933,43310.616694159835,1.2815419903023881,258,2026-10-07 20:31:59.176243,101.6,0.009167732019772537,0.34791455368110136,0.32778464752686637
0612,cdot_cos,T,S-T,259,51,43322,-0.03409382141889353,-0.005050133306691099,-0.03404678478734887,0.030497056666317454,839.0,8.454427794810234,0.6283936720176253,10.113042006523017,-0.05340251861589484,0.23,0.9999999999998914,-167.91006755347738,1.2865094853130157,259,2026-10-07 20:31:59.406244,101.6,0.8947373202771854,0.2497482629110445,0.08160985848522674
0612,cdot_cos,P,T-P,260,52,43721,0.021381081851699707,-6.452832514184756e-05,0.055474903270593234,0.9964464566427181,858.0,8.550541728297713,0.6295487162621728,10.151171023943576,-0.2749584840964136,0.399,0.999999999999891,-191.81599884714194,1.29147730144225,260,2026-10-07 20:31:59.805243,101.6,0.4467394669065244,0.14417262647748844,0.24088705134706345
0612,cdot_cos,Q,P-Q,261,52,43851,-0.012417570960990729,-0.017364602117723876,-0.033798652812690434,0.031251334441819684,858.0,8.56947755073927,0.6295849177828329,10.171258727842295,-0.05453507694199613,0.13,0.9999999999998886,6088.788623662901,1.296444611123748,261,2026-10-07 20:31:59.935244,101.6,0.017564687453808115,0.444610463057272,0.14566017262736497
0612,cdot_cos,R,Q-R,262,52,43882,0.050212855573840816,0.14106753198674105,0.06263042653483154,0.9982792131211556,858.0,8.666140448692603,0.6307405554271538,10.209430920815064,-0.27990683559394103,0.031,0.9999999999998882,-195.0193988223525,1.301411733151528,262,2026-10-07 20:31:59.966244,101.6,0.447013250652634,1.8329479158005255,3.1181579984946217
0612,cdot_cos,S,R-S,263,52,43930,-0.0006322635738195725,-0.01603585371430904,-0.050845119147660385,0.005675730485127261,858.0,8.683120321518903,0.6307471215509531,10.229002493511459,-0.049492468514870616,0.048,0.9999999999998859,35091.38330624303,1.3063788888718246,263,2026-10-07 20:32:00.014244,101.6,0.009508738650400304,0.3635918457324065,0.35374735054790235
0612,cdot_cos,T,S-T,264,52,44160,-0.04013326761023451,-0.0028565083320494004,-0.03950100403641494,0.0177527607265931,858.0,8.701045265882914,0.6307676590044773,10.248764512230315,-0.05235104483667976,0.23,0.9999999999998833,-139.1884499433081,1.311346396478718,264,2026-10-07 20:32:00.244244,101.6,0.9468600326533466,0.25019464097078487,0.07793454071309437
0612,cdot_cos,P,T-P,265,53,44579,0.02121056125606066,1.993820060829162e-06,0.06134382886629517,0.9980393820117939,879.0,8.798209856365464,0.6319214868830987,10.2869397138752,-0.28528283312870695,0.419,0.9999999999998832,-201.87741396085576,1.3163142757683493,265,2026-10-07 20:32:00.663244,101.6,0.44197841455679643,0.13920176388634237,0.2318963973330533
0612,cdot_cos,Q,P-Q,266,53,44709,-0.011200715132222845,-0.014820809879961509,-0.032411276388283505,0.03581260712065468,879.0,8.81769634401967,0.6319628616794294,10.307005673133755,-0.05759254712789764,0.13,0.9999999999998802,5503.115572603504,1.3212815910821396,266,2026-10-07 20:32:00.793243,101.6,0.019188044159212048,0.4505885936281445,0.14989605887850443
0612,cdot_cos,R,Q-R,267,53,44740,0.060364903446933356,0.11784860326392713,0.0715656185791562,0.999305113458752,879.0,8.915362890708781,0.6331165874030149,10.345213625655362,-0.29019219301267274,0.031,0.9999999999998803,-201.6074021145233,1.3262487119608817,267,2026-10-07 20:32:00.824243,101.6,0.4486390830184555,1.84679865371764,3.1505337641649036
0612,cdot_cos,S,R-S,268,53,44789,-0.0012472193386798601,-0.01723515775621741,-0.06161212278561322,0.001907996588127908,879.0,8.932197860550163,0.6331187887847031,10.364604614351615,-0.05034385028712184,0.049,0.9999999999998777,108953.54677269419,1.331215869720232,268,2026-10-07 20:32:00.873244,101.6,0.008529680276940434,0.36550774531134966,0.3435708130894217
0612,cdot_cos,T,S-T,269,53,44999,-0.03592024063683957,0.0052140822717618215,-0.03467302129815971,0.028671003175067853,879.0,8.951182649749294,0.6331518677459106,10.384466096499269,-0.05688452446261987,0.21,0.9999999999998747,-197.7291286284611,1.3361833499493785,269,2026-10-07 20:32:01.083244,101.6,0.8913825367713921,0.27856795662066147,0.09040375809109812
0612,cdot_cos,P,T-P,270,54,45458,0.02195726892873167,-7.404461980601294e-05,0.05787750956557124,0.9972139901549031,819.0,9.04919640233084,0.634301613657025,10.422642473957046,-0.29521062507316076,0.459,0.9999999999998747,-207.28588665259474,1.3411513360898126,270,2026-10-07 20:32:01.542243,101.6,0.4460569333314596,0.12698578855271095,0.21353758732363226
0612,cdot_cos,Q,P-Q,271,54,45568,-0.015292818670272651,-0.017158185093567663,-0.03725008759900432,0.022213114066526898,819.0,9.067755603640682,0.6343272070818602,10.44234727680645,-0.056259379392526426,0.11,0.9999999999998714,9336.431025513659,1.3461186162505476,271,2026-10-07 20:32:01.652243,101.6,0.01430260017095306,0.5325437339279886,0.1687200119076496
0612,cdot_cos,R,Q-R,272,54,45617,0.061164121697221546,0.13501865041744465,0.0764569403674942,0.9995771309916381,819.0,9.166356023794998,0.6354781092036571,10.480577040586121,-0.3004222092718679,0.049,0.9999999999998714,-212.14908310198228,1.3510857729406935,272,2026-10-07 20:32:01.701244,101.6,0.44364424432773175,1.179268144208239,2.0122534725370618
0612,cdot_cos,S,R-S,273,54,45648,-0.002029350661089977,-0.017054832836610696,-0.06319347235831152,0.0016252666563628532,819.0,9.18332388177309,0.6354799792608725,10.499856033081256,-0.05202634477376828,0.031,0.9999999999998682,132827.9490331577,1.356052893394297,273,2026-10-07 20:32:01.732243,101.6,0.008442940082725302,0.5700092093629592,0.5473502573577876
0612,cdot_cos,T,S-T,274,54,45877,-0.04080706646497361,-0.0029303170098685665,-0.03877771580388363,0.019080642250529845,819.0,9.201696594775502,0.635501933440122,10.51943236357748,-0.05644091529046483,0.229,0.9999999999998657,-201.08110016498514,1.3610204242840362,274,2026-10-07 20:32:01.961244,101.6,0.9247648542815661,0.25632758619959506,0.08023018778345875
0612,cdot_cos,P,T-P,275,55,46277,0.0233190853240325,-0.00014054498663940225,0.0641261517890061,0.9985214548198951,838.0,9.300721916252504,0.6366500431134957,10.5576502261263,-0.30573495606558587,0.4,0.9999999999998652,-217.1343440061464,1.365988315712412,275,2026-10-07 20:32:02.361243,101.6,0.44246555227075546,0.14708595197682417,0.24756330369250623
0612,cdot_cos,Q,P-Q,276,55,46406,-0.014409587236179307,-0.020734893888043556,-0.037728672560211805,0.021181187781622035,838.0,9.319365356356961,0.6366743806427607,10.577232976396603,-0.05792495344714264,0.129,0.9999999999998623,10182.216934188087,1.3709556405205372,276,2026-10-07 20:32:02.490243,101.6,0.013868686640692678,0.4578657093627856,0.1445227915074174
0612,cdot_cos,R,Q-R,277,55,46435,0.05821963576775385,0.14726348231707,0.07262922300393315,0.9993762450697652,838.0,9.418851269268103,0.6378218828040375,10.615475570888158,-0.31063895153541576,0.029,0.9999999999998616,-220.2296488985133,1.3759227549450608,277,2026-10-07 20:32:02.519244,101.6,0.44329063999595275,2.0119446884275,3.430548721073856
0612,cdot_cos,S,R-S,278,55,46486,-9.770871217012571e-05,-0.01783743399593248,-0.058317344479923976,0.002664576005308225,838.0,9.436058148285756,0.6378249402266767,10.63467078979154,-0.0540618788233317,0.051,0.9999999999998586,83919.39976651933,1.3808899173487055,278,2026-10-07 20:32:02.570244,101.6,0.008686468367354143,0.3555698069598258,0.337389784659866
0612,cdot_cos,T,S-T,279,55,46696,-0.03600687202922282,0.0001291758624805346,-0.0359091633170527,0.025372956085032244,838.0,9.455119389578005,0.6378540534368493,10.65426701545699,-0.060001165580902766,0.21,0.9999999999998558,-204.00659090337697,1.3858574205101941,279,2026-10-07 20:32:02.780244,101.6,0.9057552167011429,0.2828694554202522,0.0907678156773765
0612,cdot_cos,P,T-P,280,56,47115,0.01924858050992708,-3.0625299979528663e-05,0.0552554525391499,0.9963666273861491,899.0,9.554863319562262,0.6389964938885726,10.692460341872778,-0.31551683393546887,0.419,0.9999999999998557,-223.65775648887293,1.3908253782826738,280,2026-10-07 20:32:03.199244,101.6,0.4449327526795941,0.14292923332606738,0.23805233886457483
0612,cdot_cos,Q,P-Q,281,56,47245,-0.013158415680715536,-0.016861485108872115,-0.03240699619064262,0.03582762617494023,899.0,9.57489408710525,0.6390375448866064,10.712225270417784,-0.06375877799565774,0.13,0.9999999999998523,6132.8120630052945,1.3957927112150976,281,2026-10-07 20:32:03.329243,101.6,0.019281633341812866,0.4628962297868219,0.1540828272537508
0612,cdot_cos,R,Q-R,282,56,47276,0.05188088273745903,0.12583413524395803,0.06503929841817456,0.9986522804644398,899.0,9.675216339306836,0.6401809731546755,10.750470691908468,-0.32089416722743785,0.031,0.9999999999998525,-224.88108472777006,1.4007598288550422,282,2026-10-07 20:32:03.360243,101.6,0.4487411703226304,1.9003128185540408,3.2362016839221317
0612,cdot_cos,S,R-S,283,56,47325,-0.0017543288423296716,-0.01632553095105456,-0.0536352115797887,0.004280748362999513,899.0,9.6927134818556,0.6401858710762437,10.769597334059041,-0.05630917590819222,0.049,0.9999999999998488,54019.85059056528,1.4057269872353255,283,2026-10-07 20:32:03.409244,101.6,0.009106289265613266,0.3827076121738946,0.3570845418115193
0612,cdot_cos,T,S-T,284,56,47554,-0.03450973443934233,0.0025600406303585683,-0.032755405597012656,0.03462471433242796,899.0,9.712721685299877,0.6402254867056013,10.789275729080243,-0.06451182961826223,0.229,0.9999999999998463,-207.0559989347587,1.4106945443637877,284,2026-10-07 20:32:03.638243,101.6,0.8806019195234711,0.26356067736988376,0.08737206744225863
0612,cdot_cos,P,T-P,285,57,48014,0.02320381243677331,-0.0001778088788750727,0.057713546876115636,0.9971673229468637,798.0,9.813424272091007,0.6413655671748418,10.827501074440177,-0.3262565336357579,0.46,0.9999999999998458,-229.58441187213717,1.4156626207182716,285,2026-10-07 20:32:04.098243,101.6,0.4483116903412541,0.1298738451061007,0.2189186669372381
0612,cdot_cos,Q,P-Q,286,57,48123,-0.01572246278130693,-0.018020871332592007,-0.03892627521808024,0.018800182260100783,798.0,9.83220562279749,0.6413870464927239,10.846843452041671,-0.06121861074453827,0.109,0.9999999999998425,12339.215069398739,1.4206299120619537,286,2026-10-07 20:32:04.207244,101.6,0.013175865870089865,0.5509177282900322,0.17230596978424884
0612,cdot_cos,R,Q-R,287,57,48154,0.08159521263974548,0.15418919461066177,0.09731767542105241,0.9999491955510021,798.0,9.933524336858234,0.6425286751375887,10.885130351499093,-0.33180328448597324,0.031,0.9999999999998422,-237.0163668882754,1.4255970283490076,287,2026-10-07 20:32:04.238244,101.6,0.4424192693998248,1.9133452268930617,3.268345614862706
0612,cdot_cos,S,R-S,288,57,48203,-0.0016086000220906795,-0.018878272179727214,-0.08320381266183616,0.00021310607847189122,798.0,9.95083302686486,0.6425289182661783,10.904081625256941,-0.05702350341582874,0.049,0.9999999999998384,1130182.927185407,1.4305641866948557,288,2026-10-07 20:32:04.287244,101.6,0.008077192229380208,0.37055305406562294,0.3532385715637946
0612,cdot_cos,T,S-T,289,57,48433,-0.03958682749970881,-0.006084467757844531,-0.03797822747761813,0.02066185141527805,798.0,9.969838536156665,0.6425524906231279,10.923396650805254,-0.06272618931968606,0.23,0.9999999999998354,-241.92260095366024,1.4355317590691452,289,2026-10-07 20:32:04.517244,101.6,0.913096275605447,0.2623560555772016,0.08263264909480483
0612,cdot_cos,P,T-P,290,58,48812,0.023194005568149614,-4.127474769810066e-05,0.06278083306785842,0.9983052648643583,839.0,10.071516812430373,0.6436905973979695,10.961660262863166,-0.33713523080942853,0.379,0.9999999999998346,-241.11010280905546,1.4404996783387545,290,2026-10-07 20:32:04.896243,101.6,0.4431072074877844,0.15946229958762953,0.26828041233168237
0612,cdot_cos,Q,P-Q,291,58,48942,-0.01426305262836655,-0.020734023476014392,-0.037457058196516166,0.021760947353573416,839.0,10.090710959244088,0.6437153877124236,10.980966426008946,-0.06402400165895361,0.13,0.9999999999998311,11016.852152313768,1.4454670233534155,291,2026-10-07 20:32:05.026243,101.6,0.014041147068181738,0.46668732907970173,0.1476472831824274
0612,cdot_cos,R,Q-R,292,58,48971,0.05759496666295294,0.15370197108641062,0.07185801929131949,0.9993254397412277,839.0,10.192855517991095,0.6448529988624643,11.019257418091048,-0.34227316752950476,0.029,0.9999999999998311,-244.59075129547875,1.4504341340443856,292,2026-10-07 20:32:05.055244,101.6,0.44355000866967914,2.0659539214615292,3.5222261636898926
0612,cdot_cos,S,R-S,293,58,49021,-6.37069410264573e-05,-0.016675917103174343,-0.057658673603979395,0.0028484685746605547,839.0,10.210536286688857,0.6448562391679256,11.03816534281333,-0.05959573067845853,0.05,0.9999999999998272,87237.89785520209,1.4554012951785602,293,2026-10-07 20:32:05.105243,101.6,0.008710293541047616,0.36441435732406546,0.3536153739552361
0612,cdot_cos,T,S-T,294,58,49232,-0.04068890546226448,0.0001549562877690616,-0.040625198521238026,0.015866990631023727,839.0,10.229296953723502,0.6448742885873527,11.05729524388443,-0.06334718712302807,0.211,0.999999999999824,-207.84360736392594,1.4603688363655454,294,2026-10-07 20:32:05.316243,101.6,0.9424988605161919,0.2874199374952849,0.08891311390826892
0612,cdot_cos,P,T-P,295,59,49651,0.020778561775722945,-0.00011147679310389224,0.061467467237987426,0.998063809195662,878.0,10.331827500311867,0.6460088011941872,11.09557015498023,-0.34775665749645235,0.419,0.9999999999998238,-250.68868222361886,1.4653368754941072,295,2026-10-07 20:32:05.735244,101.6,0.4413838048657345,0.14624619253589533,0.24470297515123024
0612,cdot_cos,Q,P-Q,296,59,49780,-0.013583892268540303,-0.018058540398554528,-0.034362454044263246,0.02956293043446893,878.0,10.351851263068582,0.646042380800734,11.11493816245326,-0.06831723381069746,0.129,0.9999999999998199,8321.700353965394,1.47030422428933,296,2026-10-07 20:32:05.864243,101.6,0.016733859273210035,0.47656635079884774,0.1552229671063163
0612,cdot_cos,R,Q-R,297,59,49812,0.04930806335237081,0.12888592366157559,0.06289195562091111,0.9983242590238207,878.0,10.45478161881797,0.647175498812038,11.153225393332727,-0.352752820677096,0.032,0.9999999999998196,-251.02026799403507,1.4752713410035103,297,2026-10-07 20:32:05.896243,101.6,0.44649318228208595,1.8909003812589698,3.2165736171683723
0612,cdot_cos,S,R-S,298,59,49860,-0.0012412487050661428,-0.016402768591267478,-0.05054931205743696,0.00584788538196129,878.0,10.472868887469156,0.6471821314200809,11.172100581133655,-0.06234693268543677,0.048,0.9999999999998164,43784.569525787054,1.480238497590305,298,2026-10-07 20:32:05.944243,101.6,0.009486346088015393,0.39840088760891473,0.37681809689971146
0612,cdot_cos,T,S-T,299,59,50090,-0.03535566756831483,0.0001456320579926039,-0.03411441886324869,0.03029453768329072,878.0,10.493028104028426,0.6472164902475439,11.191424138793073,-0.06961285917891923,0.23,0.9999999999998126,-211.47189907150826,1.485206097328144,299,2026-10-07 20:32:06.174243,101.6,0.9008863101194484,0.2683899742168558,0.08764876764899854
0612,cdot_cos,P,T-P,300,60,50529,0.021501662928680977,-5.812473209224096e-05,0.05685733049699581,0.9969106633792645,819.0,10.59632827560891,0.6483462946445722,11.229692125247206,-0.35828696681847727,0.439,0.9999999999998124,-255.50804050582792,1.4901742133462963,300,2026-10-07 20:32:06.613244,101.6,0.44677220839026033,0.1406302923093402,0.23530790792820955
0612,cdot_cos,Q,P-Q,301,60,50639,-0.012944506362557995,-0.014515315349212382,-0.034446169291238976,0.029319891276285055,819.0,10.616501500676026,0.6483794979819153,11.248968919024792,-0.07037557024643432,0.11,0.999999999999808,8671.158371722227,1.4951415211395391,301,2026-10-07 20:32:06.723244,101.6,0.016721329210432026,0.5639619045344026,0.18339295515560652
0612,cdot_cos,R,Q-R,302,60,50689,0.06208371702249871,0.1409077101871005,0.0750282233850567,0.9995111019190133,819.0,10.720399894606478,0.6495105352589629,11.28729477121199,-0.3640371930943102,0.05,0.9999999999998077,-259.6392080148295,1.500108681528467,302,2026-10-07 20:32:06.773243,101.6,0.4463373269073624,1.2180059071343408,2.077967878609037
0612,cdot_cos,S,R-S,303,60,50738,0.0006419833820618975,-0.018977816062968746,-0.06144173364043681,0.0019412498236216808,819.0,10.73830209138946,0.6495127303296278,11.306005113498198,-0.06308327510546707,0.049,0.9999999999998044,137104.43258209093,1.5050758405246554,303,2026-10-07 20:32:06.822243,101.6,0.008474105104271231,0.3763315218235171,0.3653509547547391
0612,cdot_cos,T,S-T,304,60,50948,-0.0407482659136739,-0.0029619463573953924,-0.041390249295735794,0.014697818029546374,819.0,10.757280383745183,0.6495293497003655,11.32493629099001,-0.06698866405942337,0.21,0.9999999999998005,-234.990181974455,1.5100434036156012,304,2026-10-07 20:32:07.032243,101.6,0.9433676013002812,0.29344920969830807,0.09037282074153552
0612,cdot_cos,P,T-P,305,61,51348,0.021467319805977794,-0.00011634294935943405,0.06221558571965169,0.99820526850479,878.0,10.86155075946275,0.6506572067821943,11.363244775324281,-0.3696081867797235,0.4,0.9999999999998002,-268.3137142071224,1.515011450361144,305,2026-10-07 20:32:07.432243,101.6,0.44097917399794057,0.1556342832742441,0.2606759392939173
0612,cdot_cos,Q,P-Q,306,61,51477,-0.013394684184051191,-0.01771733300207102,-0.034862003990028985,0.028141096793085556,878.0,10.881787810364578,0.6506889786276242,11.382413725886135,-0.07214458073087238,0.129,0.999999999999796,9362.490658753224,1.51997881150066,306,2026-10-07 20:32:07.561243,101.6,0.016193272546348246,0.484214064237123,0.15687636358006488
0612,cdot_cos,R,Q-R,307,61,51507,0.05250166607296101,0.13027772705661236,0.0658963502570122,0.9987645319810171,878.0,10.986477988035928,0.6518157348148786,11.420739661490394,-0.3747992018428109,0.03,0.9999999999997958,-268.607019455926,1.5249459208927083,307,2026-10-07 20:32:07.591244,101.6,0.44596652711459883,2.0489870933124266,3.4896725890449787
0612,cdot_cos,S,R-S,308,61,51557,-0.001208912402216689,-0.015779371662312882,-0.0537105784751777,0.00424823338810936,878.0,11.004727035963324,0.6518205238441587,11.439409134263832,-0.06569994068064565,0.05,0.9999999999997919,64543.19718846345,1.5299130829056808,308,2026-10-07 20:32:07.641243,101.6,0.009052526226096251,0.3798694213960552,0.36498095854792467
0612,cdot_cos,T,S-T,309,61,51767,-0.03873239627730825,0.005730072159334952,-0.03752348387509156,0.02161774458855345,878.0,11.024464930175533,0.6518448930308006,11.458392929017547,-0.07118048587091184,0.21,0.9999999999997878,-224.8965166868635,1.5348806586073402,309,2026-10-07 20:32:07.851244,101.6,0.925894435190734,0.29716844192117536,0.09398997243909184
0612,cdot_cos,P,T-P,310,62,52226,0.020728164129293396,-7.56561090677501e-05,0.059460560406601644,0.9976269253220916,878.0,11.129537781570217,0.6529686287511575,11.496704511973924,-0.38049431107348225,0.459,0.9999999999997877,-275.2549550568235,1.5398488861247672,310,2026-10-07 20:32:08.310244,101.6,0.44355818939283415,0.1367747636420853,0.22891688757011844
0612,cdot_cos,Q,P-Q,311,62,52336,-0.013793768793955294,-0.01381153485603749,-0.03452193292324869,0.02910160813547071,878.0,11.150024163198967,0.6530013835526829,11.51581046487442,-0.07460333991782178,0.11,0.9999999999997831,9338.81314830188,1.5448162034610378,311,2026-10-07 20:32:08.420243,101.6,0.016568837756917674,0.5732159638081572,0.1862398329886358
0612,cdot_cos,R,Q-R,312,62,52385,0.06546794366222773,0.12047332357962139,0.07926171245618302,0.9996819519494329,878.0,11.255645293608012,0.6541256765726983,11.554168764764656,-0.38621811613577794,0.049,0.999999999999783,-277.1650901236533,1.5497833617081176,312,2026-10-07 20:32:08.469243,101.6,0.4462677149734834,1.2626978110585838,2.155533273653972
0612,cdot_cos,S,R-S,313,62,52435,-0.0012603663095243425,-0.01707104785784282,-0.06672830997175208,0.0011354430165534798,878.0,11.273768548682709,0.6541269525737143,11.572692825322537,-0.06663607408502698,0.05,0.9999999999997788,250455.94637133487,1.5547505237422328,313,2026-10-07 20:32:08.519244,101.6,0.008263298561175041,0.3930620351635383,0.36246510149393174
0612,cdot_cos,T,S-T,314,62,52626,-0.03355592853254212,0.00990015993157061,-0.03229556222301778,0.03622078468960347,878.0,11.294951497124366,0.6541676560132847,11.591886082702953,-0.07801758970352711,0.191,0.9999999999997746,-279.62048757112547,1.5597180612119492,314,2026-10-07 20:32:08.710243,101.6,0.8642579782978876,0.3325749596311773,0.11090548922333636
0612,cdot_cos,P,T-P,315,63,53104,0.023426950258532295,8.69536675974924e-07,0.056982878791074415,0.996949700347513,819.0,11.400812183261818,0.6552870994151486,11.63019803187558,-0.3914831217384631,0.478,0.9999999999997743,-280.01909834210096,1.564686371472738,315,2026-10-07 20:32:09.188244,101.6,0.4490088132122322,0.1316312405214466,0.2214658705804445
0612,cdot_cos,Q,P-Q,316,63,53214,-0.014165510495288632,-0.016020634686386436,-0.03759246075382093,0.021470017249676957,819.0,11.420790963062869,0.6553111885326729,11.649072441742671,-0.07429069189204142,0.11,0.99999999999977,13167.457443254529,1.5696536934492493,316,2026-10-07 20:32:09.298244,101.6,0.013987209089602421,0.5747197514702116,0.18162527091864045
0612,cdot_cos,R,Q-R,317,63,53263,0.0630560789605587,0.14035478720159233,0.07722158945584734,0.9996087269242737,819.0,11.527250528585265,0.6564318531860175,11.687442846139255,-0.3974451762423538,0.049,0.9999999999997694,-288.3596652985051,1.5746208516392033,317,2026-10-07 20:32:09.347244,101.6,0.4434902785662235,1.2729374415635941,2.172644194334614
0612,cdot_cos,S,R-S,318,63,53294,-0.0018643851918639844,-0.016273742610777808,-0.06492046415242268,0.0013640676054466152,819.0,11.545538832336101,0.6564333812604485,11.7058900354575,-0.06864670373174961,0.031,0.9999999999997655,215171.76509368684,1.5795879617049151,318,2026-10-07 20:32:09.378243,101.6,0.008314787289797421,0.6262045592157036,0.5899452822850362
0612,cdot_cos,T,S-T,319,63,53504,-0.03713710517326033,0.0028944913310954105,-0.03527271998139635,0.027022046597008877,819.0,11.566075211256639,0.6564636515985958,11.724821716147513,-0.07721150970103773,0.21,0.9999999999997606,-282.9438484503941,1.5845555622631005,319,2026-10-07 20:32:09.588243,101.6,0.8950044894875228,0.30307058068775716,0.0977922805739881
0612,cdot_cos,P,T-P,320,64,53923,0.022065092251783325,-6.806847901069797e-05,0.05920219742504366,0.9975639618504017,839.0,11.672828476224959,0.657580240241687,11.763159009780752,-0.40294776128593723,0.419,0.9999999999997605,-291.72448922917437,1.5895237428640638,320,2026-10-07 20:32:10.007244,101.6,0.4455778382297682,0.15212527633759948,0.25478106197689854
0612,cdot_cos,Q,P-Q,321,64,54052,-0.01280491168636201,-0.018460313238744724,-0.034870003938145336,0.028118876050856768,839.0,11.693556192827547,0.6576116889277832,11.782088226337274,-0.07866398723089851,0.129,0.9999999999997562,10311.52058510128,1.5944911227517031,321,2026-10-07 20:32:10.136243,101.6,0.01620570762371225,0.49620031318218305,0.1606799736634719
0612,cdot_cos,R,Q-R,322,64,54083,0.06295028023388541,0.15564651458404546,0.07575519192024742,0.9995458948175797,839.0,11.800848157025962,0.6587286990891803,11.820470177750343,-0.4087731414649238,0.031,0.9999999999997558,-295.529231194409,1.5994582308611214,322,2026-10-07 20:32:10.167244,101.6,0.4459445003776184,2.028219378032841,3.461031103174689
0612,cdot_cos,S,R-S,323,64,54132,-7.61444312883495e-05,-0.01762085866511979,-0.06302642466517376,0.0016530401786443304,839.0,11.819305794265583,0.6587305449363126,11.838843885139351,-0.07069823841216305,0.049,0.9999999999997512,183154.33447623192,1.604425390638381,323,2026-10-07 20:32:10.216243,101.6,0.008379706504233387,0.39189549327964085,0.37668647427797536
0612,cdot_cos,T,S-T,324,64,54343,-0.039091060282511,0.0001786567916665612,-0.039014915851222645,0.018634770970635726,839.0,11.839253915367367,0.658751352892938,11.857530652342218,-0.07652921910803172,0.211,0.9999999999997468,-280.2284145839877,1.6093930068341644,324,2026-10-07 20:32:10.427244,101.6,0.92663747053263,0.30223872571751026,0.09454085830229389
0612,cdot_cos,P,T-P,325,65,54762,0.02065118531622929,-0.00012692611525006936,0.059742245598740286,0.997693723806389,858.0,11.946850536518372,0.6598645032002155,11.895882883154242,-0.41435543584998447,0.419,0.9999999999997464,-303.48661320337027,1.6143612165582906,325,2026-10-07 20:32:10.846244,101.6,0.4425041740949218,0.15364015632311354,0.2567938452291297
0612,cdot_cos,Q,P-Q,326,65,54891,-0.013203237823023524,-0.018318560482277504,-0.03385442313925281,0.031080244909199493,858.0,11.968004366366136,0.6598991519023913,11.914795956938027,-0.08190050049779138,0.129,0.9999999999997415,9595.018412665837,1.6193286029430407,326,2026-10-07 20:32:10.975244,101.6,0.01726189145167928,0.5004000327073195,0.16398317711444818
0612,cdot_cos,R,Q-R,327,65,54922,0.046213478565418444,0.13032325483138327,0.05941671638844197,0.997616356011126,858.0,12.07595374495686,0.6610103986842895,11.95315105360215,-0.4195320374757745,0.031,0.9999999999997413,-303.8312843536674,1.6242957098993518,327,2026-10-07 20:32:11.006243,101.6,0.4471857170162085,2.0509327552391903,3.482238019055633
0612,cdot_cos,S,R-S,328,65,54971,-0.00071774671396629,-0.017107948512674054,-0.04693122527938473,0.008423986078366634,858.0,12.095162197190966,0.661019774647983,11.971583891320986,-0.07504511434552859,0.049,0.9999999999997368,36741.494996116395,1.6292628699507274,328,2026-10-07 20:32:11.055244,101.6,0.010148821000021839,0.4054068913286689,0.39200922926745235
0612,cdot_cos,T,S-T,329,65,55201,-0.037494091668195076,-0.002559871246083618,-0.03677634495422879,0.02328292768316601,858.0,12.11568362030707,0.6610456880750155,11.990289398468175,-0.0803035226241267,0.23,0.9999999999997323,-202.92214812040552,1.6342305541892421,329,2026-10-07 20:32:11.285243,101.6,0.9366162204892371,0.2801891728675118,0.08922357876567125
0612,cdot_cos,P,T-P,330,66,55620,0.019813490798516263,-4.117454544682362e-05,0.05730758246671134,0.9970483954691246,859.0,12.224049216710021,0.6621544754741984,12.028640098794591,-0.4256269035413133,0.419,0.9999999999997319,-311.44237495094245,1.6391987933144998,330,2026-10-07 20:32:11.704243,101.6,0.4442673146748199,0.15688872802955492,0.2586291083602651
0612,cdot_cos,Q,P-Q,331,66,55769,-0.00898390074376053,-0.017088470488075692,-0.02879739154227679,0.05089209057421645,859.0,12.247156374395837,0.6622110233780646,12.047880502875083,-0.09124062847498088,0.149,0.9999999999997272,5913.327501182105,1.6441662448674084,331,2026-10-07 20:32:11.853244,101.6,0.025607153995766928,0.4415019006841753,0.15508159520681847
0612,cdot_cos,R,Q-R,332,66,55801,0.04151940778404102,0.13109110454419318,0.05050330852780155,0.9941248788272654,859.0,12.355616783113906,0.6633146972139844,12.086175927847135,-0.42987621880656934,0.032,0.9999999999997263,-306.82578431277983,1.6491333533020873,332,2026-10-07 20:32:11.885243,101.6,0.4548664619412262,2.0100050792229984,3.3893877724396337
0612,cdot_cos,S,R-S,333,66,55849,0.0018737305664127898,-0.01768912201003329,-0.03964567721762823,0.017498257627640415,859.0,12.37579669946611,0.6633341078137569,12.104718519031795,-0.08039782004054581,0.048,0.9999999999997211,18004.51314549399,1.6541005103542648,333,2026-10-07 20:32:11.933243,101.6,0.0129473504030691,0.4197289720711354,0.4204149240042421
0612,cdot_cos,T,S-T,334,66,56059,-0.03804517990742604,-0.002578267686157977,-0.03991891047383883,0.0170273352344525,859.0,12.395910764432735,0.663352995496105,12.12322533511874,-0.08026380884512758,0.21,0.9999999999997164,7.0951635541130935,1.659068149640959,334,2026-10-07 20:32:12.143244,101.6,0.9983317589241189,0.30801283408901725,0.09578126174583514
0612,cdot_cos,P,T-P,335,67,56479,0.021893023336878356,-0.00017145642640491288,0.0599382032443044,0.997739083294546,858.0,12.505162089783497,0.6644588312660159,12.16160050169834,-0.4375251298221132,0.42,0.9999999999997169,-323.06905844236263,1.6640364217257912,335,2026-10-07 20:32:12.563244,101.6,0.4419535898454041,0.15520319286762405,0.2601222032160997
0612,cdot_cos,Q,P-Q,336,67,56588,-0.013348224967133438,-0.013725856059275777,-0.03524124830401179,0.02710624265761311,858.0,12.526281446441539,0.6644888491538389,12.180289042710015,-0.08501699490222894,0.109,0.9999999999997115,11743.269113361186,1.6690037608230543,336,2026-10-07 20:32:12.672243,101.6,0.015822449198419918,0.6004734745340374,0.19375556567011304
