record_id,input,event,transition,event_index,k,peak,value_cos,value_sin,value_return,x_input,rr,knowledge,decision,decision_norm,entropy,delta_t,cosine_similarity,delta_h_over_delta_d,frobenius_norm,matrix_size,timestamp,scale,P,zdot,zdot_back
0188,cdot_cos,Q,P-Q,1,0,1139,-0.027898035286887078,-0.021450299780670683,-0.04475793576626381,0.2462063977332672,999.0,0.001222942023160265,0.5003057354676855,0.5003057354676855,,,1.0,,0.004967141530112327,1,2026-10-08 02:01:17.223244,25.0,,,
0188,cdot_cos,R,Q-R,2,0,1194,0.032535173602693625,0.0773553193396781,0.0604332088895807,0.8191842131487442,999.0,0.007483941732567927,0.5013229833997989,0.7089777622533375,-9.830779186334556e-06,,1.0000000000000002,,0.009934283060224654,2,2026-10-08 02:01:17.278244,25.0,,,
0188,cdot_cos,S,R-S,3,0,1216,-0.0030817416749799836,-0.012995297780124641,-0.035616915277673605,0.2910225671555283,999.0,0.011669685783776845,0.5016843676854984,0.868942814194349,-1.4457837177274421e-05,0.022,1.0,-0.012803705567836643,0.014901424593444847,3,2026-10-08 02:01:17.300243,25.0,0.7261214089590289,0.1793577482978215,0.19026109323676899
0188,cdot_cos,T,S-T,4,0,1468,-0.06073833267962602,0.0062629688303014,-0.05765659100464604,0.19132635813351986,999.0,0.015375682657672073,0.5019219508659142,1.0038439017322904,-1.8074907601008797e-05,0.252,0.9999999999999999,-0.015224438099550534,0.019868566182555978,4,2026-10-08 02:01:17.552243,25.0,0.8186361384454873,0.030323916405029138,0.014706336801171541
0188,cdot_cos,P,T-P,5,1,2007,0.018563447067745584,-0.00034605451646440845,0.0793017797473716,0.8789521453517584,1018.0,0.02695293965191153,0.5030133937728907,1.1247721420796486,-8.837075890573622e-05,0.539,1.0,-0.06440634764805109,0.02483570796094903,5,2026-10-08 02:01:18.091244,25.0,0.45137127000340554,0.017410272050518805,0.021479140991167822
0188,cdot_cos,Q,P-Q,6,1,2137,-0.0010876522488841305,-0.0011190489363144813,-0.019651099316629714,0.37959267153674275,1018.0,0.034143955928131346,0.5034847464647061,1.2332807221632658,-7.922693801738577e-05,0.13,1.0000000000000002,0.019399106119735835,0.029802849559899,6,2026-10-08 02:01:18.221244,25.0,0.8909980599342819,0.07635885571260913,0.0553155098170755
0188,cdot_cos,R,Q-R,7,1,2182,0.04400447434823512,0.08127140242431458,0.04509212659711925,0.7553408644154006,1018.0,0.0468062421371899,0.5044226587852741,1.3345769108849157,-0.00018483346837316488,0.045,0.9999999999999999,-0.11259744438778382,0.034769991100125186,7,2026-10-08 02:01:18.266243,25.0,0.5647566028338262,0.21439880904658212,0.2813841379790791
0188,cdot_cos,S,R-S,8,1,2201,-0.0016348553687424638,-0.004196084940322764,-0.04563932971697759,0.24213988215285803,1018.0,0.053439848742323735,0.5047233193903566,1.427573127139395,-0.00011991208467949948,0.019,0.9999999999999998,0.21592913270381037,0.03973713261930557,8,2026-10-08 02:01:18.285243,25.0,0.5819282146432113,0.26852837602415514,0.3491371897438859
0188,cdot_cos,T,S-T,9,1,2486,-0.15329271074398518,-0.011772661669555129,-0.1516578553752427,0.02206509016562538,1018.0,0.0570103204261078,0.5047507170374202,1.5142521512016192,-7.111108774590241e-05,0.285,1.0,1.7812112412534973,0.04470427472528341,9,2026-10-08 02:01:18.570244,25.0,0.5034533387674878,0.03885801904487074,0.012527970820294958
0188,cdot_cos,P,T-P,10,2,3025,0.018239268835759194,-0.0006868358586594014,0.17153197957974436,0.9864576621132064,994.0,0.07558891959790005,0.5059755441939339,1.6000351602616167,-0.0004441979172603991,0.539,1.0,-0.30460365573250436,0.049671417678006015,10,2026-10-08 02:01:19.109244,25.0,0.43174883790167023,0.026453974597350032,0.03446864410351067
0188,cdot_cos,Q,P-Q,11,2,3148,-0.0014539903210447657,-0.001478995515731534,-0.01969325915680396,0.37934448481047556,994.0,0.08552770504205114,0.5064465359062142,1.6796931366038144,-0.00028872608550909796,0.123,0.9999999999999998,0.33009462310612814,0.05463855946871794,11,2026-10-08 02:01:19.232243,25.0,0.5836375145844704,0.10947108670666657,0.08080313369228523
0188,cdot_cos,R,Q-R,12,2,3195,0.04608055005977552,0.08503718622825991,0.047534540380820285,0.7664482514548084,994.0,0.10251880692774003,0.5073981174249749,1.757678638833551,-0.0005760713653619424,0.047,1.0,-0.30196601571990767,0.05960570100788474,12,2026-10-08 02:01:19.279244,25.0,0.6072580027775862,0.26986226499307503,0.36151280607848707
0188,cdot_cos,S,R-S,13,2,3216,-0.001366001953369124,-0.003566661559490745,-0.04744655201314465,0.23394573897578186,994.0,0.11089475795140019,0.5076885616933053,1.8304971419383846,-0.0003222834454444691,0.021,0.9999999999999998,0.8737921439327953,0.06457284245741628,13,2026-10-08 02:01:19.300243,25.0,0.4549953585250961,0.3498857266808155,0.39885481065048395
0188,cdot_cos,T,S-T,14,2,3503,-0.0830818736242119,0.02273588983141494,-0.08171587167084278,0.11477209098004128,994.0,0.11721400744833428,0.5078310496695557,1.9001297990292567,-0.000259887554429887,0.287,0.9999999999999998,0.43790285086889535,0.06953998559552596,14,2026-10-08 02:01:19.587244,25.0,0.7865586171124497,0.04909809347954929,0.02201829093008394
0188,cdot_cos,P,T-P,15,3,4019,0.016057408233768736,-5.225605277574736e-05,0.09913928185798064,0.9226194964659449,999.0,0.13907706360866148,0.5089764209236148,1.9712572032538258,-0.0010101570535729098,0.516,0.9999999999999998,-0.6550448131853508,0.07450713064633888,15,2026-10-08 02:01:20.103244,25.0,0.4758152665893448,0.03314100122563797,0.0423702638766031
0188,cdot_cos,Q,P-Q,16,3,4170,-0.0015931995603437926,-0.0021890861087622694,-0.017650607794112528,0.39143953997300546,999.0,0.15141552071319267,0.5094623395215497,2.037849360705914,-0.0006461374154211215,0.151,0.9999999999999997,0.7491370770718241,0.07947427304721622,16,2026-10-08 02:01:20.254244,25.0,0.5692827456021445,0.1057527958741779,0.08171163645384892
0188,cdot_cos,R,Q-R,17,3,4196,0.03807707267534023,0.07613215862390539,0.03967027223568403,0.7294347847186518,999.0,0.1710144079626632,0.510367784535031,2.1043002865951603,-0.0011391070573227445,0.026,0.9999999999999996,-0.5444501152049774,0.08444141434413655,17,2026-10-08 02:01:20.280244,25.0,0.6487106569958119,0.5814078985687922,0.7538033557488668
0188,cdot_cos,S,R-S,18,3,4214,-0.0018385843506611586,-0.005280570245327345,-0.03991565702600139,0.2693561941746982,999.0,0.18164873143876986,0.5107021186166931,2.1667255905043517,-0.0006760136635451965,0.018,0.9999999999999994,1.3851217066332038,0.08940855562420491,18,2026-10-08 02:01:20.298244,25.0,0.5040723080217162,0.5232809356291569,0.590795748672592
0188,cdot_cos,T,S-T,19,3,4519,-0.07153499659321265,0.010236855420717414,-0.06969641224255149,0.14900703958198855,999.0,0.18985252164531286,0.5108870671348289,2.226905100270944,-0.0005493554371421923,0.305,0.9999999999999994,0.684829636266789,0.09437570052991266,19,2026-10-08 02:01:20.603244,25.0,0.7940904696210032,0.054742428354335175,0.026897672808337686
0188,cdot_cos,P,T-P,20,4,5018,0.021954651865961156,-0.00027400419751967656,0.0934896484591738,0.9119147337093639,1003.0,0.21504161273491432,0.5120188748853616,2.2898180245917787,-0.0018381778155447826,0.499,0.9999999999999992,-1.1387290622422548,0.09934284850952653,20,2026-10-08 02:01:21.102243,25.0,0.4960188755792225,0.037775867247618486,0.05047914046012317
0188,cdot_cos,Q,P-Q,21,4,5153,-0.008870112634434475,-0.007005747430422247,-0.030824764500395632,0.316345195014333,1003.0,0.2275528371584361,0.5124114732450303,2.348164370410229,-0.0009979818534695973,0.135,0.9999999999999988,2.1400903528584956,0.10430999135987146,21,2026-10-08 02:01:21.237243,25.0,0.430893193881472,0.13417312370019893,0.09267573647053176
0188,cdot_cos,R,Q-R,22,4,5194,0.04366494273708919,0.08494226843042,0.05253505537152366,0.7880775986721614,1003.0,0.25126835613396803,0.5133894447174034,2.408009950503908,-0.002046345690828677,0.041,0.9999999999999987,-1.0719779328686976,0.10927713275423423,22,2026-10-08 02:01:21.278244,25.0,0.5991098954420174,0.4283039566381993,0.5784272920861445
0188,cdot_cos,S,R-S,23,4,5213,-0.002065325501070705,-0.005808226410810731,-0.04573026823815989,0.2417229277493716,1003.0,0.26267376160276845,0.5136893926044599,2.463567790463859,-0.001056291591531991,0.019,0.9999999999999983,3.3007537042938244,0.1142442738325534,23,2026-10-08 02:01:21.297244,25.0,0.391686925632361,0.45410196281169796,0.600284498357917
0188,cdot_cos,T,S-T,24,4,5480,-0.19360139557489286,-0.021311144260439216,-0.19153607007382217,0.00825700756531443,1003.0,0.26852423072081255,0.5136996383440536,2.5166039982109396,-0.0005600225464249195,0.267,0.999999999999998,48.43662485920613,0.11921142003530838,24,2026-10-08 02:01:21.564243,25.0,0.4122360959511886,0.06759420980351132,0.021911869355970406
0188,cdot_cos,P,T-P,25,5,6021,0.01689894487331007,0.0012405988982411528,0.21050034044820293,0.9948444290852224,1018.0,0.2987690696378435,0.5149340081113948,2.574670051166271,-0.0030914047935210022,0.541,0.9999999999999977,-2.050748741642239,0.12417857272255164,25,2026-10-08 02:01:22.105243,25.0,0.4409405201593417,0.040032250050750305,0.05590543237898511
0188,cdot_cos,Q,P-Q,26,5,6151,-0.020398785905290144,-0.013166927672814646,-0.03729773077860021,0.2824292911074701,1018.0,0.3118391252757244,0.5152844044045912,2.627445248825096,-0.0014378666134302592,0.13,0.9999999999999968,4.719051577305706,0.1291457161745415,26,2026-10-08 02:01:22.235244,25.0,0.31663862475609583,0.15394290904406893,0.10053888952216064
0188,cdot_cos,R,Q-R,27,5,6206,0.038705167682433504,0.08541290560561805,0.05910395358772365,0.8142096256502,1018.0,0.3387942259893014,0.5162944694026652,2.6827447749538464,-0.0031593689762280924,0.055,0.9999999999999964,-1.7043481024294729,0.13411285786012825,27,2026-10-08 02:01:22.290244,25.0,0.5799067072158364,0.36574313105568773,0.4900927402468553
0188,cdot_cos,S,R-S,28,5,6228,-0.0013648586392209989,-0.004468204626187579,-0.0400700263216545,0.26859736037015425,1018.0,0.35207086969185003,0.5166276481532569,2.733736572203533,-0.0016522872266343158,0.022,0.9999999999999957,4.523342941040995,0.13907999874026206,28,2026-10-08 02:01:22.312243,25.0,0.40167237840340764,0.4709319621068452,0.6034838046613004
0188,cdot_cos,T,S-T,29,5,6500,-0.12326035839831989,0.016005317617000244,-0.1218954997590989,0.045330396925871666,1018.0,0.3595152323220026,0.5166838763141616,2.7824278444962083,-0.0009542358170804053,0.272,0.9999999999999953,12.414622821069976,0.14404714733862864,29,2026-10-08 02:01:22.584243,25.0,0.4811725950051841,0.07356011389713711,0.027368980257913893
0188,cdot_cos,P,T-P,30,6,7039,0.01766101763183021,3.8396210688565325e-05,0.1409213760301501,0.9713361096237455,1018.0,0.3920875716518926,0.5178886250010205,2.836592843081477,-0.0044092592619112535,0.539,0.999999999999995,-2.8678374855414104,0.14901430518854825,30,2026-10-08 02:01:23.123244,25.0,0.45676618685850306,0.04597486214342602,0.060431056270667916
0188,cdot_cos,Q,P-Q,31,6,7190,-0.0019327377743421478,-0.0025670830092178482,-0.019593755406172357,0.3799303450145411,1018.0,0.40907613371261586,0.5183597970046078,2.8861052341915077,-0.0024511871570971114,0.151,0.9999999999999938,4.155747985674846,0.15398145028704086,31,2026-10-08 02:01:23.274244,25.0,0.44985677272046487,0.14712512478586373,0.11250703351472348
0188,cdot_cos,R,Q-R,32,6,7218,0.04068485784711266,0.07999930341460543,0.04261759562145481,0.7437287422535794,1018.0,0.43651935933722347,0.5192820396346244,2.937502844207277,-0.0041786501201126584,0.028,0.9999999999999927,-1.873111160546147,0.1589485909504832,32,2026-10-08 02:01:23.302243,25.0,0.6613962457881997,0.7430241658559112,0.980115200878843
0188,cdot_cos,S,R-S,33,6,7238,-0.0013060888599180308,-0.0036724018892586295,-0.04199094670703069,0.25926856520486347,1018.0,0.4506854870005469,0.519603508712898,2.9848949388586132,-0.002263036203042583,0.02,0.9999999999999921,5.95893678906147,0.1639157314402166,33,2026-10-08 02:01:23.322243,25.0,0.4289222670240897,0.6702995321916912,0.7083063831661712
0188,cdot_cos,T,S-T,34,6,7518,-0.05610832642702205,0.010620013137598344,-0.05480223756710402,0.2026108087657711,1018.0,0.4633313406248911,0.5198547161205789,3.0312478736792166,-0.0020811411705489147,0.28,0.9999999999999913,0.7240830761038256,0.16888288327166814,34,2026-10-08 02:01:23.602243,25.0,0.9163090477148579,0.08012560383098158,0.04516376294408652
0188,cdot_cos,P,T-P,35,7,8057,0.01867279972153958,-0.0003068373874108615,0.07478112614856162,0.866403671479593,999.0,0.4955558251458966,0.5209288135991362,3.0818564602886114,-0.005562582415529858,0.539,0.9999999999999908,-3.2412712202405896,0.1738500476630524,35,2026-10-08 02:01:24.141243,25.0,0.5347971276153608,0.04493198684963186,0.05978568556772812
0188,cdot_cos,Q,P-Q,36,7,8188,-0.01368549673072286,-0.012017089345548753,-0.03235829645226244,0.30811270951632613,999.0,0.5117680224487943,0.5213107407944072,3.1278644952333483,-0.002939719511980859,0.131,0.9999999999999887,6.8674421094526314,0.1788171930801974,36,2026-10-08 02:01:24.272243,25.0,0.40974700927145474,0.18099984136147007,0.1237572313198297
0188,cdot_cos,R,Q-R,37,7,8226,0.04159600749620767,0.07617041583574718,0.05528150422693053,0.7993180492890621,999.0,0.5429777835826017,0.5223014340252131,3.1770356457852706,-0.005924585215871383,0.038,0.9999999999999877,-3.0129061258068472,0.18378433397416835,37,2026-10-08 02:01:24.310244,25.0,0.6042241310686821,0.6056769778095784,0.8213095035212492
0188,cdot_cos,S,R-S,38,7,8248,-0.003201702009918776,-0.008293318954607758,-0.044797709506126444,0.24602190528289541,999.0,0.5577994727623222,0.5226063243045991,3.2215617973714137,-0.002936249898356417,0.022,0.9999999999999861,9.801346646844156,0.1887514741790971,38,2026-10-08 02:01:24.332243,25.0,0.36141125608003394,0.5536560268023895,0.6737131445327494
0188,cdot_cos,T,S-T,39,7,8537,-0.10518791085678797,0.017793282615568715,-0.1019862088468692,0.07244965132476648,999.0,0.5673386487619069,0.5226961065823122,3.2642361931804666,-0.0019315479173725137,0.289,0.9999999999999847,11.190426513723237,0.19371862979481644,39,2026-10-08 02:01:24.621243,25.0,0.5944291202398362,0.08145541400744538,0.0330075294103275
0188,cdot_cos,P,T-P,40,8,9056,0.027447384958868358,-0.0010110235303790267,0.13263529581565633,0.9649696694003281,999.0,0.6048807020586257,0.5238917904395543,3.3133826732332836,-0.007918058643938582,0.519,0.9999999999999838,-5.006767207156848,0.1986858000236735,40,2026-10-08 02:01:25.140243,25.0,0.46951365720115684,0.05355041664239233,0.07233536280677992
0188,cdot_cos,Q,P-Q,41,8,9187,-0.0006915704689837695,-0.0007346085534666715,-0.02813895542785213,0.3310424731675064,999.0,0.6229239812367101,0.5243019193236174,3.35717040705636,-0.003985677398034821,0.131,0.9999999999999807,9.588159719320453,0.20365294667446507,41,2026-10-08 02:01:25.271244,25.0,0.3728317319871428,0.19145844564242007,0.13773495555789664
0188,cdot_cos,R,Q-R,42,8,9228,0.046120368897165004,0.0848603302763043,0.046811939366148775,0.7631989639029848,999.0,0.6550428148169397,0.5252473215597238,3.4039917772943635,-0.00738337875912037,0.041,0.9999999999999795,-3.593921435048488,0.20862008759388112,42,2026-10-08 02:01:25.312243,25.0,0.6311684753685232,0.5787146320232147,0.7833861848836488
0188,cdot_cos,S,R-S,43,8,9247,-0.0015767466062824784,-0.004074285171855451,-0.04769711550344748,0.23282499125082678,999.0,0.6703785810626137,0.5255356946100499,3.446168094148607,-0.0036560301132349394,0.019,0.9999999999999777,12.925440299188569,0.21358722716302442,43,2026-10-08 02:01:25.331244,25.0,0.36077272245042613,0.6372925424566905,0.8071455918775795
0188,cdot_cos,T,S-T,44,8,9556,-0.135051003638401,0.027846701387355934,-0.13347425703211852,0.03432821409887123,999.0,0.679259931430294,0.5255782115125318,3.4862915354303308,-0.002155971363277249,0.309,0.9999999999999758,35.281468366510396,0.21855438810195132,44,2026-10-08 02:01:25.640243,25.0,0.4986906429195744,0.07955531122746409,0.028742234199612395
0188,cdot_cos,P,T-P,45,9,10055,0.01790125073237255,0.0006324960508474392,0.15295225437077356,0.9786224865208569,996.0,0.7195437634011865,0.5267901172872392,3.5338156335871593,-0.0101326610151912,0.499,0.9999999999999747,-6.581938809425741,0.22352156442919707,45,2026-10-08 02:01:26.139244,25.0,0.45510571283681767,0.05739975224029706,0.08072912218615748
0188,cdot_cos,Q,P-Q,46,9,10185,-0.02216082369961454,-0.016545269635980134,-0.04006207443198709,0.268636416445105,996.0,0.7365448841661104,0.527122736442218,3.575120459106714,-0.004451128097586141,0.13,0.9999999999999704,17.081195813777974,0.2284887123126896,46,2026-10-08 02:01:26.269243,25.0,0.2790329538624332,0.20247625131466154,0.130777852037876
0188,cdot_cos,R,Q-R,47,9,10235,0.036583259019762684,0.08128063174699438,0.05874408271937723,0.8128448142593343,996.0,0.7721875887429985,0.5281290335166279,3.6206703623955385,-0.009666978008856023,0.05,0.9999999999999686,-5.183210846884786,0.23345585383305698,47,2026-10-08 02:01:26.319244,25.0,0.5830086226262777,0.5339569892837648,0.7128540915377624
0188,cdot_cos,S,R-S,48,9,10257,-0.0015086612894007233,-0.00518352925016105,-0.038091920309163405,0.2784229089719385,996.0,0.7899405830944869,0.5284736672919444,3.6613730943351595,-0.004984965136257817,0.022,0.9999999999999658,13.585473067163626,0.23842299313750862,48,2026-10-08 02:01:26.341243,25.0,0.3909299840631805,0.6483038786745943,0.8069542887040164
0188,cdot_cos,T,S-T,49,9,10554,-0.10235875407081625,0.011854732674776925,-0.10085009278141553,0.07438167819315901,996.0,0.8007129594046807,0.5285657328599755,3.6999602554673716,-0.0030800077348525066,0.297,0.9999999999999628,20.691312095765046,0.24339015776188014,49,2026-10-08 02:01:26.638243,25.0,0.5387567495005071,0.08855303880887942,0.03627062730704979
0188,cdot_cos,P,T-P,50,10,11051,0.024195344104542042,0.0009830208793789074,0.1265540981753583,0.9594510905643856,1001.0,0.8425410881469613,0.5297531124660243,3.745920323248662,-0.012351426975887864,0.497,0.9999999999999613,-7.8083025797351135,0.2483573423889473,50,2026-10-08 02:01:27.135243,25.0,0.4720664714959502,0.06306326633363189,0.08416122483356256
0188,cdot_cos,Q,P-Q,51,10,11184,-0.00028112277068378797,-0.0003094671421130829,-0.02447646687522583,0.3516232431463273,1001.0,0.8633978461403108,0.5301881842097663,3.7863011408456435,-0.006393060358768394,0.133,0.999999999999956,13.695135808802421,0.2533244921591692,51,2026-10-08 02:01:27.268243,25.0,0.39376327504622843,0.20867498338070284,0.15681772927330465
0188,cdot_cos,R,Q-R,52,10,11233,0.03995606780517378,0.08763080417506242,0.04023719057585757,0.732222842475565,1001.0,0.8980486337262282,0.531094032831112,3.8297737115744805,-0.010964385204296991,0.049,0.9999999999999534,-5.046455597335526,0.25829163360118135,52,2026-10-08 02:01:27.317244,25.0,0.6590704358733288,0.5370567322915625,0.7071589303248458
0188,cdot_cos,S,R-S,53,10,11255,-0.001969751240671313,-0.007051558131881837,-0.041925819045845095,0.25958137928496444,1001.0,0.9160294059048839,0.5314151176558399,3.868760631682987,-0.005859101539120803,0.022,0.9999999999999502,15.900108855976686,0.2632587723835409,53,2026-10-08 02:01:27.339243,25.0,0.4183895211297745,0.6068072745085039,0.817307826302531
0188,cdot_cos,T,S-T,54,10,11552,-0.23143782172689076,-0.07843940855229842,-0.22946807048621945,0.0032150191636925018,1001.0,0.9247481538046024,0.5314190942572379,3.9051170397775126,-0.0028828478192604408,0.297,0.9999999999999456,748.4415514705846,0.2682259419484995,54,2026-10-08 02:01:27.636243,25.0,0.3561509696941331,0.09091994758821198,0.0293560535344057
0188,cdot_cos,P,T-P,55,11,12052,0.01749725880255396,0.0002068510862240416,0.2489350805294447,0.9980213838434074,1058.0,0.9700358547722818,0.5326533341983527,3.9502630499353315,-0.015408782476508717,0.5,0.9999999999999442,-10.148703051964327,0.273193135931799,55,2026-10-08 02:01:28.136243,25.0,0.44356594944924704,0.06809587641215276,0.09057540193535885
0188,cdot_cos,Q,P-Q,56,11,12202,-0.002521928942662462,-0.003093209500151893,-0.02001918774521642,0.37742794563813326,1058.0,0.9928440302167552,0.5331199910793405,3.9895049398335507,-0.008038204616725829,0.15,0.9999999999999374,15.794426612077965,0.2781602894944694,56,2026-10-08 02:01:28.286243,25.0,0.39973905827577694,0.1990214655275165,0.15205450296315556
0188,cdot_cos,R,Q-R,57,11,12231,0.041121373436532944,0.07341960194127257,0.043643302379195406,0.7485855197970283,1058.0,1.0297422944305368,0.5340453798444491,4.031954443453846,-0.013396129208733946,0.029,0.9999999999999342,-5.7899174855221505,0.28312742833581106,57,2026-10-08 02:01:28.315244,25.0,0.6703464213366196,0.9524267311073839,1.2723539384062625
0188,cdot_cos,S,R-S,58,11,12250,-0.003435746075564286,-0.008848765438748624,-0.04455711951209723,0.24713931567657949,1058.0,1.0480847806209834,0.5343508381612111,4.06949498744054,-0.006840651468030884,0.019,0.999999999999929,21.461120490004877,0.28809456615038986,58,2026-10-08 02:01:28.334244,25.0,0.3835397913544223,0.8269317130101349,0.9653940100235079
0188,cdot_cos,T,S-T,59,11,12490,-0.08828498611952003,0.02996774767261641,-0.08484924004395575,0.10705034146172814,1058.0,1.061165699524922,0.534483141854959,4.105443157085024,-0.004951997043157974,0.24,0.999999999999925,14.27514509512474,0.29306173375339106,59,2026-10-08 02:01:28.574244,25.0,0.6829098097276896,0.12072770175908568,0.05450382876641032
0188,cdot_cos,P,T-P,60,12,13110,0.0173252668613829,-0.0008370984421664009,0.10561025298090293,0.9334078987104469,1020.0,1.1060340774653445,0.5356365346263219,4.149023021428734,-0.017446651730677828,0.62,0.999999999999923,-10.832957339203965,0.2980289550598755,60,2026-10-08 02:01:29.194243,25.0,0.48862328118435505,0.05207489958605993,0.07236835151681072
0188,cdot_cos,Q,P-Q,61,12,13221,-0.022193941657932897,-0.012962790768118274,-0.0395192085193158,0.27131120795014535,1020.0,1.1257385750116362,0.5359717173166235,4.186073253359338,-0.007889440077315795,0.111,0.9999999999999133,28.513440371163792,0.30299610509122127,61,2026-10-08 02:01:29.305243,25.0,0.29778221113972797,0.2816630965527783,0.17751799591253753
0188,cdot_cos,R,Q-R,62,12,13274,0.05041003329907815,0.08016378228925135,0.07260397495701104,0.8599770510628234,1020.0,1.1685632849000613,0.5370339320808007,4.228609740303603,-0.01762140019368967,0.053,0.9999999999999094,-9.161951466483409,0.307963247003449,62,2026-10-08 02:01:29.358243,25.0,0.5756354315107863,0.572351661876931,0.8080133941212289
0188,cdot_cos,S,R-S,63,12,13294,-0.001500751181833417,-0.0032709472702736123,-0.05191078448091157,0.2145406269059138,1020.0,1.1864078511705909,0.5372988734572622,4.2646779300928905,-0.007536203419620355,0.02,0.999999999999903,38.065767260536475,0.31293038416651714,63,2026-10-08 02:01:29.378243,25.0,0.26230873581213554,0.7985659416071156,0.8922283135264775
0188,cdot_cos,T,S-T,64,12,13589,-0.08166940426610368,0.026512308272717094,-0.08016865308427026,0.11876094499956914,1020.0,1.200505922564346,0.5374455251560265,4.299564534299162,-0.006034458648240258,0.295,0.9999999999998971,10.240213949338974,0.31789756503769523,64,2026-10-08 02:01:29.673243,25.0,0.77968790869494,0.10271726244050512,0.047790072521203646
0188,cdot_cos,P,T-P,65,13,14130,0.02057570468115624,0.00019375439801468043,0.10224510894725992,0.9279841035173804,998.0,1.247011036010489,0.5385912192828349,4.342261594766186,-0.020404035947053575,0.541,0.9999999999998939,-12.542245755280952,0.32286478733263435,65,2026-10-08 02:01:30.214243,25.0,0.49447844689635656,0.06551804529620299,0.0859613926915766
0188,cdot_cos,Q,P-Q,66,13,14259,-0.001144354248641791,-0.0011855959201517454,-0.02172005892979803,0.36748963974196286,998.0,1.2713964475748376,0.5390448119715472,4.379221178330453,-0.0110073862907898,0.129,0.9999999999998825,20.716051845854782,0.3278319419791256,66,2026-10-08 02:01:30.343244,25.0,0.42585019212144354,0.24849820101516928,0.18903419817324574
0188,cdot_cos,R,Q-R,67,13,14309,0.040923416025678436,0.08614181797195561,0.042067770274320224,0.7411001102601046,998.0,1.3111235718724026,0.5399593548736029,4.419758238930956,-0.01838368785009527,0.05,0.9999999999998772,-8.065560995252259,0.33279908338177333,67,2026-10-08 02:01:30.393243,25.0,0.6694882482433999,0.6012226773637086,0.7945424859512995
0188,cdot_cos,S,R-S,68,13,14331,-0.0009292708342644404,-0.002918627263517515,-0.041852686859942874,0.2599329318329569,998.0,1.3315187153112085,0.5402800575966352,4.4552639298199965,-0.009656549359668802,0.022,0.9999999999998695,27.21254876762403,0.3377662200899724,68,2026-10-08 02:01:30.415244,25.0,0.4050465361108007,0.7771183527131575,0.9270519744911766
0188,cdot_cos,T,S-T,69,13,14588,-0.08971806635452707,0.019048971802403662,-0.08878879552026263,0.09799356083923284,998.0,1.3453167793917815,0.5404009524551983,4.488907887036522,-0.006617281451845823,0.257,0.9999999999998614,25.139761474953517,0.3427334004031726,69,2026-10-08 02:01:30.672243,25.0,0.6317304208150111,0.12213059214283153,0.05368896529405855
0188,cdot_cos,P,T-P,70,14,15128,0.023868623950745703,0.0015486794505689425,0.11358669030527277,0.9447821059898356,1017.0,1.3942938396726239,0.5415662861124529,4.531069105223411,-0.024030027131861545,0.54,0.9999999999998583,-14.942283329426,0.3477006357404432,70,2026-10-08 02:01:31.212243,25.0,0.48450648140442293,0.06802656838379172,0.09069825977933771
0188,cdot_cos,Q,P-Q,71,14,15258,-0.0012354605216838546,-0.0012633387959689998,-0.025104084472429556,0.34805445029643134,1017.0,1.4187854732462766,0.5419954770855191,4.566935611264766,-0.012337003757391553,0.13,0.9999999999998447,27.244336689876608,0.3526677927539245,71,2026-10-08 02:01:31.342243,25.0,0.38759243801966,0.252081703588728,0.18839718133578995
0188,cdot_cos,R,Q-R,72,14,15312,0.04013025110971007,0.08646955031264245,0.04136571163139393,0.7377182735629438,1017.0,1.4598350826056932,0.5429049613561366,4.6067019171009695,-0.02115282150018789,0.054,0.9999999999998386,-9.693205289642176,0.35763493499192883,72,2026-10-08 02:01:31.396243,25.0,0.6591738731707736,0.5746987023205177,0.7601779511003073
0188,cdot_cos,S,R-S,73,14,15333,-0.002294238819101219,-0.00751554078985342,-0.042424489928811294,0.25719247065291817,1017.0,1.4808529330968925,0.5432219700992186,4.641291112104565,-0.011062781160590257,0.021,0.999999999999829,31.828902387684852,0.3626020707391745,73,2026-10-08 02:01:31.417243,25.0,0.4016915147756658,0.7475967638062759,1.0008500233904432
0188,cdot_cos,T,S-T,74,14,15627,-0.2041786891090195,-0.042946670532218234,-0.2018844502899183,0.006386821439288758,1017.0,1.4912341466855568,0.5432298418846367,4.673040359284333,-0.005522497672872481,0.294,0.9999999999998177,703.8153599729937,0.3675692646406183,74,2026-10-08 02:01:31.711244,25.0,0.36669655056109063,0.10765361324829198,0.0353102503015792
0188,cdot_cos,P,T-P,75,15,16145,0.024840232922288465,-0.0011906442479740656,0.22901892203130797,0.9967487949037709,1000.0,1.5441532576868882,0.5444580720707618,4.715145826294428,-0.028738493501414775,0.518,0.999999999999814,-18.901990922228055,0.37253650868929705,75,2026-10-08 02:01:32.229243,25.0,0.44582168538004563,0.07400925666767011,0.10216044594851621
0188,cdot_cos,Q,P-Q,76,15,16256,-0.006862200347841533,-0.004976365716993317,-0.03170243327013,0.31161907384026216,1000.0,1.567907736593263,0.5448419502197792,4.749822693793446,-0.013224245744544044,0.111,0.9999999999997978,40.41451121034494,0.37750366359002435,76,2026-10-08 02:01:32.340243,25.0,0.3093855862313648,0.3098526591569496,0.21400431447184534
0188,cdot_cos,R,Q-R,77,15,16313,0.04791675414101114,0.084755376751675,0.05477895448885267,0.7972951347950424,1000.0,1.612940548019731,0.5458238806741622,4.789585820924648,-0.025614942048509042,0.057,0.9999999999997913,-12.618710672081967,0.38247080664420136,77,2026-10-08 02:01:32.397243,25.0,0.6164801009772429,0.5715228801030925,0.790049323271368
0188,cdot_cos,S,R-S,78,15,16333,-0.0025514938151817742,-0.006352228263886877,-0.05046824795619291,0.22068031941385233,1000.0,1.6330613449250155,0.5460956028659432,4.822986486685434,-0.011678082869143494,0.02,0.9999999999997797,51.290838955842766,0.3874379413224633,78,2026-10-08 02:01:32.417243,25.0,0.3031825649587368,0.7789400233693344,1.0060398452642283
0188,cdot_cos,T,S-T,79,15,16626,-0.1738169371557207,-0.015115126551864434,-0.17126544334053892,0.013631643096543288,1000.0,1.6440981489545043,0.5461123865175312,4.853953776374241,-0.006467192827657268,0.293,0.9999999999997657,310.4741548130454,0.39240514220119627,79,2026-10-08 02:01:32.710243,25.0,0.44675623035762146,0.11169965994003701,0.037668273138187075
0188,cdot_cos,P,T-P,80,16,17145,0.01614649856995934,0.001220498256150631,0.18996343572568003,0.9914147376088894,1018.0,1.6985173456498772,0.5473327600420071,4.895493794044309,-0.032509746940621635,0.519,0.9999999999997619,-21.339822268062136,0.3973724004910954,80,2026-10-08 02:01:33.229243,25.0,0.44884883783129365,0.07393088907756049,0.10485394353636392
0188,cdot_cos,Q,P-Q,81,16,17295,-0.025159956537642632,-0.019144299640179174,-0.041306455107601975,0.26256846601544676,1018.0,1.7208384118170121,0.5476558717829874,4.928903704997366,-0.013638935119988847,0.15,0.999999999999742,58.40336152250397,0.40233956717345387,81,2026-10-08 02:01:33.379244,25.0,0.250674844284131,0.23462344532468576,0.14880710778089945
0188,cdot_cos,R,Q-R,82,16,17332,0.03917400424489399,0.08937166207836343,0.06433396078253663,0.8331820433144792,1018.0,1.768904379247283,0.5486809024916762,4.968517774012615,-0.029962579006621692,0.037,0.9999999999997344,-15.925029121822766,0.4073067050103125,82,2026-10-08 02:01:33.416243,25.0,0.5799571662792017,0.9586108986824987,1.29908020081813
0188,cdot_cos,S,R-S,83,16,17355,-0.0010619956137009087,-0.0036411466870462372,-0.0402359998585949,0.2677829942390757,1018.0,1.791775618319517,0.5490102579756436,5.001722375891403,-0.014545019094384663,0.023,0.9999999999997211,46.811304692783565,0.4122738395327373,83,2026-10-08 02:01:33.439244,25.0,0.34645962928741736,0.890304666820168,0.9944016987927867
0188,cdot_cos,T,S-T,84,16,17644,-0.06714744945398245,0.01037378081268276,-0.06608545384028154,0.16082042531044938,1018.0,1.8098583939210107,0.5492080359107392,5.033575679702571,-0.011631139302594462,0.289,0.9999999999997066,14.733088351752732,0.41724104731817874,84,2026-10-08 02:01:33.728243,25.0,0.7783927816886941,0.12056303968911715,0.06257015779063539
0188,cdot_cos,P,T-P,85,17,18163,0.017418535271993496,0.00024402106158702349,0.08456598472597594,0.8922708591261025,984.0,1.8614610552598267,0.5503050719029885,5.073563020333005,-0.03381896476252822,0.519,0.9999999999997008,-20.2252484118055,0.4222083213724432,85,2026-10-08 02:01:34.247243,25.0,0.5188832235865053,0.0725320756862003,0.09942709313837395
0188,cdot_cos,Q,P-Q,86,17,18294,-0.020922920686092118,-0.013594548396857283,-0.038341455958085614,0.2771713278626636,984.0,1.8851466884832866,0.550645751556046,5.106479683367979,-0.015839041749245334,0.131,0.9999999999996781,52.77662710971425,0.42717548585385007,86,2026-10-08 02:01:34.378243,25.0,0.32136914815463785,0.2762954738708994,0.1808063604844263
0188,cdot_cos,R,Q-R,87,17,18342,0.038481714897509484,0.08317616787267075,0.0594046355836016,0.8153440623598043,984.0,1.9338504694140024,0.5516476389891557,5.145427714489683,-0.033184689945736846,0.048,0.9999999999996694,-17.31297112156949,0.43214262656446056,87,2026-10-08 02:01:34.426244,25.0,0.5929173152848762,0.7540121085013891,1.014662102723246
0188,cdot_cos,S,R-S,88,17,18361,-0.0012241398915928464,-0.003968145858853523,-0.03970585478910233,0.2703896870841667,984.0,1.95753185089942,0.5519797992654982,5.178030586477249,-0.016439032266067747,0.019,0.9999999999996532,50.41438989652287,0.43710975897297244,88,2026-10-08 02:01:34.445244,25.0,0.3610812492369052,1.0601776156521592,1.2463884992325023
0188,cdot_cos,T,S-T,89,17,18643,-0.08180755294239413,0.010097998731286934,-0.08058341305080129,0.11768004147387512,984.0,1.9741372188087845,0.5521243488741375,5.208731775790217,-0.011645666452173287,0.282,0.9999999999996358,33.16069727906038,0.4420769727907961,89,2026-10-08 02:01:34.727243,25.0,0.6625887181218466,0.12648321718577168,0.05888428336654082
0188,cdot_cos,P,T-P,90,18,19147,0.01971116452447658,0.0014157478031898434,0.1015187174668707,0.9267610197684113,974.0,2.028868385392195,0.5532624050090108,5.248709182859781,-0.03906151563888802,0.504,0.9999999999996292,-24.0900675692658,0.44704425830644884,90,2026-10-08 02:01:35.231244,25.0,0.49566081550559526,0.08280952121611308,0.10859358449089426
0188,cdot_cos,Q,P-Q,91,18,19312,-0.0016930959761723016,-0.0030404629752004662,-0.02140426050064888,0.3693266646312457,974.0,2.0576092161946264,0.5537157807790324,5.282113174924176,-0.0209358886589563,0.165,0.9999999999996058,39.97925821900222,0.45201143685985884,91,2026-10-08 02:01:35.396243,25.0,0.42072821819261363,0.21995357016375897,0.17418685334806838
0188,cdot_cos,R,Q-R,92,18,19337,0.029122342915358115,0.08030735723500716,0.030815438891530416,0.6836043813783944,974.0,2.1014530635462356,0.5545547193854491,5.319103324873243,-0.0324928175603263,0.025,0.9999999999995929,-13.77565511108402,0.4569785697999674,92,2026-10-08 02:01:35.421243,25.0,0.7006993185191532,1.4051077974469006,1.753753894064367
0188,cdot_cos,S,R-S,93,18,19356,-0.0022127973186088176,-0.01094994604746344,-0.031335140233966934,0.3135921978858858,974.0,2.1278646060669715,0.554939464894972,5.351643708323801,-0.01990092660612612,0.019,0.9999999999995748,32.72784384101899,0.46194570115695316,93,2026-10-08 02:01:35.440243,25.0,0.5311404044268807,1.139578324349171,1.390081185301887
0188,cdot_cos,T,S-T,94,18,19660,-0.08429206188077125,0.0020548339892343024,-0.08207926456216243,0.11385230329107583,974.0,2.144757039871504,0.5550791337419432,5.381693185687664,-0.012857865332895162,0.304,0.9999999999995545,50.426859145520105,0.4669129310460749,94,2026-10-08 02:01:35.744244,25.0,0.5782419643950683,0.12065557614713388,0.05556721646227845
0188,cdot_cos,P,T-P,95,19,20121,0.01998199999489425,0.0021676561062466677,0.1042740618756655,0.9313012339518917,977.0,2.201223196364429,0.5562212832961391,5.421375855207656,-0.04369528412888674,0.461,0.999999999999547,-26.999457892974483,0.4718802180282972,95,2026-10-08 02:01:36.205244,25.0,0.49374409772136596,0.09325888359725298,0.12248623968096474
0188,cdot_cos,Q,P-Q,96,19,20271,-0.0014623561455398657,-0.0021550468120294305,-0.021444356140434117,0.3690932138289239,977.0,2.2307417305481714,0.5566737762120655,5.454268347919971,-0.023289481055411156,0.15,0.9999999999995209,45.09640340268647,0.4768473955186563,96,2026-10-08 02:01:36.355244,25.0,0.41636995559597084,0.25015652245774217,0.1967902278916167
0188,cdot_cos,R,Q-R,97,19,20313,0.03125078355716272,0.08950192127235869,0.032713139702702586,0.6937751950289196,977.0,2.2762701531017515,0.5575240606827145,5.490976761956243,-0.03651481463197187,0.042,0.9999999999995067,-15.55401049070709,0.48181453399828544,97,2026-10-08 02:01:36.397243,25.0,0.6961494601922777,0.8592231976675823,1.084010060799527
0188,cdot_cos,S,R-S,98,19,20334,-0.0019023822396229757,-0.01072354614714662,-0.0331531657967857,0.30389269822818965,977.0,2.3029164791522483,0.557896402902227,5.522894188269086,-0.02170939980655489,0.021,0.9999999999994863,39.76292252005169,0.4867816650694631,98,2026-10-08 02:01:36.418243,25.0,0.5056139900687585,0.940737058886965,1.2688726690712748
0188,cdot_cos,T,S-T,99,19,20620,-0.1515678382094023,-0.04768194740482659,-0.14966545596977934,0.02316587879692496,977.0,2.315781109575004,0.5579247840549325,5.551283081507204,-0.01057141699079068,0.286,0.9999999999994607,392.4429332143155,0.491748897701475,99,2026-10-08 02:01:36.704243,25.0,0.34868228721012406,0.12853336245788094,0.044981225254390786
0188,cdot_cos,P,T-P,100,20,21098,0.019419035308884187,0.000752548609233131,0.1709868735182865,0.986274399028201,980.0,2.376437562478156,0.5591327425860697,5.591329085928885,-0.05060839208119259,0.478,0.9999999999994537,-33.14432909605781,0.49671620690780216,100,2026-10-08 02:01:37.182244,25.0,0.45333978394080077,0.09518799199230217,0.12689634498567393
0188,cdot_cos,Q,P-Q,101,20,21230,-0.0018010602838115072,-0.0019762174411297405,-0.021220095592695692,0.3703997212080653,980.0,2.406780829919645,0.5595862167908432,5.62377369304631,-0.025802095980969428,0.132,0.999999999999424,54.70277215131597,0.5016833810835748,101,2026-10-08 02:01:37.314244,25.0,0.3823548248110217,0.29600817509742555,0.22987323819309652
0188,cdot_cos,R,Q-R,102,20,21285,0.03518224261430268,0.09126109416769797,0.03698330289811419,0.7159749155587176,980.0,2.4545837207038765,0.5604624904835993,5.660395543016368,-0.04129517961913999,0.055,0.999999999999409,-17.680644490696398,0.5066505247332207,102,2026-10-08 02:01:37.369244,25.0,0.6871662742748064,0.6742699957400874,0.8691434688042111
0188,cdot_cos,S,R-S,103,20,21307,-0.0016221697251269105,-0.0069037667560967655,-0.03680441233942959,0.2849354187178745,980.0,2.4809505294510545,0.5608111152468522,5.691613060674438,-0.023120872234031677,0.022,0.9999999999993849,52.13142983742373,0.5116176552001341,103,2026-10-08 02:01:37.391244,25.0,0.45563815486679626,0.9683186080627602,1.1984913066899094
0188,cdot_cos,T,S-T,104,20,21579,-0.09750044987733608,0.0021082572813008868,-0.09587828015220917,0.08340503468525279,980.0,2.497189739458638,0.5609131518066052,5.7202160758026315,-0.014362254326329541,0.272,0.9999999999993573,85.83803617947756,0.5165848915339534,104,2026-10-08 02:01:37.663244,25.0,0.5434400548521108,0.14102417736471382,0.05970297796905675
0188,cdot_cos,P,T-P,105,21,22078,0.022786159006393504,0.0012414801238681385,0.12028660888372958,0.9528967799447566,959.0,2.557667681937459,0.5620785449030977,5.759593133560687,-0.05428047741965467,0.499,0.9999999999993492,-34.25301146322715,0.5215522274097497,105,2026-10-08 02:01:38.162244,25.0,0.47931051625350846,0.08867925086811963,0.12119828152068313
0188,cdot_cos,Q,P-Q,106,21,22209,-0.009147788009621951,-0.01061971650010015,-0.03193394701601546,0.31037886398378367,959.0,2.5856916318250214,0.5624579911455063,5.790861588160888,-0.02558766038572694,0.131,0.999999999999314,75.61760752141136,0.5265194044841857,106,2026-10-08 02:01:38.293243,25.0,0.32583841630283994,0.3012054968511928,0.21392328158444668
0188,cdot_cos,R,Q-R,107,21,22264,0.03558258533072058,0.09814561444823149,0.044730373340342536,0.7536656979600649,959.0,2.6365835221124714,0.5633790621098398,5.8276405159736155,-0.04715829562376119,0.055,0.9999999999992979,-23.41908069335761,0.5314865483742129,107,2026-10-08 02:01:38.348243,25.0,0.6329213364264623,0.7092462616740529,0.9253070961354546
0188,cdot_cos,S,R-S,108,21,22285,-0.0007477196518883074,-0.0035089460747463196,-0.03633030498260889,0.2873565134361705,959.0,2.663708720609167,0.5637301319173809,5.858457577004082,-0.025506080475017137,0.021,0.9999999999992707,61.67495661446475,0.5364536773040731,108,2026-10-08 02:01:38.369244,25.0,0.4278836118767271,0.9974530257732327,1.2916761188902768
0188,cdot_cos,T,S-T,109,21,22558,-0.12066463538167348,-0.006727580016373942,-0.11991691572978518,0.04751979818262034,959.0,2.678476549194947,0.5637881817610726,5.88612361805328,-0.013995664371754216,0.273,0.9999999999992383,198.28504904143838,0.5414209233415676,109,2026-10-08 02:01:38.642244,25.0,0.43936390239563183,0.14180699476524952,0.054094610204322206
0188,cdot_cos,P,T-P,110,22,23037,0.015004839513036673,0.0010967308278619894,0.13566947489471015,0.9674452917483961,1159.0,2.7411353397509934,0.5649696237618642,5.9254537040955855,-0.06020594511037697,0.479,0.999999999999229,-39.113456866828585,0.5463882684432101,110,2026-10-08 02:01:39.121243,25.0,0.4641549502508856,0.09406343367167194,0.13081167130698598
0188,cdot_cos,Q,P-Q,111,22,23167,-0.021386190954244818,-0.013037298704388545,-0.03639103046728149,0.2870457255349751,1159.0,2.768589318652409,0.5653200220677606,5.956018509802647,-0.026812895063560493,0.13,0.9999999999991893,95.30026111683173,0.5513554485160627,111,2026-10-08 02:01:39.251244,25.0,0.2878228507325088,0.3199522860397648,0.211184453087811
0188,cdot_cos,R,Q-R,112,22,23226,0.04022952841501186,0.06659039890649139,0.06161571936925668,0.8235218463014407,1159.0,2.8243229341213323,0.5663249363801552,5.993422315441353,-0.05522425398290913,0.059,0.9999999999991739,-28.272419418174056,0.5563225947275787,112,2026-10-08 02:01:39.310244,25.0,0.5978158711021487,0.6940363173614447,0.9446375503207359
0188,cdot_cos,S,R-S,113,22,23247,-0.0021872150841534843,-0.004756320767075906,-0.04241674349916534,0.2572294702127839,1159.0,2.8504856041010593,0.5666387129656287,6.0234547011938915,-0.026298691767819307,0.021,0.9999999999991424,92.18521570512014,0.5612897225571776,113,2026-10-08 02:01:39.331244,25.0,0.332909041755571,1.059674643578521,1.2458414276060499
0188,cdot_cos,T,S-T,114,22,23536,-0.08639850477285521,0.04664802894241157,-0.08421128968870173,0.10858447433089055,1159.0,2.86882926915163,0.5667711516942553,6.051462495395951,-0.01858231206574513,0.289,0.9999999999991076,58.26377059109477,0.5662569866796114,114,2026-10-08 02:01:39.620243,25.0,0.6601725653582469,0.13964696901512766,0.063472889448342
0188,cdot_cos,P,T-P,115,23,24196,0.02040099168962413,0.0015942716811900171,0.10679949646247934,0.935232268879546,1078.0,2.931201552191803,0.5679114425801044,6.090174418446183,-0.06403535510074149,0.66,0.9999999999990965,-39.86091934879429,0.5712244445574755,115,2026-10-08 02:01:40.280244,25.0,0.49173679221891486,0.06741126344572858,0.09450345915177719
0188,cdot_cos,Q,P-Q,116,23,24326,-0.021503100412164723,-0.01635084123999729,-0.04190409210178885,0.2596857902788664,1078.0,2.957812136899992,0.5682279398755886,6.120005199975395,-0.027734389431994754,0.13,0.9999999999990442,114.69597429958674,0.5761916274164917,116,2026-10-08 02:01:40.410244,25.0,0.2701226381314832,0.3182535966094071,0.204696805447606
0188,cdot_cos,R,Q-R,117,23,24383,0.03598558998229948,0.06935532327535962,0.057488690394464206,0.8080233582667422,1078.0,3.013947487310249,0.5692123772140759,6.15697628017072,-0.05929537196893529,0.057,0.9999999999990236,-32.05992022350313,0.5811587721922256,117,2026-10-08 02:01:40.467244,25.0,0.5872719869488726,0.7321684356504659,0.9848307089518785
0188,cdot_cos,S,R-S,118,23,24406,-0.0041356739580044165,-0.012048803222639412,-0.0401212639403039,0.2683457906083425,1078.0,3.041279338564145,0.5695391897792562,6.1867822574882885,-0.029268549705890046,0.023,0.9999999999989849,91.87780845109054,0.5861258991074196,118,2026-10-08 02:01:40.490243,25.0,0.35847103463861696,0.9687704354428851,1.1883413588650449
0188,cdot_cos,T,S-T,119,23,24714,-0.10145743489100469,0.02526142343786682,-0.09732176093300027,0.08068738251462221,1078.0,3.0585109273406217,0.5696374453729619,6.214013958117482,-0.018587361995094955,0.308,0.9999999999989416,108.70818960994013,0.5910931837257403,119,2026-10-08 02:01:40.798244,25.0,0.562903057097438,0.13304307194073411,0.05594671680674247
0188,cdot_cos,P,T-P,120,24,25274,0.01964017799595161,0.0005063057157919342,0.1210976128869563,0.9537985067889875,1076.0,3.123233870879637,0.57079849854623,6.2527874743574605,-0.07070626088318441,0.56,0.9999999999989272,-44.88932986711289,0.5960606121386669,120,2026-10-08 02:01:41.358243,25.0,0.4784906618229055,0.08758108758171615,0.11557668489109915
0188,cdot_cos,Q,P-Q,121,24,25405,-0.0011342291035498539,-0.0010669270192529827,-0.020774407099501464,0.3730018577565295,1076.0,3.156601745432144,0.5712523403496375,6.283779235120722,-0.03702124917437769,0.131,0.9999999999988752,74.22192370975597,0.6010277989932407,121,2026-10-08 02:01:41.489243,25.0,0.4025712520258355,0.33629325349433137,0.25471659963745463
0188,cdot_cos,R,Q-R,122,24,25453,0.04508201379867743,0.07733416888774261,0.046216242902227284,0.7604969724066543,1076.0,3.211342703295152,0.5721772863644697,6.319908241592648,-0.061553193633561674,0.048,0.9999999999988485,-26.522568956234963,0.6059949385463139,122,2026-10-08 02:01:41.537244,25.0,0.6712935970062334,0.8405845649161378,1.1404366221460054
0188,cdot_cos,S,R-S,123,24,25473,-0.0026359931772567853,-0.006412587844774014,-0.047718006975934216,0.23273171469659248,1076.0,3.237297863664093,0.5724602432536897,6.348894786415277,-0.02955005044496683,0.02,0.9999999999988035,113.10254108609092,0.6109620621435333,123,2026-10-08 02:01:41.557244,25.0,0.3385732408676999,0.9953826545530009,1.2977580184470483
0188,cdot_cos,T,S-T,124,24,25769,-0.17537331718571983,0.022598535302588273,-0.17273732400846303,0.013145629950809186,1076.0,3.251158009477272,0.5724762243923252,6.374828998875796,-0.01587710877295347,0.296,0.9999999999987521,855.5674275734381,0.6159293513392339,124,2026-10-08 02:01:41.853244,25.0,0.42266589029868695,0.13864421422614967,0.046824816936415777
0188,cdot_cos,P,T-P,125,25,26350,0.021580659582914764,-0.00048617789985098476,0.1969539767686346,0.9927813996321982,1041.0,3.3193752384859736,0.5736827091057989,6.413971390016195,-0.07907585061090751,0.581,0.999999999998737,-52.38254669302117,0.6208968161353009,125,2026-10-08 02:01:42.434243,25.0,0.4496810530559876,0.08264640394713063,0.11741347505800609
0188,cdot_cos,Q,P-Q,126,25,26463,-0.020001226577872157,-0.013620521937808005,-0.041581886160786924,0.26123738030355836,1041.0,3.347193130863838,0.5740000346110476,6.443138450936028,-0.032710903212171134,0.113,0.9999999999986723,146.11163184752095,0.6258639951390229,126,2026-10-08 02:01:42.547244,25.0,0.2423394890640429,0.39091219762054713,0.2461760387421615
0188,cdot_cos,R,Q-R,127,25,26520,0.047679509415351075,0.07918572256213355,0.06768073599322323,0.8444894147041494,1041.0,3.4077213951482173,0.5750254192408333,6.4802114631528145,-0.07207299061077369,0.057,0.9999999999986483,-38.38763158253278,0.6308311399634808,127,2026-10-08 02:01:42.604243,25.0,0.5791799806943647,0.7590816823227389,1.061899373410165
0188,cdot_cos,S,R-S,128,25,26541,-0.0019019599440529388,-0.0042820922862183385,-0.049581469359404017,0.2245166341802443,1041.0,3.43372844264863,0.5752979206011425,6.508757085294897,-0.031358904718597126,0.021,0.999999999998597,149.40874367004355,0.6357982624673589,128,2026-10-08 02:01:42.625243,25.0,0.2729883535880756,1.1158792067279595,1.2384308333529916
0188,cdot_cos,T,S-T,129,25,26832,-0.07707595486227867,0.026405619280332034,-0.07517399491822573,0.13246356632194026,1041.0,3.4545883218307916,0.5754586734351553,6.5359582350206225,-0.02532232160832832,0.291,0.9999999999985436,37.55195451040353,0.6407655602488267,129,2026-10-08 02:01:42.916243,25.0,0.787895511844542,0.14872466314889093,0.07168343361567518
0188,cdot_cos,P,T-P,130,26,27391,0.022876168578881643,0.0008714436912721927,0.0999521234411603,0.9240578692524951,1040.0,3.5202861966012846,0.5765796296867237,6.574023520669499,-0.08069808411435486,0.559,0.9999999999985238,-49.40046717126352,0.6457330368461397,130,2026-10-08 02:01:43.475244,25.0,0.5034810847175698,0.08415065543642783,0.11752750406170491
0188,cdot_cos,Q,P-Q,131,26,27522,-0.01864801255550327,-0.014837913187771288,-0.04152418113438491,0.26151589199216935,1040.0,3.548668754608718,0.576896726882908,6.602889461194276,-0.03532609995034562,0.131,0.9999999999984536,143.08541579671868,0.6507002308668515,131,2026-10-08 02:01:43.606244,25.0,0.2768233519880061,0.33751568347571054,0.21666074814834563
0188,cdot_cos,R,Q-R,132,26,27571,0.04074453460188421,0.07706655937401699,0.05939254715738748,0.8152985577547273,1040.0,3.608715305671921,0.5778848973112362,6.63939668031781,-0.07562390167347909,0.049,0.9999999999984247,-40.78021418968555,0.6556673703067941,132,2026-10-08 02:01:43.655244,25.0,0.5869173716141858,0.9026135630145079,1.2254398176163854
0188,cdot_cos,S,R-S,133,26,27593,-0.0015593482996977253,-0.0041520681226329065,-0.042303882901581935,0.2577689249841207,1040.0,3.6371248837841397,0.5781971929825822,6.668100025003847,-0.03621458095440781,0.022,0.9999999999983696,126.1923373744176,0.6606344918514765,133,2026-10-08 02:01:43.677243,25.0,0.3368165203525144,1.0985925777976626,1.2913444596463133
0188,cdot_cos,T,S-T,134,26,27871,-0.08550324857417334,0.021117398094324176,-0.08394390027447561,0.10923321085393348,1040.0,3.657053379095018,0.57832951382049,6.694652830291251,-0.02557077848305929,0.278,0.999999999998309,80.43935210540006,0.6656017925297425,134,2026-10-08 02:01:43.955244,25.0,0.6595162498132774,0.15769453208255185,0.07168523493121674
0188,cdot_cos,P,T-P,135,27,28431,0.02308852409362257,0.001566467219461659,0.1085917726677959,0.9378939990156314,1058.0,3.7248030436220385,0.5794651771898962,6.732781819832207,-0.08791166333058154,0.56,0.9999999999982889,-54.893806146199125,0.6705692955200524,135,2026-10-08 02:01:44.515244,25.0,0.49207162689309636,0.09003318186050292,0.12098154379825103
0188,cdot_cos,Q,P-Q,136,27,28561,-0.00461522611012339,-0.003935406292056023,-0.02770375020374596,0.3334563281118893,1058.0,3.757890542778781,0.5798687459559264,6.762378781518242,-0.04350919667344313,0.13,0.9999999999982164,110.02453706691257,0.6755364928891169,136,2026-10-08 02:01:44.645243,25.0,0.3604036586653965,0.34842314354328946,0.2545192242826361
0188,cdot_cos,R,Q-R,137,27,28616,0.03972521356101704,0.0778864725105632,0.04434043967114043,0.7518514100761249,1058.0,3.815393060943294,0.5807782889252051,6.7978409149379635,-0.07648383693475497,0.055,0.9999999999981818,-36.25407636041865,0.6805036365645197,137,2026-10-08 02:01:44.700243,25.0,0.6497730443616063,0.7886475290677581,1.045500330263865
0188,cdot_cos,S,R-S,138,27,28637,-0.0014815605750675117,-0.004112918592134493,-0.041206774136084555,0.2630512727945113,1058.0,3.8446417709762346,0.5810963827102433,6.826342201811682,-0.039340893387535394,0.021,0.999999999998121,116.76727208850271,0.6854707557429892,138,2026-10-08 02:01:44.721244,25.0,0.3890176134223771,1.0603385354189228,1.3927957158543252
0188,cdot_cos,T,S-T,139,27,28930,-0.15042137028293065,0.004331362215886441,-0.14893980970786314,0.02357996969842262,1058.0,3.8599272794308885,0.5811248934137859,6.8513667945199055,-0.020678870033414405,0.293,0.9999999999980482,654.5620077820998,0.6904380792316719,139,2026-10-08 02:01:45.014244,25.0,0.4055673874465,0.14855892479227045,0.052168970834996345
0188,cdot_cos,P,T-P,140,28,29489,0.01785038076086904,-4.539885180040625e-05,0.16827175104379968,0.9853245315843097,1039.0,3.931697300904505,0.5823157695543627,6.890058651037846,-0.09811200641771281,0.559,0.9999999999980287,-65.02198989963392,0.6954056074544386,140,2026-10-08 02:01:45.573244,25.0,0.4541934757824319,0.09667568139621877,0.12839002052525322
0188,cdot_cos,Q,P-Q,141,28,29619,-0.0020715605076946316,-0.0020609486176173687,-0.019921941268563673,0.37799938056487864,1039.0,3.968010691231861,0.5827723707123785,6.920044447200788,-0.0503146321436229,0.13,0.9999999999979523,104.68079950080522,0.7003728087799111,141,2026-10-08 02:01:45.703244,25.0,0.3867527551753081,0.36617690816044013,0.27933377174889257
0188,cdot_cos,R,Q-R,142,28,29661,0.04352457458082179,0.07391747638830139,0.04559613508851642,0.7576618985020115,1039.0,4.0269032970262195,0.583687153994892,6.955441215270756,-0.08253134856103339,0.042,0.9999999999979142,-35.217867481017834,0.7053399422304621,142,2026-10-08 02:01:45.745243,25.0,0.6768149886603041,1.038687903630793,1.402204899865676
0188,cdot_cos,S,R-S,143,28,29680,-0.002777639529194695,-0.006475473037851346,-0.04630221411001648,0.23911177405182496,1039.0,4.055260475136848,0.5839757326650603,6.983340128345776,-0.040165075643053626,0.019,0.9999999999978464,146.81013289468888,0.7103070580919314,143,2026-10-08 02:01:45.764243,25.0,0.348260762347909,1.1539424625663812,1.4924830584541164
0188,cdot_cos,T,S-T,144,28,29968,-0.15372597324906503,0.006678119252763527,-0.15094833371987035,0.02245110795418733,1039.0,4.070753110603742,0.5840028254537621,7.008039949614085,-0.022062397535888477,0.288,0.9999999999977657,668.1733027335346,0.7152743905355021,144,2026-10-08 02:01:46.052243,25.0,0.44020189784203634,0.15396342251026984,0.05379387314893847
0188,cdot_cos,P,T-P,145,29,30528,0.021857159291209204,1.1010063679408168e-05,0.17558313254027424,0.9877460623120397,1038.0,4.143943406502763,0.5851942796368456,7.04667852496836,-0.10527718181301078,0.56,0.9999999999977458,-69.8430417708275,0.7202419471071684,145,2026-10-08 02:01:46.612243,25.0,0.45364735078854307,0.09738288266549686,0.13069695696253775
0188,cdot_cos,Q,P-Q,146,29,30678,-0.0011420557427524575,-0.0014284117654399723,-0.02299921503396166,0.3600884251399527,1038.0,4.1798219391890985,0.5856283840659325,7.07618139607991,-0.05227704845948565,0.15,0.9999999999976618,122.09074545725451,0.7252091692214673,146,2026-10-08 02:01:46.762244,25.0,0.3628260411782083,0.31954592237776563,0.23919021790890227
0188,cdot_cos,R,Q-R,147,29,30700,0.04469281920751466,0.07673772249022345,0.04583487495026712,0.7587560902623394,1038.0,4.239807183216093,0.5865426661182145,7.111458700715763,-0.08835113046451154,0.022,0.9999999999976197,-39.456185227511625,0.7301762850592115,147,2026-10-08 02:01:46.784243,25.0,0.6647770416497575,2.0142314167779434,2.726602001227016
0188,cdot_cos,S,R-S,148,29,30720,-0.0023575975928397464,-0.0055080686283661435,-0.047050416800354405,0.23572524874241052,1038.0,4.268448121527328,0.5868265880172358,7.139060368846049,-0.04262008984659398,0.02,0.9999999999975456,161.0690854617458,0.7351433999127818,148,2026-10-08 02:01:46.804243,25.0,0.34198356773148614,1.213522851119686,1.4320469155617577
0188,cdot_cos,T,S-T,149,29,31007,-0.09452520376646606,0.028313977287747028,-0.0921676061736263,0.09077652828222554,1038.0,4.28834809726088,0.5869359094320207,7.16447262211629,-0.02977942815545554,0.287,0.9999999999974629,117.45788065769905,0.7401107447286169,149,2026-10-08 02:01:47.091244,25.0,0.6497339206206223,0.15976810636479516,0.06933789454199404
0188,cdot_cos,P,T-P,150,30,31566,0.018610285997405652,-0.00034206044503045947,0.11313548976387171,0.9441906793335784,1019.0,4.36015501458072,0.588072480337397,7.202394576573947,-0.1085183770741666,0.559,0.999999999997438,-69.27763903356262,0.745078329230427,150,2026-10-08 02:01:47.650244,25.0,0.48404291749518036,0.0921266194091425,0.12845602382797874
0188,cdot_cos,Q,P-Q,151,30,31677,-0.02051560923733026,-0.013180040064376349,-0.03912589523473591,0.2732595384150604,1019.0,4.391345657760302,0.5884012422877379,7.230403036561918,-0.04768688303547931,0.111,0.9999999999973396,185.0320390653624,0.7500455221061646,151,2026-10-08 02:01:47.761244,25.0,0.2792510268418377,0.4380005752378098,0.2809967854016324
0188,cdot_cos,R,Q-R,152,30,31734,0.04624072438094433,0.07858104305434857,0.06675633361827459,0.841430220322372,1019.0,4.457391142283514,0.5894130808206745,7.266780092942361,-0.10202196309473413,0.057,0.9999999999973038,-53.69935843574352,0.7550126678786838,152,2026-10-08 02:01:47.818244,25.0,0.5870870431726767,0.8296219705264035,1.1586927109335539
0188,cdot_cos,S,R-S,153,30,31756,-0.0029728657939502826,-0.007002240790755914,-0.049213590174894614,0.22612196630122175,1019.0,4.485922562400312,0.5896848689651385,7.294006624820375,-0.04453524200958065,0.022,0.999999999997221,211.5129826524057,0.7599797827179732,153,2026-10-08 02:01:47.840243,25.0,0.27504675934169,1.06937798406892,1.2968827325817016
0188,cdot_cos,T,S-T,154,30,32045,-0.11093317903779591,0.025408975538585215,-0.10796031324384563,0.06303192706624444,1019.0,4.504443773582547,0.5897606206746672,7.318744451183444,-0.029060587571257734,0.289,0.9999999999971281,204.28125694597037,0.7649471426832991,154,2026-10-08 02:01:48.129244,25.0,0.5871374860888218,0.1609136071057161,0.06408723592468873
0188,cdot_cos,P,T-P,155,31,32585,0.025934127797703935,0.0011515341142295593,0.13686730683549986,0.9683753432717294,1038.0,4.5789306273074155,0.5909238760547189,7.3569507987304394,-0.1179795927883307,0.54,0.9999999999971035,-76.43979709178053,0.7699147384571421,155,2026-10-08 02:01:48.669244,25.0,0.4706308570879364,0.10167102416691526,0.13793861800901638
0188,cdot_cos,Q,P-Q,156,31,32715,-0.002114249152661226,-0.0020793550682027344,-0.02804837695036516,0.3315441375801617,1038.0,4.614248479682815,0.5913219084637297,7.38561664698187,-0.05659912923084942,0.13,0.9999999999970043,154.20971299805154,0.7748819527940033,156,2026-10-08 02:01:48.799244,25.0,0.33807849688967484,0.37084352871920107,0.27167578750307414
0188,cdot_cos,R,Q-R,157,31,32768,0.04066279522119897,0.08133479942475468,0.04277704437386019,0.7444877623748849,1038.0,4.675349944774408,0.5922152597984223,7.420444413511211,-0.0988788714471531,0.053,0.9999999999969563,-47.32711596703702,0.7798490949578467,157,2026-10-08 02:01:48.852243,25.0,0.6520778841444661,0.8676968897754479,1.1528578319168423
0188,cdot_cos,S,R-S,158,31,32789,-0.0019284716765007113,-0.005713669871308278,-0.04259126689769968,0.2563967318046931,1038.0,4.706224349999013,0.5925227834504547,7.447904402129215,-0.05044604624488655,0.021,0.9999999999968685,157.49300869109854,0.7848162070294453,158,2026-10-08 02:01:48.873244,25.0,0.38285781497753646,1.1294715975627885,1.47020977260023
0188,cdot_cos,T,S-T,159,31,33064,-0.1452421059507488,-0.007990065422404151,-0.1433136342742481,0.027044863965017117,1038.0,4.722787751872045,0.5925552169881934,7.471845483769384,-0.02719930707092793,0.275,0.9999999999967648,716.7500308259843,0.7897835670685399,159,2026-10-08 02:01:49.148243,25.0,0.4254187496929023,0.1695919680482208,0.06023055226557196
0188,cdot_cos,P,T-P,160,32,33623,0.021946630716003387,0.00015786971259598145,0.16718873666675219,0.9849278306558544,920.0,4.799499932425534,0.5937358394976503,7.5102390796612655,-0.12710181641394558,0.559,0.9999999999967409,-84.61850298701358,0.7947512100074188,160,2026-10-08 02:01:49.707244,25.0,0.45566208337124386,0.09678099146302442,0.13723109222448865
0188,cdot_cos,Q,P-Q,161,32,33754,-0.019481102950255257,-0.017457344888740005,-0.04142773366625864,0.26198182091769656,920.0,4.830988900327706,0.5940496926066301,7.53765490663413,-0.05275295850902722,0.131,0.9999999999966255,236.8906210507014,0.7997184296777614,161,2026-10-08 02:01:49.838243,25.0,0.24429519331369884,0.3715447336608023,0.24037380077994006
0188,cdot_cos,R,Q-R,162,32,33800,0.03716144165770753,0.09769479224748459,0.05664254460796279,0.80472057365317,920.0,4.896844652644664,0.5950132630657142,7.573291863638328,-0.11135805592112978,0.046,0.9999999999965802,-60.82077014669644,0.8046855646097839,162,2026-10-08 02:01:49.884243,25.0,0.5908008875358486,1.0720958051185057,1.4316467894990883
0188,cdot_cos,S,R-S,163,32,33819,-0.0008360335257623062,-0.0036609896645012296,-0.03799747518346984,0.27889751617929925,920.0,4.929621714398609,0.5953470439023086,7.600891679333696,-0.05597121263807773,0.019,0.9999999999964883,165.93775678726172,0.8096526727255082,163,2026-10-08 02:01:49.903244,25.0,0.3717404192922083,1.3466524028991067,1.725108513365498
0188,cdot_cos,T,S-T,164,32,34103,-0.11709179344504532,-0.008155103280642725,-0.11625575991928301,0.05183838852371319,920.0,4.94801744395483,0.5954090736880974,7.624965979132896,-0.03157521077230334,0.284,0.9999999999963772,393.29495589208506,0.8146200555172209,164,2026-10-08 02:01:50.187244,25.0,0.46179625986867506,0.1667126071118819,0.06477369562049859
0188,cdot_cos,P,T-P,165,33,34543,0.009729603366949417,0.0005745153479644915,0.12682139681199472,0.959710273141217,1078.0,5.024314475238158,0.596556910012467,7.6629219775191695,-0.13209392909580406,0.44,0.9999999999963503,-87.57234475803985,0.8195876044380573,165,2026-10-08 02:01:50.627244,25.0,0.4672158362185364,0.13322872567191182,0.1734023438257439
0188,cdot_cos,Q,P-Q,166,33,34653,-0.006121210633829946,-0.004051446688275622,-0.015850814000779364,0.4022087572788374,1078.0,5.065258722546113,0.597037647849779,7.692302188754363,-0.07169291624188813,0.11,0.9999999999962496,125.64231097691132,0.8245548073992268,166,2026-10-08 02:01:50.737243,25.0,0.43063421135778074,0.4932173953057854,0.37222043007231903
0188,cdot_cos,R,Q-R,167,33,34702,0.053253555085952954,0.07037888474740116,0.0593747657197829,0.8152316071185599,1078.0,5.1328223022054305,0.5980114764439433,7.7280216829061565,-0.11948093358454609,0.049,0.9999999999962073,-49.072308647569045,0.8295219461428984,167,2026-10-08 02:01:50.786243,25.0,0.6703444853195415,0.9798386939351807,1.3788485644758712
0188,cdot_cos,S,R-S,168,33,34724,-0.0012745127030659657,-0.00220921589281126,-0.05452806778901892,0.20372043572544302,1078.0,5.1612829145517605,0.5982547087159444,7.754277583940608,-0.050794206074322015,0.022,0.9999999999961036,282.3915056382421,0.8344890563293267,168,2026-10-08 02:01:50.808243,25.0,0.25865628983608735,1.158864338693237,1.2936641975604555
0188,cdot_cos,T,S-T,169,33,35002,-0.08434796747395287,0.04890644676766503,-0.0830734547708869,0.11136867288563021,1078.0,5.183812333107933,0.598387657045289,7.7790498430427935,-0.04040346472024145,0.278,0.9999999999959952,78.1562386327876,0.8394564483367958,169,2026-10-08 02:01:51.086244,25.0,0.7732332629036223,0.17719951752681115,0.08104107394306621
0188,cdot_cos,P,T-P,170,34,35621,0.02357911522598292,0.0007239558173331608,0.1079270826999358,0.9369189911321102,999.0,5.2598058462966675,0.5995055459961405,7.816606596205473,-0.13745531225560428,0.619,0.999999999995967,-86.81707379023325,0.8444242226484928,170,2026-10-08 02:01:51.705244,25.0,0.4935845588751724,0.09198364601214552,0.12276819578147755
0188,cdot_cos,Q,P-Q,171,34,35751,-0.002002051463625584,-0.0021190766565920673,-0.025581166689608505,0.34535297953597255,999.0,5.297688086870969,0.5999173449338575,7.84494857218873,-0.0692439761283227,0.13,0.9999999999958441,165.6423314383408,0.849391451598964,171,2026-10-08 02:01:51.835244,25.0,0.37340676386255245,0.3868094434614213,0.2914018505715505
0188,cdot_cos,R,Q-R,172,34,35801,0.03674647027242638,0.07724904109025307,0.03874852173605197,0.7248629057369619,999.0,5.360376301596637,0.600781211912208,7.879183179262457,-0.11559415082809059,0.05,0.9999999999957839,-53.65429616058541,0.8543585907459029,172,2026-10-08 02:01:51.885243,25.0,0.6696679028046872,0.961363818651062,1.2537642945133598
0188,cdot_cos,S,R-S,173,34,35823,-0.0022699549953082137,-0.0074906501124943434,-0.0390164252677346,0.2738033631697013,999.0,5.393824468736075,0.601107358649532,7.906344371470305,-0.062216117487589116,0.022,0.9999999999956781,163.66263166837592,0.8593256985050487,173,2026-10-08 02:01:51.907244,25.0,0.4240323944386194,1.2100218633124473,1.520371233610828
0188,cdot_cos,T,S-T,174,34,36100,-0.10924441604504831,0.011551826026678213,-0.1069744610497401,0.06450328229881802,999.0,5.413617263582385,0.6011841800722971,7.930175457528407,-0.03699597029425243,0.277,0.999999999995552,328.29575768795104,0.8642931031771754,174,2026-10-08 02:01:52.184243,25.0,0.5057565538168328,0.1779102109634446,0.07145413301916775
0188,cdot_cos,P,T-P,175,35,36620,0.02038021739642488,4.610809951347892e-05,0.12962463344147318,0.962334437975309,999.0,5.4923867256098236,0.6023296973772204,7.968084726474379,-0.14843121585457836,0.52,0.9999999999955227,-97.27940824760205,0.8692607965346091,175,2026-10-08 02:01:52.704243,25.0,0.4720107880263465,0.11433051677487427,0.15147973466815162
0188,cdot_cos,Q,P-Q,176,35,36750,-0.0007008423414950878,-0.0007654917175792026,-0.02108105973791997,0.37121067783860545,999.0,5.532521001028254,0.6027712702366479,7.996676992420829,-0.07642367463937648,0.13,0.9999999999953986,163.07057754537698,0.8742280306500207,176,2026-10-08 02:01:52.834244,25.0,0.389763508313999,0.406426190287156,0.30872519552638766
0188,cdot_cos,R,Q-R,177,35,36797,0.04414726993149045,0.0890210538017649,0.04484811227298554,0.7542117565988842,999.0,5.598057535084484,0.6036679251763879,8.031291960161347,-0.12589335350692202,0.047,0.999999999995339,-55.17136712801675,0.8791951662141029,177,2026-10-08 02:01:52.881243,25.0,0.675063113263152,1.0357214776746069,1.3943943416219184
0188,cdot_cos,S,R-S,178,35,36818,-0.0015471132330638362,-0.004775007311162637,-0.045694383164554285,0.24188740287702376,999.0,5.629878819929667,0.6039553491341703,8.057781976091237,-0.06164686570924328,0.021,0.999999999995222,223.52516572862118,0.8841622709896914,178,2026-10-08 02:01:52.902244,25.0,0.35268866700219753,1.1341636218816415,1.5152992783420416
0188,cdot_cos,T,S-T,179,35,37119,-0.3227198931157752,-0.06820623579228137,-0.32117277988271137,0.00032566372941162974,999.0,5.645692407203513,0.6039557360574297,8.080389629903188,-0.030765383511039406,0.301,0.9999999999950786,79812.93821291259,0.8891297198342265,179,2026-10-08 02:01:53.203244,25.0,0.36649379831438195,0.1631015649938204,0.052536834796830814
0188,cdot_cos,P,T-P,180,36,37619,0.007658377558011085,-0.0002514836263642685,0.3303782706737863,0.9997412674183391,1018.0,5.728065962055947,0.605142919858906,8.118857195926845,-0.16148565014723865,0.5,0.9999999999950512,-110.10954367271806,0.8940974186678965,180,2026-10-08 02:01:53.703244,25.0,0.44508707519039675,0.11502998347877913,0.1647471097048676
0188,cdot_cos,Q,P-Q,181,36,37749,-0.03610112166293472,-0.0229045168583697,-0.043759499220945804,0.25086815374080956,1018.0,5.760722390682292,0.6054406295700984,8.14538424350313,-0.06465039521037819,0.13,0.9999999999949043,325.2673705168164,0.8990646577709087,181,2026-10-08 02:01:53.833244,25.0,0.22361503923371054,0.41000980799643305,0.25120329712573325
0188,cdot_cos,R,Q-R,182,36,37798,0.038658949418040066,0.076186086870037,0.0747600710809748,0.8663427324948618,1018.0,5.8346685121350195,0.6064681311881529,8.181716165556495,-0.1476158251984067,0.049,0.9999999999948566,-80.7448168744634,0.9040317955805031,182,2026-10-08 02:01:53.882244,25.0,0.5700471801303788,1.1411197398074884,1.5091045194434138
0188,cdot_cos,S,R-S,183,36,37820,0.009526924412130872,-0.061048585117899054,-0.029132025005909196,0.3255677542531346,1018.0,5.872552125183426,0.6068540188992976,8.209382800219725,-0.0763286501386745,0.022,0.9999999999947431,184.73554093824484,0.9089988997307534,183,2026-10-08 02:01:53.904243,25.0,0.3929981310659292,1.4991095467658988,1.721982411291209
0188,cdot_cos,T,S-T,184,36,38138,-0.05142510196221472,0.007469991375828669,-0.06095202637434559,0.17890253466035164,1018.0,5.900629332192719,0.60706601107714,8.234657805880108,-0.056878433858686184,0.318,0.9999999999946151,91.74968849297787,0.9139663887442444,184,2026-10-08 02:01:54.222244,25.0,0.7103757819468967,0.16046843789677082,0.08829310380280801
0188,cdot_cos,P,T-P,185,37,38637,0.020524027076371108,0.001139692008997107,0.07194912903858583,0.8579940523593801,1019.0,5.974610051685772,0.608082137044897,8.270825467845196,-0.15102973074307818,0.499,0.9999999999945657,-92.65711129518719,0.9189341187287957,185,2026-10-08 02:01:54.721244,25.0,0.5361207944293962,0.10868104063489595,0.14825795489589838
0188,cdot_cos,Q,P-Q,186,37,38767,-0.019070138745962036,-0.014277133206319636,-0.03959416582233315,0.27094088759646767,1019.0,6.009093010746345,0.6084028194675035,8.297523121166062,-0.07101836225730934,0.13,0.9999999999944118,249.50344279999086,0.9239013634539998,186,2026-10-08 02:01:54.851244,25.0,0.32412393844795967,0.4070181501661684,0.2652535312351758
0188,cdot_cos,R,Q-R,187,37,38822,0.03966327713708155,0.08663297475655285,0.05873341588304359,0.8128042427303006,1019.0,6.080434770728976,0.6093642826338282,8.33294630874202,-0.14809701462396702,0.055,0.9999999999943532,-80.1680761846522,0.9288685092193004,187,2026-10-08 02:01:54.906244,25.0,0.5942468098610276,0.959864408201378,1.2971229087751077
0188,cdot_cos,S,R-S,188,37,38844,-0.0012659497029227573,-0.004123127260372773,-0.04092922684000431,0.264398582880926,1019.0,6.114678095648497,0.6096768561423135,8.359482999156505,-0.07168529454175376,0.022,0.9999999999942222,244.4600006331705,0.9338356112905796,188,2026-10-08 02:01:54.928244,25.0,0.344406378403224,1.2946038111292246,1.5565147690691203
0188,cdot_cos,T,S-T,189,37,39096,-0.09148755629543211,0.016735199101280848,-0.09022160659250934,0.09487265182424345,1019.0,6.137397338418662,0.6097889931938804,8.383227763024667,-0.047777896838641996,0.252,0.9999999999940717,213.19802303571674,0.9388030280074507,189,2026-10-08 02:01:55.180243,25.0,0.6062964950301178,0.2061386666251073,0.09015572527843348
0188,cdot_cos,P,T-P,190,38,39656,0.02524774000624796,0.0013598117413995546,0.11673529630168007,0.9487476999094512,1018.0,6.218571983627551,0.6109097488088606,8.420825211292815,-0.1719763807089812,0.56,0.9999999999940373,-110.81674025119781,0.9437708729175741,190,2026-10-08 02:01:55.740243,25.0,0.48569065027089964,0.1078660022571644,0.1449547235873015
0188,cdot_cos,Q,P-Q,191,38,39786,-0.0014175912670841566,-0.001437670143399128,-0.026665331273332118,0.33925111473145386,1018.0,6.258207260946686,0.6113102224722041,8.448491661507411,-0.08476048445204064,0.13,0.9999999999938819,217.78185244139692,0.948738123142253,191,2026-10-08 02:01:55.870244,25.0,0.35737528640260313,0.4108697028227308,0.30488674860873305
0188,cdot_cos,R,Q-R,192,38,39840,0.04011112417341397,0.08680426328325458,0.041528715440498125,0.7385059996501253,1018.0,6.325398106361461,0.6121814820392631,8.482651899847301,-0.14479984613753077,0.054,0.9999999999938074,-68.91099272304776,0.9537052677130765,192,2026-10-08 02:01:55.924243,25.0,0.6605800830183455,0.942718047299774,1.2442749150884207
0188,cdot_cos,S,R-S,193,38,39863,-0.0010369367895637605,-0.0033627718856012257,-0.04114806096297773,0.2633359182388296,1018.0,6.360020810055062,0.6124919820224809,8.509027053268726,-0.07519538371867007,0.023,0.9999999999936672,224.16897320747395,0.9586723691040109,193,2026-10-08 02:01:55.947244,25.0,0.39627451901319316,1.1425731799179495,1.505334943200038
0188,cdot_cos,T,S-T,194,38,40135,-0.15394994098303638,-0.010311565048673817,-0.15291300419347262,0.02139805147163586,1018.0,6.3779564726376865,0.6125172085033661,8.531394001263783,-0.03911407935286283,0.272,0.9999999999934942,1430.294797359608,0.9636398281984445,194,2026-10-08 02:01:56.219244,25.0,0.3975385604498715,0.1891593679553941,0.06593993596553235
0188,cdot_cos,P,T-P,195,39,40674,0.02339295810944417,0.0003512067349306336,0.17734289909248055,0.9882672893882455,1019.0,6.462923506222796,0.6136816320793808,8.569614514704254,-0.18658548748314824,0.539,0.9999999999934625,-126.64756293841133,0.9686076773628924,195,2026-10-08 02:01:56.758244,25.0,0.45367730158713465,0.11305940041328372,0.15763828123396956
0188,cdot_cos,Q,P-Q,196,39,40805,-0.011891673866242894,-0.008768874632370844,-0.03528463197568706,0.2927395252304047,1019.0,6.499834506283206,0.6140263029021171,8.596385999662111,-0.08179790137683114,0.131,0.9999999999932899,304.02221248204216,0.9735749342895139,196,2026-10-08 02:01:56.889244,25.0,0.2777442087706092,0.4108099212029266,0.28176335923977297
0188,cdot_cos,R,Q-R,197,39,40854,0.03800689270953022,0.07701940398024178,0.049898566575773115,0.7768605872360556,1019.0,6.570555705577963,0.6149404218719363,8.631118047265378,-0.15788587302484988,0.049,0.9999999999932171,-83.2363993748744,0.9785420714370295,197,2026-10-08 02:01:56.938244,25.0,0.6175979863290028,1.0845851109709248,1.443289781525643
0188,cdot_cos,S,R-S,198,39,40876,-0.001657919544088571,-0.004984274304953559,-0.03966481225361879,0.2705921556327875,1019.0,6.606123847158357,0.6152586331411126,8.65747432753382,-0.08002727226607137,0.022,0.9999999999930691,244.67581226873813,0.9835091692501301,198,2026-10-08 02:01:56.960243,25.0,0.37798497064510994,1.2648714629092421,1.6167337081997328
0188,cdot_cos,T,S-T,199,39,41154,-0.1203854828472417,0.025602631295554172,-0.11872756330315312,0.04888385144232154,1019.0,6.6262100499459695,0.6153161091222887,8.680119848153337,-0.04538172822067829,0.278,0.9999999999928889,602.7829945039936,0.9884766529521735,199,2026-10-08 02:01:57.238244,25.0,0.46606742808468127,0.1889767478598166,0.0722525280129947
0188,cdot_cos,P,T-P,200,40,41693,0.023124373366869205,-0.00020765190647019656,0.1435098562141109,0.9730839188397683,978.0,6.711194918968415,0.6164595567379784,8.718073042416034,-0.1933182247436187,0.539,0.9999999999928524,-129.37758974967798,0.9934445367939156,200,2026-10-08 02:01:57.777244,25.0,0.4652182737250065,0.11716841636277882,0.15767137109915677
0188,cdot_cos,Q,P-Q,201,40,41823,-0.001851017464833203,-0.002078288096813643,-0.02497539083170241,0.3487848617902249,978.0,6.752517602785045,0.6168690928409827,8.745648093160268,-0.09485008941307346,0.13,0.9999999999926792,240.43822903083017,0.998411797835481,201,2026-10-08 02:01:57.907244,25.0,0.354110989001568,0.42459343529261606,0.31786679858946204
0188,cdot_cos,R,Q-R,202,40,41866,0.04014467003570999,0.08099206228064242,0.041995687500543194,0.74075419568812,978.0,6.821589212144495,0.6177383207306756,8.779730620136183,-0.15970563409787755,0.043,0.9999999999925961,-74.61282070426603,1.0033789253961918,202,2026-10-08 02:01:57.950243,25.0,0.6662473498547041,1.209911158297897,1.606316496731398
0188,cdot_cos,S,R-S,203,40,41886,-0.002532247707759219,-0.007428149020749377,-0.04267691774346921,0.2559886955095087,978.0,6.856569962398664,0.6180385323916654,8.805713132518793,-0.08147720344316842,0.02,0.9999999999924363,260.5775884813602,1.008346017900211,203,2026-10-08 02:01:57.970243,25.0,0.3828444132284783,1.3201369176961686,1.7490375127084512
0188,cdot_cos,T,S-T,204,40,42172,-0.17419714750994078,-0.012653736480895563,-0.17166489980218155,0.01349801772939663,978.0,6.874394688852342,0.6180543597413498,8.827601437499254,-0.04167702069293707,0.286,0.9999999999922384,2514.6460742836002,1.013313530415023,204,2026-10-08 02:01:58.256243,25.0,0.38482481281425074,0.18405229505036083,0.06232421836950252
0188,cdot_cos,P,T-P,205,41,42671,0.024163914114001154,0.0015640457973452712,0.19836106162394193,0.9930291755434449,1059.0,6.961847875167471,0.619218065212482,8.865873414654718,-0.20580589346217174,0.499,0.9999999999922031,-141.03987378313929,1.0182813854614319,205,2026-10-08 02:01:58.755244,25.0,0.45045659689054407,0.12964242505610638,0.17525688640306344
0188,cdot_cos,Q,P-Q,206,41,42802,-0.0005613296798940991,-0.0005430227045229698,-0.024725243793895253,0.35020662396614066,1059.0,7.003777829058336,0.6196281377444826,8.893357677958894,-0.09955623370024365,0.131,0.9999999999920234,259.0996749857623,1.0232486539641723,206,2026-10-08 02:01:58.886244,25.0,0.3439590682579813,0.4292361116749063,0.32007598389973674
0188,cdot_cos,R,Q-R,207,41,42857,0.04323951867260843,0.08645158884496375,0.04380084835250253,0.7493260682156151,1059.0,7.074307736426296,0.6205049832078084,8.927533107862478,-0.1686600848153327,0.055,0.999999999991939,-78.80961241787891,1.0282158006375481,207,2026-10-08 02:01:58.941243,25.0,0.6638343618286195,0.9528238815872634,1.2823619521447263
0188,cdot_cos,S,R-S,208,41,42879,-0.0028044188146675846,-0.008247812649102295,-0.04604393748727602,0.2402885062095025,1059.0,7.108588456032935,0.620785997476709,8.95312406244751,-0.08256297766348006,0.022,0.9999999999917661,306.37984145320803,1.0331828942164962,208,2026-10-08 02:01:58.963244,25.0,0.35246454014230816,1.1679512858867693,1.5582145275745016
0188,cdot_cos,T,S-T,209,41,43151,-0.30062420896723335,-0.02279228624219266,-0.29781979015256577,0.0005837261243008729,1059.0,7.125697593005314,0.6207866800382128,8.97462999986295,-0.04135559822596037,0.272,0.9999999999915535,60371.67231143465,1.0381504007705527,209,2026-10-08 02:01:59.235244,25.0,0.3692002895258577,0.19502688616168987,0.06290123886903976
0188,cdot_cos,P,T-P,210,42,43730,0.019788232214950623,-0.00023702155912731017,0.320412441182184,0.9996680887672,1099.0,7.214683082104894,0.6219549065246357,9.013004412307454,-0.21643444417088575,0.579,0.9999999999915201,-149.86721152078647,1.0431184219151117,210,2026-10-08 02:01:59.814244,25.0,0.4453373416754155,0.11431636343496504,0.15368823678684024
0188,cdot_cos,Q,P-Q,211,42,43860,-0.002611011032938086,-0.0023844370967937376,-0.02239924324788871,0.3635518371756454,1099.0,7.258075941863003,0.6223794084176257,9.040605751848506,-0.1064693503510144,0.13,0.9999999999913272,259.0450022385466,1.0480856940846526,211,2026-10-08 02:01:59.944243,25.0,0.3559968731534686,0.44984411597488616,0.33379122890853097
0188,cdot_cos,R,Q-R,212,42,43903,0.04793623906596788,0.07270420179706896,0.05054725009890597,0.7796591639243626,1099.0,7.331642552258365,0.6232891454729096,9.075249773390128,-0.1817897326660069,0.043,0.9999999999912413,-82.79357411850302,1.0530528201142506,212,2026-10-08 02:01:59.987243,25.0,0.6607848838232134,1.234215932836742,1.710851404543288
0188,cdot_cos,S,R-S,213,42,43921,-0.004791127701986837,-0.011209709732068094,-0.05272736676795472,0.21112055904173818,1099.0,7.364218512086963,0.62353534010187,9.100221551169025,-0.08106282813442299,0.018,0.999999999991052,409.13526406703846,1.0580199042768144,213,2026-10-08 02:02:00.005243,25.0,0.2886390833038626,1.624354043332055,1.8097755460332445
0188,cdot_cos,T,S-T,214,42,44230,-0.08493402909051793,0.041737153520794906,-0.0801429013885311,0.11882833877907438,1099.0,7.390119297818319,0.623673881692297,9.123585175548065,-0.0646991960910666,0.309,0.99999999999085,118.11349929590149,1.0629874913694242,214,2026-10-08 02:02:00.314244,25.0,0.7765310655150358,0.17890998010137404,0.08382131304645815
0188,cdot_cos,P,T-P,215,43,44829,0.01592860657975765,-0.00010610655215451836,0.10086263567027559,0.925639908073436,1098.0,7.474784879789612,0.6247523884670654,9.160691649643873,-0.21283293235757947,0.599,0.9999999999907944,-137.35077027988442,1.067955587748672,215,2026-10-08 02:02:00.913243,25.0,0.4985709019293096,0.10033143168175922,0.14134487808229315
0188,cdot_cos,Q,P-Q,216,43,44979,-0.028270444431368405,-0.017165571060878123,-0.044199051011126055,0.24880865196218654,1098.0,7.510316352973066,0.6250420767076659,9.186229551276785,-0.09001374500799858,0.15,0.9999999999905612,423.97022086567705,1.0729229001556342,216,2026-10-08 02:02:01.063244,25.0,0.25552136426108374,0.387442110894618,0.23687648788969304
0188,cdot_cos,R,Q-R,217,43,45003,0.0462285399498842,0.07054468125697051,0.0744989843812526,0.8655851232834916,1098.0,7.591017513057998,0.6260491800052217,9.222305156938676,-0.20580785730486986,0.024,0.9999999999904827,-114.97739365752892,1.0778899907225372,217,2026-10-08 02:02:01.087244,25.0,0.5697075465954416,2.425678300551015,3.3625483368721434
0188,cdot_cos,S,R-S,218,43,45022,0.002069093930618348,-0.06599221676882208,-0.04415944601926585,0.24899375518666603,1098.0,7.626748911399515,0.6263386810769062,9.247804645374433,-0.09179783567566248,0.019,0.999999999990287,393.81554260176057,1.082857073383369,218,2026-10-08 02:02:01.106244,25.0,0.28881512116589125,2.1104912395692894,1.8805999127114361
0188,cdot_cos,T,S-T,219,43,45328,-0.019693128735129413,0.008641062985219349,-0.02176222266574776,0.36724465945471446,1098.0,7.671216180161631,0.6267655054414171,9.275307278593418,-0.11479026165957135,0.306,0.9999999999901239,-53.86858833669267,1.0878246757004657,219,2026-10-08 02:02:01.412243,25.0,0.8184856229392622,0.18710877233873194,0.14531787177161998
0188,cdot_cos,P,T-P,220,44,45927,0.016750986922001634,-0.00048702121516783784,0.03644411565713104,0.713225795424067,1079.0,7.741259480070819,0.6275938766387025,9.308746933739094,-0.18200295791194998,0.599,0.9999999999900151,-81.13837911390027,1.0927928167427894,220,2026-10-08 02:02:02.011244,25.0,0.6912217969935435,0.09521283046522706,0.1169337227198468
0188,cdot_cos,Q,P-Q,221,44,46038,-0.006594261939760026,-0.004277213473723981,-0.02334524886176166,0.3580974783385383,1079.0,7.785281151058973,0.6280095044883003,9.336059159601218,-0.11518165573459452,0.111,0.9999999999897896,160.77195558963686,1.0977600647142003,221,2026-10-08 02:02:02.122243,25.0,0.5598208785420252,0.5488781324165906,0.39659163052390806
0188,cdot_cos,R,Q-R,222,44,46093,0.052424712736274214,0.07686240748915184,0.05901897467603424,0.8138880371920209,1079.0,7.863110425467302,0.6289534435927205,9.371222105617806,-0.205023415569012,0.055,0.9999999999896961,-95.17749546947327,1.1027272105448125,222,2026-10-08 02:02:02.177243,25.0,0.6451951598687582,1.0073672110705412,1.4150777165150785
0188,cdot_cos,S,R-S,223,44,46115,-0.0015067175135985795,-0.0029311957642843456,-0.05393143024987279,0.20615077098673432,1079.0,7.896091544276732,0.6291923792806668,9.395872816364761,-0.08747336854574239,0.022,0.999999999989475,491.97358516692276,1.1076942956889673,223,2026-10-08 02:02:02.199244,25.0,0.2608426000015145,1.395339026038369,1.4991417640650102
0188,cdot_cos,T,S-T,224,44,46407,-0.07269815885601989,0.03293491994304169,-0.07119144134242131,0.14432955662158733,1079.0,7.92450534261299,0.6293596244861661,9.419419253892988,-0.07563938336964356,0.292,0.999999999989247,70.7582925368268,1.1126618904173624,224,2026-10-08 02:02:02.491244,25.0,0.8551719729198307,0.19601257237912545,0.0973075285488288
0188,cdot_cos,P,T-P,225,45,47006,0.023840098754177638,-0.0008502698508086113,0.09653825761019753,0.9178476856126178,1058.0,8.010562886546142,0.6304224744225543,9.456364611342515,-0.23047506678212232,0.599,0.9999999999891787,-145.67972214276057,1.1176300731497169,225,2026-10-08 02:02:03.090244,25.0,0.5107827158942011,0.10718179744301644,0.1436686877014211
0188,cdot_cos,Q,P-Q,226,45,47118,-0.004687929781376635,-0.003230234208827687,-0.02852802853555427,0.3288919856607576,1058.0,8.052909135949724,0.6308030180436951,9.483077561936254,-0.11427474919650589,0.112,0.9999999999889322,305.3534762644665,1.1225973272627576,226,2026-10-08 02:02:03.202244,25.0,0.36173248208999187,0.532198074049877,0.37809151253198614
0188,cdot_cos,R,Q-R,227,45,47178,0.04813968260813275,0.07869104331876081,0.052827612389509386,0.7892965331467444,1058.0,8.129775255133314,0.631715607445811,9.517784322375467,-0.2087537353388848,0.06,0.9999999999888259,-103.52847175665357,1.127564482496937,227,2026-10-08 02:02:03.262244,25.0,0.635981472666424,0.9289870875450598,1.2811019863931665
0188,cdot_cos,S,R-S,228,45,47199,-0.001792756576816333,-0.003939950419766705,-0.04993243918494908,0.222992653271792,1058.0,8.164387586455131,0.6319732624671204,9.542616082369591,-0.09462046214996811,0.021,0.9999999999885935,442.9693339912706,1.1325315627204287,228,2026-10-08 02:02:03.283243,25.0,0.2993260309000939,1.3766364009615388,1.6482062534198656
0188,cdot_cos,T,S-T,229,45,47503,-0.10477001653582116,0.033406283299729396,-0.10297725995900482,0.07080220398860693,1058.0,8.187593983973699,0.6320550545423061,9.564757636475944,-0.06365905569248749,0.304,0.999999999988331,378.53797433503263,1.1374991993315418,229,2026-10-08 02:02:03.587244,25.0,0.6148586006281084,0.18705269311543682,0.07633683394265611
0188,cdot_cos,P,T-P,230,46,48064,0.027396724819585373,-0.0010106921392604431,0.13216674135540654,0.9645715394220203,1019.0,8.278115623869317,0.6331685878392401,9.60250679185259,-0.24972527645252504,0.561,0.9999999999882673,-167.0953363247921,1.1424673491786355,230,2026-10-08 02:02:04.148243,25.0,0.47469458953765564,0.11740670086673603,0.16135764687275955
0188,cdot_cos,Q,P-Q,231,46,48176,-0.005045605062679203,-0.0036332663359861677,-0.03244232988226457,0.307665035522104,1019.0,8.319324302346176,0.6335234683080053,9.62875412898884,-0.11454671440589645,0.112,0.9999999999880036,380.91293814219114,1.1474346076292798,231,2026-10-08 02:02:04.260243,25.0,0.307242689628439,0.525857326907575,0.36793462925767606
0188,cdot_cos,R,Q-R,232,46,48236,0.04430557082485751,0.07903703089094505,0.049351175887536715,0.7744793725451126,1019.0,8.395907665096614,0.6344161604446725,9.663170278447106,-0.21416663850520767,0.06,0.9999999999878877,-111.59493850952265,1.1524017630532275,232,2026-10-08 02:02:04.320243,25.0,0.6280399764723069,0.9372030276655637,1.2763893791739516
0188,cdot_cos,S,R-S,233,46,48255,-0.002941205159547075,-0.007335958977152953,-0.04724677598440458,0.23484200022319046,1019.0,8.431788665666044,0.6346866655044504,9.688102772094368,-0.10098529532010031,0.019,0.9999999999876438,418.40749033694044,1.1573688363163581,233,2026-10-08 02:02:04.339243,25.0,0.32602848235402354,1.4498602315710623,1.8884737141805557
0188,cdot_cos,T,S-T,234,46,48565,-0.17033480846191693,-0.017558782914446958,-0.16739360330236985,0.014996326750201622,1019.0,8.451002353896314,0.634703936285199,9.709134539588247,-0.054251987153568805,0.31,0.9999999999873507,2705.9175173765734,1.1623365045626293,234,2026-10-08 02:02:04.649244,25.0,0.42256503485956115,0.18194511228895324,0.061979639452483255
0188,cdot_cos,P,T-P,235,47,49083,0.023500420832946158,-0.00022307996357104722,0.19383522929486308,0.9922006172991497,1019.0,8.544594635285195,0.6358458495336256,9.74736426003432,-0.2656790120335975,0.518,0.9999999999872908,-185.15156485955956,1.1673046053085305,235,2026-10-08 02:02:05.167244,25.0,0.4512206797821392,0.13369683074440522,0.18068007990131507
0188,cdot_cos,Q,P-Q,236,47,49233,-0.0011588666120245312,-0.0015269338538010354,-0.024659287444970687,0.3505819454591901,1019.0,8.589512270547518,0.6362489658267572,9.774275295911716,-0.1284853366125474,0.15,0.9999999999870289,340.33274704740967,1.1722719475756473,236,2026-10-08 02:02:05.317244,25.0,0.34377190521730927,0.405032839954617,0.2994509017488175
0188,cdot_cos,R,Q-R,237,47,49256,0.045803162903347044,0.08275867223035675,0.046962029515371574,0.7638764250084464,1019.0,8.66610448727158,0.6371266453962564,9.808473541160268,-0.2204142459078455,0.023,0.9999999999869016,-104.74085587721672,1.1772390254488108,237,2026-10-08 02:02:05.340243,25.0,0.6589725784461488,2.443981951951357,3.3300963793070637
0188,cdot_cos,S,R-S,238,47,49274,-0.0026978427116037284,-0.006759114544435313,-0.04850100561495077,0.22925456144400488,1019.0,8.70193544033728,0.6373898766853147,9.833205585413731,-0.10375242306805546,0.018,0.9999999999866462,443.1913214312952,1.182206093844088,238,2026-10-08 02:02:05.358243,25.0,0.3248391820188004,1.5202670402255771,1.990608503649997
0188,cdot_cos,T,S-T,239,47,49563,-0.19405700012701077,-0.0004891633483128168,-0.19135915741540704,0.008293304136584155,1019.0,8.720834100719701,0.6373993975579411,9.853989023049733,-0.0548950124885318,0.289,0.9999999999863365,5131.610567296711,1.1871737382571144,239,2026-10-08 02:02:05.647244,25.0,0.4106493981699624,0.19670785458029766,0.0653932885204873
0188,cdot_cos,P,T-P,240,48,50102,0.01814299118764562,0.0002682863258688143,0.2121999913146564,0.9950578468815928,1038.0,8.815632580284692,0.63854095906623,9.892268134103642,-0.2767801452653523,0.539,0.9999999999862791,-194.36984443300128,1.1921419217787768,240,2026-10-08 02:02:06.186244,25.0,0.4485811659914816,0.13202337807512116,0.17587844075137515
0188,cdot_cos,Q,P-Q,241,48,50252,-0.0017295794916781227,-0.0022373687997551866,-0.019872570679323742,0.37828961943245293,1038.0,8.863155302284682,0.6389745354730019,9.919587817696186,-0.1398038036178745,0.15,0.9999999999860126,315.9220370575752,1.197109271951681,241,2026-10-08 02:02:06.336244,25.0,0.3753953655016583,0.4116240077998631,0.31681814666659613
0188,cdot_cos,R,Q-R,242,48,50282,0.0412301709198633,0.07977664006340059,0.042959750411541424,0.7453556763894931,1038.0,8.939119782624651,0.6398281613878385,9.953426103336756,-0.22480336383311325,0.03,0.9999999999858754,-99.57471854812101,1.2020763626391966,242,2026-10-08 02:02:06.366244,25.0,0.6851576886469468,1.8945338423242752,2.5321493446656502
0188,cdot_cos,S,R-S,243,48,50304,-0.002990053071406018,-0.008565070337099407,-0.04422022399126932,0.2487097328286643,1038.0,8.976827332824138,0.6401128023185094,9.97840686886774,-0.11226255536807588,0.022,0.999999999985613,395.3781636385377,1.2070434369064182,243,2026-10-08 02:02:06.388243,25.0,0.3669687471344073,1.4682564357229033,1.7139795545221372
0188,cdot_cos,T,S-T,244,48,50601,-0.08709896074839366,0.019502430935466455,-0.08410890767698764,0.108832471470805,1038.0,9.003723065796459,0.6402373268834535,10.000862535897772,-0.08035032183525052,0.297,0.999999999985317,256.2725960710131,1.2120111190184544,244,2026-10-08 02:02:06.685244,25.0,0.6722239533434452,0.19820243173901578,0.09055802347582738
0188,cdot_cos,P,T-P,245,49,51140,0.01713685524523578,0.0007007809512770089,0.10423581599362944,0.9312400351519485,1039.0,9.094559577277114,0.6413020651523856,10.038001589185985,-0.272792784303595,0.539,0.9999999999852374,-180.7415663394412,1.2169793440505658,245,2026-10-08 02:02:07.224244,25.0,0.49388484010483213,0.12151861521480242,0.16852785061345943
0188,cdot_cos,Q,P-Q,246,49,51271,-0.021154263166286876,-0.014538916183165156,-0.038291118411522655,0.27742352344196497,1039.0,9.134720132998016,0.641618990305414,10.063438591176146,-0.12143259235829218,0.131,0.9999999999849281,477.58971005921853,1.2219466593321917,246,2026-10-08 02:02:07.355244,25.0,0.28752242440497644,0.4708290928235974,0.30656912764047617
0188,cdot_cos,R,Q-R,247,49,51325,0.041743912608488414,0.08701655474576231,0.06289817577477529,0.8281332201464475,1039.0,9.217916799596896,0.6425643028161948,10.09872892161635,-0.2529661675606675,0.054,0.9999999999848116,-139.14295399913297,1.2269138024837904,247,2026-10-08 02:02:07.409244,25.0,0.5945413051136644,1.1281305887334578,1.540679011090373
0188,cdot_cos,S,R-S,248,49,51348,-0.000996351342882722,-0.00301460910485672,-0.042740263951371135,0.2556871915156765,1039.0,9.25655823658123,0.6428559456709046,10.123743828537075,-0.11822962908669908,0.023,0.9999999999845358,461.99156364732534,1.2318808762479851,248,2026-10-08 02:02:07.432243,25.0,0.3199414188873208,1.4028144476488682,1.6800624775797093
0188,cdot_cos,T,S-T,249,49,51640,-0.09236860805369836,0.019200230526095156,-0.09137225671081563,0.0924310636135778,1039.0,9.282446264188744,0.6429613486979654,10.145797208818747,-0.07947483747513398,0.292,0.9999999999842187,367.6819603029971,1.2368485673695813,249,2026-10-08 02:02:07.724244,25.0,0.6140763579793825,0.2026558031392323,0.08865762879285832
0188,cdot_cos,P,T-P,250,50,52179,0.017818803528042673,0.00038358439492292376,0.11018741158174103,0.9401774126359141,1019.0,9.374909225614541,0.644032684967635,10.183089853631797,-0.28528529352458776,0.539,0.9999999999841391,-192.10630861300535,1.2418168334751523,250,2026-10-08 02:02:08.263244,25.0,0.48606166118447924,0.12320393940449985,0.17154538297921523
0188,cdot_cos,Q,P-Q,251,50,52330,-0.02102725270379831,-0.015224565566100239,-0.03884605623184098,0.2746510621088537,1019.0,9.415260110866795,0.6443453796197361,10.208391151172005,-0.12533568184167887,0.151,0.9999999999838144,511.5201382822724,1.2467842018521536,251,2026-10-08 02:02:08.414243,25.0,0.27910428176155455,0.41102137869979305,0.26722440564406513
0188,cdot_cos,R,Q-R,252,50,52358,0.04095245799753172,0.08078103106449078,0.06197971070133003,0.8248404596354538,1019.0,9.499037681981878,0.6452837327176753,10.243602516353375,-0.2616334400668878,0.028,0.9999999999836895,-145.25210022171655,1.2517512835561122,252,2026-10-08 02:02:08.442244,25.0,0.5939564356730023,2.196568082693449,2.992056111252988
0188,cdot_cos,S,R-S,253,50,52378,-0.0012553350824146268,-0.003554081998035944,-0.04220779307994635,0.258228799844684,1019.0,9.538267923497628,0.6455772691770337,10.26857589241483,-0.12326508130401062,0.02,0.9999999999834023,471.3838923630814,1.2567183475421988,253,2026-10-08 02:02:08.462244,25.0,0.32545638761640916,1.5897946725255352,1.9615120757874749
0188,cdot_cos,T,S-T,254,50,52678,-0.10480981212926549,0.01557640463082826,-0.10355447704685086,0.06985869696935225,1019.0,9.5626294688829,0.6456566608349177,10.290114698353737,-0.0767942559521265,0.3,0.999999999983063,585.3363765222061,1.2616860779595391,254,2026-10-08 02:02:08.762244,25.0,0.5460011859681451,0.19837862139402124,0.0812051512842397
0188,cdot_cos,P,T-P,255,51,53198,0.01866797575733716,0.0009176684282784987,0.12347778788660266,0.9563510028887737,1038.0,9.65729509633404,0.6467427076675989,10.32769441641178,-0.29985414110872,0.52,0.9999999999829856,-205.3869855740089,1.266654339884268,255,2026-10-08 02:02:09.282243,25.0,0.4752593474382252,0.12953909415755513,0.1820492835598862
0188,cdot_cos,Q,P-Q,256,51,53328,-0.02195521448609794,-0.01587899428608241,-0.0406231902434351,0.26588930426460117,1038.0,9.697350126806757,0.6470443872063731,10.352753285020956,-0.12771449660725825,0.13,0.9999999999826451,570.60430813731,1.2716216658556063,256,2026-10-08 02:02:09.412243,25.0,0.25979891793033993,0.47628887644395834,0.30811561902089635
0188,cdot_cos,R,Q-R,257,51,53382,0.037223093562499386,0.07621360567332544,0.059178308048597326,0.8144906557059545,1038.0,9.78113020420947,0.6479677830861754,10.387757148581311,-0.2685189959699626,0.054,0.9999999999825153,-152.48551833787016,1.2765888089699542,257,2026-10-08 02:02:09.466244,25.0,0.5919255308170919,1.1534218065090716,1.551482914865049
0188,cdot_cos,S,R-S,258,51,53403,-0.00196154697011026,-0.005817869708096125,-0.039184640532609644,0.2729679816543612,1038.0,9.821919681909737,0.6482770025899801,10.412913957338786,-0.13151548699168997,0.021,0.9999999999822184,443.06231428663796,1.2815558725102068,258,2026-10-08 02:02:09.487243,25.0,0.35284405401355307,1.6121118415577924,1.9423560809650993
0188,cdot_cos,T,S-T,259,51,53677,-0.09035633068485394,0.01867296764569465,-0.08839478371474367,0.09886769091610811,1038.0,9.848838901554897,0.6483889697531947,10.434876340438576,-0.08708147536571365,0.274,0.9999999999818725,396.84859694813355,1.2865235603189404,259,2026-10-08 02:02:09.761244,25.0,0.6003407249251668,0.2208316482664559,0.0982453271721175
0188,cdot_cos,P,T-P,260,52,54236,0.018064285136662094,-0.00038395424116031686,0.10842061582151603,0.9376442892941338,1019.0,9.942935425159755,0.6494500346106227,10.47211129085546,-0.3058421078026165,0.559,0.9999999999817897,-206.17083951605184,1.291491960128672,260,2026-10-08 02:02:10.320243,25.0,0.48905853186625553,0.1187282294625049,0.16833009589419973
0188,cdot_cos,Q,P-Q,261,52,54347,-0.027301514019934907,-0.01728767381844671,-0.045365799156597,0.24339697114219833,1019.0,9.981577062093978,0.6497252285476838,10.496678149690917,-0.12639373015692423,0.111,0.999999999981424,652.0796917333564,1.2964592449516192,261,2026-10-08 02:02:10.431243,25.0,0.24177277106226558,0.568261581349976,0.34812285526326886
0188,cdot_cos,R,Q-R,262,52,54405,0.04234816921850755,0.0731576556548332,0.06964968323844245,0.850844764120774,1019.0,10.06908949621945,0.6506864425370646,10.532326240561583,-0.28769283063468565,0.058,0.9999999999813037,-167.80769137750062,1.3014263982296814,262,2026-10-08 02:02:10.489243,25.0,0.5708297337410482,1.0897948958319643,1.5088350711288245
0188,cdot_cos,S,R-S,263,52,54427,-0.0027492286284673535,-0.006594749004552301,-0.045097397846974904,0.24463478309229933,1019.0,10.107993270010486,0.650962584478371,10.556885225146493,-0.12865356613906903,0.022,0.9999999999809831,575.933028294307,1.3063934614646415,263,2026-10-08 02:02:10.511244,25.0,0.2904911043861746,1.506551588403606,1.768353354138002
0188,cdot_cos,T,S-T,264,52,54735,-0.09000448378965739,0.021436480697329258,-0.08725525516119004,0.10143495152107955,1019.0,10.135377766109208,0.6510770538058169,10.578796104752058,-0.09084343806797807,0.308,0.9999999999806228,330.3079428761307,1.3113612552354272,264,2026-10-08 02:02:10.819244,25.0,0.6595404401621804,0.19806507799508638,0.08891070161922929
0188,cdot_cos,P,T-P,265,53,55255,0.015348320068456359,-0.0009041956890954552,0.10535280385811376,0.9330067205570689,980.0,10.230001358055459,0.6521291331314572,10.615940165253166,-0.31534561194463157,0.52,0.9999999999805312,-213.38901773403586,1.3163295986388912,265,2026-10-08 02:02:11.339243,25.0,0.49069908314927563,0.12877499257927164,0.18196844605048187
0188,cdot_cos,Q,P-Q,266,53,55386,-0.029233680817416317,-0.018392572685546272,-0.04458200088587268,0.24702359725423706,980.0,10.26930375839165,0.6524074346170629,10.640491887888647,-0.1317926682386947,0.131,0.9999999999801539,659.5471213761117,1.3212969403182653,266,2026-10-08 02:02:11.470243,25.0,0.24839372918077182,0.48696341706333435,0.3000183231770376
0188,cdot_cos,R,Q-R,267,53,55423,0.04017575136145141,0.07481889087603806,0.06940943217886773,0.8500809125297367,980.0,10.357585773326052,0.6533643557384144,10.676110468805193,-0.2974937195983004,0.037,0.9999999999800278,-173.16061654649516,1.3262640388909301,267,2026-10-08 02:02:11.507244,25.0,0.5729309461887199,1.72989749288037,2.3860004036324782
0188,cdot_cos,S,R-S,268,53,55445,-0.0037067304506359588,-0.01000361556976052,-0.04388248181208737,0.250290783269084,980.0,10.397316172864798,0.6536458679217192,10.700692978168062,-0.13466357857496625,0.022,0.9999999999796968,578.4124122509697,1.3312310993620404,268,2026-10-08 02:02:11.529243,25.0,0.2984471426659277,1.7256108004482973,1.8059272517611678
0188,cdot_cos,T,S-T,269,53,55755,-0.05757066881857442,0.010468538733499164,-0.053863938367938465,0.20642703849822563,980.0,10.433512648545777,0.6538779638695019,10.72444490408672,-0.12309559522456623,0.31,0.9999999999793603,49.84138439689223,1.3361989216430314,269,2026-10-08 02:02:11.839243,25.0,0.9103049665202755,0.2066100496425613,0.11676282477735288
0188,cdot_cos,P,T-P,270,54,56235,0.02547268791984386,0.0018456171848477672,0.08304335673841828,0.8885568385205207,1018.0,10.525414403643186,0.6548761743896122,10.760763424592643,-0.31402924933942195,0.48,0.999999999979249,-191.27593856029523,1.3411672014919165,270,2026-10-08 02:02:12.319244,25.0,0.5444319478903528,0.14537690323280045,0.19146198978626794
0188,cdot_cos,Q,P-Q,271,54,56384,-0.00023696942146000683,-0.0003094795782655893,-0.025709657341303867,0.3446270977814364,1018.0,10.573074475649266,0.6552629640526714,10.787041173701816,-0.16385249194022689,0.149,0.9999999999789002,388.26466098248517,1.3461345993089922,271,2026-10-08 02:02:12.468243,25.0,0.3999017831241191,0.4291966625181668,0.3198662550743611
0188,cdot_cos,R,Q-R,272,54,56420,0.041928616544815014,0.09121271855669505,0.042165585966275024,0.7415690327792759,1018.0,10.6533150090736,0.6560945610059207,10.8206404646436,-0.27721615271138766,0.036,0.9999999999787279,-136.32043783736148,1.3511016940073568,272,2026-10-08 02:02:12.504243,25.0,0.6643567590299113,1.6710599497466019,2.2289037062314976
0188,cdot_cos,S,R-S,273,54,56443,-0.002033916731252973,-0.006893012279773986,-0.043962533276067986,0.24991543893031007,1018.0,10.693390792031021,0.6563746015428884,10.845140046861012,-0.13918533569790859,0.023,0.9999999999783857,492.8958446804617,1.3560687546235017,273,2026-10-08 02:02:12.527244,25.0,0.37094362945152254,1.3207122480772102,1.7424253459748447
0188,cdot_cos,T,S-T,274,54,56694,-0.1736779519181004,-0.0018051719527716697,-0.17164403518684743,0.01350496522948909,1018.0,10.714067772485151,0.6563897313180205,10.865235119394555,-0.07201526840695072,0.251,0.9999999999779599,4439.594554751185,1.3610364383751852,274,2026-10-08 02:02:12.778244,25.0,0.39348205820603516,0.24286412556476555,0.08237840818378583
0188,cdot_cos,P,T-P,275,55,57253,0.018673850007635145,0.0010112366963334156,0.19235180192573553,0.9919083259215552,1039.0,10.815308583064533,0.6575001086807768,10.903458297350772,-0.35406770839357105,0.559,0.9999999999778958,-254.01494072832472,1.3660049729896042,275,2026-10-08 02:02:13.337244,25.0,0.45085660416128137,0.1328350873686018,0.18111057348726664
0188,cdot_cos,Q,P-Q,276,55,57383,-0.008817699963486728,-0.008372536195034658,-0.027491549971121874,0.33463647561933824,1039.0,10.862577400163248,0.6578743246341776,10.929483525162922,-0.16636564315759858,0.13,0.9999999999775235,501.58755534115147,1.3709723263828324,276,2026-10-08 02:02:13.467244,25.0,0.3235990044233566,0.5028603585748406,0.36360628537472905
0188,cdot_cos,R,Q-R,277,55,57437,0.03994537798634641,0.08120039502999983,0.04876307794983314,0.7719010687596528,1039.0,10.946052276293992,0.6587367736793629,10.963619639305772,-0.2952082991152081,0.054,0.9999999999773592,-149.39161528079507,1.3759394699236231,277,2026-10-08 02:02:13.521244,25.0,0.6463290163701887,1.1550212537832032,1.5458310394582182
0188,cdot_cos,S,R-S,278,55,57457,-0.0019081724073645979,-0.0055976409773581546,-0.04185355039371101,0.25992877895213984,1039.0,10.987319695571834,0.6590269575331715,10.98823004981892,-0.146716658589458,0.02,0.9999999999770051,511.71572290054047,1.3809065193061885,278,2026-10-08 02:02:13.541243,25.0,0.3634556397506943,1.6714648324613002,2.0633709638921083
0188,cdot_cos,T,S-T,279,55,57732,-0.10507783698418974,0.024622866036122,-0.10316966457682514,0.07048640266975996,1039.0,11.012910869592444,0.6591056278540235,11.009289238368872,-0.09125073595341744,0.275,0.9999999999765851,705.042537457242,1.3858742888364919,279,2026-10-08 02:02:13.816243,25.0,0.5445253260869939,0.2271609723620345,0.09305881462039942
0188,cdot_cos,P,T-P,280,56,58292,0.020004420001658123,1.1370708968225337e-05,0.12508225698584785,0.9579951015957757,1018.0,11.112258230370953,0.6601739818385675,11.046879233938636,-0.35571391454716306,0.56,0.9999999999765012,-247.54265198592668,1.3908428725348532,280,2026-10-08 02:02:14.376243,25.0,0.47546045812851817,0.1338124941322508,0.17740600139019488
0188,cdot_cos,Q,P-Q,281,56,58442,-0.0015304511143595003,-0.0020224722003315413,-0.021534871116017623,0.36856642944643236,1018.0,11.162780863020565,0.6605845732763262,11.073472865205717,-0.1820152163226023,0.15,0.9999999999761278,423.0451057934718,1.3958102900735903,281,2026-10-08 02:02:14.526243,25.0,0.38507827037079173,0.44883080796343106,0.3368175509974118
0188,cdot_cos,R,Q-R,282,56,58468,0.046943992729698805,0.08866210252137013,0.04847444384405831,0.7706280828919284,1018.0,11.246907472759982,0.6614422901757415,11.107562867557201,-0.3045346827063669,0.026,0.9999999999759521,-142.84371273002688,1.4007773523900142,282,2026-10-08 02:02:14.552243,25.0,0.6687687421781986,2.376639613396813,3.2356388361314443
0188,cdot_cos,S,R-S,283,56,58487,-0.0005376227598553469,-0.001414007310440316,-0.04748161548955415,0.2337886779783132,1018.0,11.2863661229172,0.6617022900963738,11.131613448211883,-0.14357263854889024,0.019,0.9999999999755739,619.0849742031734,1.4057443956541587,283,2026-10-08 02:02:14.571244,25.0,0.3259148209086034,1.6078332226054926,2.0767710609061436
0188,cdot_cos,T,S-T,284,56,58790,-0.15518817042148728,0.014973955638670244,-0.15465054766163192,0.020507102602733834,1018.0,11.308005135218991,0.6617250916994236,11.151647393586673,-0.07894587709225247,0.303,0.999999999975114,2834.3078035130975,1.4107122666999157,284,2026-10-08 02:02:14.874244,25.0,0.44103938064603887,0.20516078956199021,0.07141588218413199
0188,cdot_cos,P,T-P,285,57,59310,0.01906276365800268,0.00034215907568926066,0.17425093407948997,0.987336328435118,1019.0,11.410693561391765,0.6628220089095251,11.189782302010093,-0.3761004474245598,0.52,0.9999999999750355,-270.8997247885325,1.415680778760506,285,2026-10-08 02:02:15.394243,25.0,0.453802300667991,0.14810009467487792,0.19747774263995013
0188,cdot_cos,Q,P-Q,286,57,59461,-0.0017251194324096328,-0.0023143912508149975,-0.020787883090412313,0.37292306988253515,1019.0,11.462029233680864,0.6632358664142028,11.216397061881901,-0.18917951371502043,0.151,0.9999999999746525,451.6552958369213,1.420648208045683,286,2026-10-08 02:02:15.545243,25.0,0.3722978098684729,0.4412035171318407,0.33997133966290705
0188,cdot_cos,R,Q-R,287,57,59490,0.03916775068034198,0.07833993618572958,0.04089287011275161,0.7354246019779264,1019.0,11.543937023565581,0.6640512822693148,11.249803370166154,-0.3032376280947756,0.029,0.9999999999744551,-139.87723400853088,1.42561527666844,287,2026-10-08 02:02:15.574244,25.0,0.6865100348077258,2.1439461865958154,2.8244065477488594
0188,cdot_cos,S,R-S,288,57,59511,-0.0016149802788050537,-0.004653473485638201,-0.04078273095914703,0.2651115040593101,1019.0,11.586378112503422,0.664344990314167,11.274369555383968,-0.15790584005182015,0.021,0.9999999999740745,494.8171852631542,1.430582322640195,288,2026-10-08 02:02:15.595244,25.0,0.3983716414560647,1.6016780758067264,2.0210042351352557
0188,cdot_cos,T,S-T,289,57,59809,-0.1145751965114978,0.019315459214101226,-0.11296021623269276,0.05604066998041359,1019.0,11.611207502749464,0.6644070596046664,11.294981197013737,-0.09264030984014147,0.298,0.9999999999736113,1051.4947035260163,1.4355502018072444,289,2026-10-08 02:02:15.893243,25.0,0.49435338542189866,0.2125903840392324,0.0833201014967857
0188,cdot_cos,P,T-P,290,58,60329,0.020573676704937538,-0.0006191424293959747,0.13514887321643534,0.9670328811029721,999.0,11.713081981390804,0.6654772256426609,11.332730978900745,-0.3815709979329027,0.52,0.9999999999735216,-269.98678507330055,1.44051875745548,290,2026-10-08 02:02:16.413243,25.0,0.4689714247751745,0.13949216607594533,0.19591245892565454
0188,cdot_cos,Q,P-Q,291,58,60439,-0.01889244209784825,-0.011204590988138427,-0.03946611880278579,0.2715736854106263,999.0,11.756279355468447,0.6657774570415687,11.357376784417767,-0.16272964956862723,0.11,0.9999999999730776,728.9089321117129,1.4454860704107844,291,2026-10-08 02:02:16.523244,25.0,0.2605877925761115,0.6062971677159594,0.3927034007058436
0188,cdot_cos,R,Q-R,292,58,60497,0.0430651943023463,0.07707598180547243,0.061957636400194555,0.8247607136968472,999.0,11.846467358288315,0.6666884266148394,11.392441239675431,-0.3412143289354269,0.058,0.9999999999729202,-195.9282555683696,1.4504532261196872,292,2026-10-08 02:02:16.581243,25.0,0.5926882671316728,1.1276851048876109,1.5549655658597978
0188,cdot_cos,S,R-S,293,58,60519,-0.003171137212602677,-0.00806469172332735,-0.04623633151494898,0.23941156539620992,999.0,11.88709082763541,0.6669526302813416,11.416454603364949,-0.15448423653144805,0.022,0.999999999972511,706.7657117561597,1.4554202721821987,293,2026-10-08 02:02:16.603244,25.0,0.29857553249284113,1.4791983830785587,1.8465213339588455
0188,cdot_cos,T,S-T,294,58,60828,-0.12159066111334796,0.012918504279600744,-0.11841952390074528,0.04924314917842293,999.0,11.911552087143772,0.6670069597696346,11.436851436584977,-0.09326971539694755,0.309,0.9999999999720259,1126.7273640470428,1.4603882079018096,294,2026-10-08 02:02:16.912243,25.0,0.5187582890164826,0.2059300172026783,0.07916265213062128
0188,cdot_cos,P,T-P,295,59,61328,0.014407712921686584,0.00011022785341351396,0.13599837403503454,0.9677032648919596,1019.0,12.014355578266665,0.6680737153786583,11.474608450235769,-0.39344573206458544,0.5,0.9999999999719329,-281.39155222475165,1.465356744060983,295,2026-10-08 02:02:17.412243,25.0,0.46629287894733484,0.14849854498575077,0.20560698224578644
0188,cdot_cos,Q,P-Q,296,59,61458,-0.020148078774828222,-0.011648941289703509,-0.03455579169651481,0.2965262547164014,1019.0,12.060050632129522,0.6684002491772038,11.49966022456361,-0.17588090094642922,0.13,0.9999999999714878,666.2857936523756,1.470324125149894,296,2026-10-08 02:02:17.542243,25.0,0.2902534156122222,0.526460302286696,0.35150041432967344
0188,cdot_cos,R,Q-R,297,59,61505,0.04254896504926403,0.08184534589877834,0.06269704382409225,0.8274163682128618,1019.0,12.151235256861206,0.6693105404017413,11.534756851892864,-0.3524763616901112,0.047,0.9999999999713239,-193.99886100560212,1.4752912463311372,297,2026-10-08 02:02:17.589243,25.0,0.605916174754065,1.4149592733013394,1.940098398546456
0188,cdot_cos,S,R-S,298,59,61525,-0.0015307449913280185,-0.004160151032277441,-0.04407971004059205,0.24936669912552378,1019.0,12.193056803819848,0.6695846358882201,11.558890881942217,-0.1624823377517817,0.02,0.9999999999709058,693.1672840698268,1.4802582830757616,298,2026-10-08 02:02:17.609244,25.0,0.31057772469265593,1.7624368456220285,2.0910773479321243
0188,cdot_cos,T,S-T,299,59,61807,-0.09128304153506966,0.018491031251497505,-0.08975229654374164,0.09588496483565807,1019.0,12.221732730686087,0.6696899987788942,11.580090493604894,-0.1117145594202459,0.282,0.999999999970425,481.8373718368499,1.4852261570889456,299,2026-10-08 02:02:17.891244,25.0,0.634802142576552,0.23039206214805943,0.10168768392283212
0188,cdot_cos,P,T-P,300,60,62347,0.018520866505549002,8.50491729077708e-07,0.10980390804061867,0.939635888575633,1018.0,12.322997926871354,0.6707216123736615,11.61730798484242,-0.39597376777851445,0.54,0.9999999999703199,-275.54814108708024,1.4901948649882397,300,2026-10-08 02:02:18.431243,25.0,0.48778827116682866,0.13876217558444748,0.1875281410838275
0188,cdot_cos,Q,P-Q,301,60,62477,-0.010588344117743533,-0.009390724313478734,-0.029109210623292536,0.325693002494809,1018.0,12.37159588031729,0.671078803338576,11.642853161759408,-0.19108570517174575,0.13,0.9999999999698692,573.6093091151358,1.4951622533561764,301,2026-10-08 02:02:18.561243,25.0,0.3422440362743964,0.5278481347714657,0.37383041112258786
0188,cdot_cos,R,Q-R,302,60,62523,0.04217077830145654,0.07974997423327426,0.05275912241920007,0.789011632170615,1018.0,12.460238441911935,0.671943300715184,11.677201014275541,-0.35000563865411277,0.046,0.9999999999696809,-183.82928367683195,1.5001293705719891,302,2026-10-08 02:02:18.607244,25.0,0.6350512098759571,1.4236402641877455,1.927012208579232
0188,cdot_cos,S,R-S,303,60,62543,-0.001516587808661978,-0.0040155414162561425,-0.04368736611011852,0.2512072113568381,1018.0,12.502570784622563,0.6722182970801776,11.701304920219936,-0.16795924326633455,0.02,0.9999999999692467,661.9956427135916,1.505096404031062,303,2026-10-08 02:02:18.627244,25.0,0.3382830041716283,1.7154397087872475,2.1166171355313956
0188,cdot_cos,T,S-T,304,60,62826,-0.10784284382517677,0.01896496889865414,-0.10632625601651478,0.06548807024105165,1018.0,12.528856030263425,0.6722899674147219,11.721847559602235,-0.10456538844372704,0.283,0.9999999999687327,884.5201466636088,1.5100643028927005,304,2026-10-08 02:02:18.910244,25.0,0.5453865848774149,0.23002334749721426,0.09288072664615545
0188,cdot_cos,P,T-P,305,61,63365,0.019714115157066715,-0.0002650560212150812,0.12755695898224348,0.9604153326739693,998.0,12.632763999305986,0.6733401247216234,11.759452207083694,-0.4148203050974174,0.539,0.9999999999686345,-295.4366118435158,1.515033053599224,305,2026-10-08 02:02:19.449243,25.0,0.4733472289199317,0.14111679392205032,0.1927791633442695
0188,cdot_cos,Q,P-Q,306,61,63496,-0.01105436128514308,-0.009162340473948991,-0.030768476442209793,0.31664961037981193,998.0,12.680979934111395,0.6736859823041937,11.784766397595272,-0.1935455022927815,0.131,0.9999999999681634,639.7858944140385,1.5200004524320399,306,2026-10-08 02:02:19.580243,25.0,0.31877486169997304,0.5245641833560123,0.3680605710336563
0188,cdot_cos,R,Q-R,307,61,63537,0.041280569831892454,0.07738466094562202,0.052334931117035535,0.7872408190982577,998.0,12.770199815345261,0.6745450194973198,11.8190586412247,-0.35959503703243945,0.041,0.9999999999679666,-193.29725891773757,1.5249675519756203,307,2026-10-08 02:02:19.621243,25.0,0.6301684280116022,1.6042490678829289,2.1760946642406402
0188,cdot_cos,S,R-S,308,61,63556,-0.0032679945711153536,-0.008680137404111603,-0.044548564403007807,0.24717911223393058,998.0,12.812528357677795,0.6748144998146777,11.84302154378615,-0.17141103663229101,0.019,0.9999999999675152,698.3218746557039,1.5299345787540217,308,2026-10-08 02:02:19.640243,25.0,0.3335867599793524,1.8398039623935416,2.227818017501785
0188,cdot_cos,T,S-T,309,61,63823,-0.1021156676161757,0.0172377363955611,-0.09884767304506034,0.07790257868841624,998.0,12.840112365916216,0.6748994070234612,11.863724014526943,-0.11199279257829271,0.267,0.9999999999669879,699.8021122740715,1.5349024453665412,309,2026-10-08 02:02:19.907244,25.0,0.5882788678809269,0.24670539086129337,0.10331089227872908
0188,cdot_cos,P,T-P,310,62,64363,0.018744660144111327,-4.627782773593683e-05,0.12086032776028703,0.9535363913561898,1060.0,12.944269036397726,0.6759377484706862,11.901188225742358,-0.4243469437688977,0.54,0.9999999999668854,-300.8202668066187,1.5398712461435313,310,2026-10-08 02:02:20.447244,25.0,0.478986909992602,0.14687410167996662,0.19288272311390742
0188,cdot_cos,Q,P-Q,311,62,64514,-0.00023876069195819316,-0.0002978725755307359,-0.01898342083606952,0.38353148814794075,1060.0,12.99873639573058,0.6763549030699378,11.927727040732439,-0.22312226185734324,0.151,0.9999999999664339,482.3743577861831,1.544838721254309,311,2026-10-08 02:02:20.598243,25.0,0.40581479991210057,0.47433368405386295,0.36071098895929776
0188,cdot_cos,R,Q-R,312,62,64536,0.0489745882522664,0.07994840364584338,0.04921334894422459,0.7738769783682002,1060.0,13.087517808981993,0.6771957700402682,11.961741081887958,-0.3651988206441953,0.022,0.9999999999662214,-168.9643710598262,1.549805753856147,312,2026-10-08 02:02:20.620243,25.0,0.6777078856528866,2.9242329678935293,4.03551878415512
0188,cdot_cos,S,R-S,313,62,64555,-0.0027329031587528347,-0.006068474215759673,-0.051707491411019234,0.2153983072348078,1060.0,13.127402646317895,0.6774296106341445,11.985032087298885,-0.16481172101062178,0.019,0.9999999999657393,856.9388929090637,1.5547727773794995,313,2026-10-08 02:02:20.639244,25.0,0.2964565353317756,1.642255825854153,2.0992019650475076
0188,cdot_cos,T,S-T,314,62,64863,-0.16312217382846936,0.011100293956159121,-0.16038927066971653,0.017815124510891605,1060.0,13.14992353036445,0.6774489471067393,12.004504718314564,-0.09327944794990826,0.308,0.9999999999651612,3699.3444750638305,1.5597408070473995,314,2026-10-08 02:02:20.947244,25.0,0.4644692361784494,0.21211675196643817,0.07311975339790638
0188,cdot_cos,P,T-P,315,63,65423,0.017947695829210204,-9.9292399900394e-05,0.18106986965767957,0.9892999244253413,1078.0,13.258066565529221,0.6785217752088331,12.04264686837955,-0.44935668902819403,0.56,0.9999999999650686,-331.9052142494775,1.564709724010615,315,2026-10-08 02:02:21.507244,25.0,0.4527498201915348,0.14513313631957037,0.19311256279423347
0188,cdot_cos,Q,P-Q,316,63,65553,-0.0019924352565495224,-0.0018793350068658597,-0.019940131085759726,0.37789246864034637,1078.0,13.31247264304237,0.6789310777961911,12.06902532498466,-0.22730775589514066,0.13,0.9999999999645934,542.5055692081627,1.5696771337609192,316,2026-10-08 02:02:21.637243,25.0,0.3764896411789494,0.5528350032410692,0.4185082885626775
0188,cdot_cos,R,Q-R,317,63,65597,0.046814261088319424,0.07478433013967078,0.04880669634486895,0.772093008892781,1078.0,13.4018036663719,0.67976649163147,12.1029811752664,-0.3747263541118713,0.044,0.9999999999643722,-176.46176301057272,1.57464424101127,317,2026-10-08 02:02:21.681243,25.0,0.6747565383307438,1.4825501613699796,2.030250530216589
0188,cdot_cos,S,R-S,318,63,65616,-0.002444268119289873,-0.005157391673620549,-0.0492585292076093,0.22592542883795322,1078.0,13.442937057242927,0.6800107281085858,12.126411300018312,-0.17331965861132867,0.019,0.9999999999638721,824.6380634005355,1.579611260526494,318,2026-10-08 02:02:21.700243,25.0,0.3128431343577599,1.94588165234649,2.1649153090014894
0188,cdot_cos,T,S-T,319,63,65862,-0.07785757102438172,0.035827460598425905,-0.07541330290509185,0.13177756307506353,1078.0,13.475747169161066,0.6801531405739991,12.14800639997201,-0.1385969557744806,0.246,0.9999999999633331,243.81786198325185,1.5845790932495212,319,2026-10-08 02:02:21.946244,25.0,0.778388085860686,0.27580334525751943,0.1333744386916192
0188,cdot_cos,P,T-P,320,64,66501,0.020013269042666815,-0.00022343776272504073,0.09787084006704853,0.9203249995196275,1059.0,13.578632303109627,0.6811468016572225,12.18480822933092,-0.43607736703292144,0.639,0.9999999999632055,-299.37814440052654,1.5895483457188155,320,2026-10-08 02:02:22.585243,25.0,0.5055170705900746,0.12238152960799539,0.16100959929352307
0188,cdot_cos,Q,P-Q,321,64,66632,-0.002480734651893658,-0.002409981421650483,-0.022494003694560474,0.3630038682591538,1059.0,13.632150764000084,0.6815382796396742,12.210848889931075,-0.22799985039671725,0.131,0.999999999962693,531.5178016733128,1.5945157658299687,321,2026-10-08 02:02:22.716243,25.0,0.4014704746847767,0.5528292900771055,0.40853786939280046
0188,cdot_cos,R,Q-R,322,64,66673,0.0496807542991438,0.07990539571859603,0.052161488951037456,0.7865136570950109,1059.0,13.723473577109829,0.6823856081903427,12.245059142686415,-0.39056899004997025,0.041,0.9999999999624668,-191.86080715089292,1.599482860366667,322,2026-10-08 02:02:22.757244,25.0,0.659524155961811,1.609915944203084,2.227385685603531
0188,cdot_cos,S,R-S,323,64,66692,-0.0015809842080585286,-0.003405728131062385,-0.05126173850720233,0.2172876066216623,1059.0,13.764163871424737,0.682619484374174,12.268261641780182,-0.17479541426930845,0.019,0.9999999999619396,922.5974712170741,1.6044498756923296,323,2026-10-08 02:02:22.776243,25.0,0.29099913282363976,1.8198981845253552,2.141594437626743
0188,cdot_cos,T,S-T,324,64,67001,-0.09913124830821886,0.03058966821894356,-0.09755026410016034,0.08026465466899362,1059.0,13.792629708121792,0.6827058534342453,12.28879253987517,-0.12257219725204684,0.309,0.9999999999613459,604.6519086133711,1.6094179579902321,324,2026-10-08 02:02:23.085243,25.0,0.6530765880416554,0.21812244556555213,0.09212244885778441
0188,cdot_cos,P,T-P,325,65,67560,0.018554104387391395,-0.0003036925968092005,0.11768535269561026,0.9498903911644235,1019.0,13.898963542784248,0.6837270296441805,12.326152784416191,-0.45930998863413525,0.559,0.9999999999612151,-329.7548337944933,1.6143869703134637,325,2026-10-08 02:02:23.644243,25.0,0.48039893646287773,0.1383718133449471,0.19022152891315888
0188,cdot_cos,Q,P-Q,326,65,67670,-0.015163603624059649,-0.008477530648175854,-0.03371770801145105,0.30091537949918407,1019.0,13.947329395441443,0.6840501590021206,12.350938315361446,-0.2099688080158605,0.11,0.9999999999606527,771.6450842095772,1.6193543190223503,326,2026-10-08 02:02:23.754244,25.0,0.3049780900528353,0.6506864678605466,0.4396895696108642
0188,cdot_cos,R,Q-R,327,65,67729,0.044755300139122475,0.077824445406031,0.059918903763182124,0.8172719010836414,1019.0,14.042114565713568,0.6849268655141912,12.385720726583893,-0.4129827070812466,0.059,0.9999999999604374,-231.56426497381221,1.6243214793030043,327,2026-10-08 02:02:23.813244,25.0,0.6116594162309945,1.1613014723910073,1.606528309697037
0188,cdot_cos,S,R-S,328,65,67751,-0.0033189168621685448,-0.008012338265080314,-0.04807421700129102,0.23114531116529333,1019.0,14.084362969183582,0.6851745820226708,12.409131005525827,-0.18490104545937355,0.022,0.9999999999598952,920.7366235775384,1.6292885019024235,328,2026-10-08 02:02:23.835244,25.0,0.2912615405474879,1.6010186854116866,1.9203819759097132
0188,cdot_cos,T,S-T,329,65,68039,-0.1038991095415572,0.02541178409818385,-0.10058019267938866,0.07484757351294932,1019.0,14.112559387871682,0.685254772978452,12.429487323746047,-0.12369453822932566,0.288,0.9999999999592731,763.2594802460964,1.6342565293314688,329,2026-10-08 02:02:24.123244,25.0,0.6096807590997695,0.2363591642212516,0.0979042315559046
0188,cdot_cos,P,T-P,330,66,68579,0.021927109293222787,0.00180036501149378,0.12582621883477998,0.9587371935386825,1059.0,14.220505847775023,0.6862809765916388,12.467005773346829,-0.47499194771140313,0.54,0.9999999999591437,-342.32719995125933,1.63922551879256,330,2026-10-08 02:02:24.663244,25.0,0.47731146666094204,0.14998329315905468,0.19990085167285257
0188,cdot_cos,Q,P-Q,331,66,68729,-0.0011628213889125325,-0.0014190430035324491,-0.02308993068213532,0.3595660128609354,1059.0,14.274541344483461,0.6866653766124748,12.492876925833052,-0.23897046608372277,0.15,0.9999999999586007,613.9996587782138,1.644193025901657,331,2026-10-08 02:02:24.813244,25.0,0.3724473371378223,0.47570555385931357,0.3602366447229244
0188,cdot_cos,R,Q-R,332,66,68765,0.041028464938603265,0.08242061125695059,0.0421912863275158,0.7416921469257465,1059.0,14.363217513932817,0.687457485165899,12.526167391175617,-0.3935885193908808,0.036,0.999999999958326,-195.19806046629583,1.6491600975726313,332,2026-10-08 02:02:24.849244,25.0,0.6751354925943215,1.8542779288388052,2.4632269291487616
0188,cdot_cos,S,R-S,333,66,68786,-0.0016162136628079492,-0.00461583359187156,-0.04264467860141122,0.25614223114919177,1059.0,14.408049355359855,0.6877307847961779,12.550005025763186,-0.19981849116700334,0.021,0.9999999999577803,709.0021601059042,1.6541271127684423,333,2026-10-08 02:02:24.870244,25.0,0.379185323152544,1.7113161119165656,2.1348495917637407
0188,cdot_cos,T,S-T,334,66,69078,-0.11183346794913161,0.022412967218580108,-0.11021725428632366,0.05978063943024638,1059.0,14.435092790633313,0.6877945509930177,12.5699999360943,-0.12082237860021167,0.292,0.9999999999571271,1238.8399572467763,1.6590951784626942,334,2026-10-08 02:02:25.162244,25.0,0.5200552584326593,0.23371766496970195,0.09261450436115481
0188,cdot_cos,P,T-P,335,67,69638,0.02238623930671538,-0.00030409758457616696,0.134219707255847,0.9662842409769267,1019.0,14.544540471702161,0.6888242695324318,12.607651297300661,-0.49040500051003577,0.56,0.9999999999569961,-358.91615792418355,1.6640642935683392,335,2026-10-08 02:02:25.722244,25.0,0.47065621688250814,0.1461653336666194,0.19544228762294413
0188,cdot_cos,Q,P-Q,336,67,69768,-0.001058194007699359,-0.00109866664724888,-0.02344443331441474,0.35752770654402166,1019.0,14.598797964339926,0.6892047958281905,12.63343250082767,-0.24432260515772825,0.13,0.9999999999564289,646.6895930586669,1.6690317310703835,336,2026-10-08 02:02:25.852243,25.0,0.3652392240288958,0.5646203535194038,0.4173653279828079
0188,cdot_cos,R,Q-R,337,67,69807,0.048829955986002586,0.08428799944067718,0.04988814999370195,0.7768154415836035,1019.0,14.691341763617206,0.6900306996993478,12.667380131480144,-0.4182126613573049,0.039,0.9999999999561678,-210.54515213242252,1.6739988123868723,337,2026-10-08 02:02:25.891244,25.0,0.6598165874281817,1.724041052964386,2.3729179301866656
