record_id,input,event,transition,event_index,k,peak,value_cos,value_sin,value_return,x_input,rr,knowledge,decision,decision_norm,entropy,delta_t,cosine_similarity,delta_h_over_delta_d,frobenius_norm,matrix_size,timestamp,scale,P,zdot,zdot_back
0114,cdot_cos,Q,P-Q,1,0,1433,-0.027864945941168576,-0.02358418720453699,-0.07720347537492306,0.12674096364841694,957.0,0.0006295403041045085,0.5001573850708282,0.5001573850708282,,,1.0,,0.004967141530112327,1,2026-10-07 22:01:17.517244,25.0,,,
0114,cdot_cos,R,Q-R,2,0,1466,0.059933354744846984,0.11138636086745285,0.08779830068601556,0.899795779478657,957.0,0.007211008895172146,0.501274735560389,0.7089095295044889,-9.305742404720262e-06,,1.0000000000000002,,0.009934283060224654,2,2026-10-07 22:01:17.550244,25.0,,,
0114,cdot_cos,S,R-S,3,0,1494,0.01210596438224043,-0.0910366451580738,-0.04782739036260655,0.23224376323359347,957.0,0.01082971856792588,0.5015631301401609,0.8687328246060395,-1.1773025763911721e-05,0.028,1.0,-0.00855523484922521,0.014901424594223145,3,2026-10-07 22:01:17.578244,25.0,0.8109321592419316,0.13500742590044093,0.12923963116977621
0114,cdot_cos,T,S-T,4,0,1762,-0.03664925785508408,0.0041448034314001654,-0.04875522223732451,0.22813351193181075,957.0,0.014771424745596838,0.5018464196996759,1.0036928393997677,-1.8197940393955952e-05,0.268,0.9999999999999999,-0.02267967319742525,0.019868566185017335,4,2026-10-07 22:01:17.846244,25.0,0.7025369782039604,0.029259255281235318,0.014707858871906556
0114,cdot_cos,P,T-P,5,1,2261,0.05130158459314257,-0.0052429579343481894,0.08795084244822665,0.9001390974757268,977.0,0.026512679398668013,0.5029641729401793,1.1246620809491947,-8.741111512840969e-05,0.499,0.9999999999999999,-0.061921694544393495,0.024835707942574833,5,2026-10-07 22:01:18.345243,25.0,0.4530231480312233,0.01665102777705579,0.023529568443028406
0114,cdot_cos,Q,P-Q,6,1,2372,-0.005971444370508194,-0.005114513473799625,-0.05727302896365076,0.19281437465606385,977.0,0.03138915046709852,0.503203597899186,1.23259205162449,-5.091721764160037e-05,0.111,1.0000000000000004,0.15242311260364597,0.029802849521053557,6,2026-10-07 22:01:18.456243,25.0,0.48834654024243923,0.08718338635591488,0.043932171787662205
0114,cdot_cos,R,Q-R,7,1,2407,0.08672940886126329,0.11925804715134428,0.09270085323177149,0.9103177895185084,977.0,0.04586739116968112,0.504333952517713,1.3343422161410146,-0.000201698643219337,0.035,1.0000000000000004,-0.13339302826420169,0.034769991049174595,7,2026-10-07 22:01:18.491244,25.0,0.47352150199898624,0.27031361825163674,0.4136640200737885
0114,cdot_cos,S,R-S,8,1,2433,-0.005387769069687527,-0.014190718309975554,-0.09211717793095081,0.09088063580389033,977.0,0.05031110374471309,0.5044467980610892,1.4267910066848024,-7.706800850802079e-05,0.026,0.9999999999999998,1.1044355938437154,0.03973713258612232,8,2026-10-07 22:01:18.517244,25.0,0.19846324510027982,0.14618680446911586,0.17091202211661446
0114,cdot_cos,T,S-T,9,1,2722,-0.2028871552000288,-0.029307032850024582,-0.1974993861303413,0.007121537258975628,977.0,0.05346910500207514,0.5044556407810871,1.5133669224070356,-5.9098560327078826e-05,0.289,0.9999999999999998,2.0321177403787773,0.04470427464830598,9,2026-10-07 22:01:18.806243,25.0,0.7378173460979909,0.0375791395095971,0.010927339990872142
0114,cdot_cos,P,T-P,10,2,3238,0.03903562479648276,-0.003153635453934165,0.24192277999651157,0.997643149610582,942.0,0.07203184638126021,0.5056943711967149,1.5991460130876234,-0.0004200658255057994,0.516,1.0,-0.2914009865461889,0.04967141742175651,10,2026-10-07 22:01:19.322243,25.0,0.42345366020996733,0.024876311540594897,0.035974304998420685
0114,cdot_cos,Q,P-Q,11,2,3349,-0.012023786834475907,-0.009908570535907138,-0.051059411630958666,0.21814909875002925,942.0,0.07914145851196908,0.5059652287250479,1.6780968210480216,-0.00019379552644985734,0.111,1.0,0.8353849363114526,0.05463855914679007,11,2026-10-07 22:01:19.433243,25.0,0.31112131756690115,0.11830733559466772,0.06405055973611587
0114,cdot_cos,R,Q-R,12,2,3381,0.07988529972409888,0.11343373993145071,0.0919090865585748,0.9086886286782687,942.0,0.09829607488327645,0.5070934320784676,1.7566231775538592,-0.0006127962287733131,0.032,1.0,-0.37138757038208614,0.059605700624938904,12,2026-10-07 22:01:19.465244,25.0,0.5047196813530476,0.3972530230554661,0.5985817616033554
0114,cdot_cos,S,R-S,13,2,3409,0.0023988336987178422,-0.07280549476359054,-0.07748646602538105,0.12596001038531968,942.0,0.10456565198751891,0.5072498151977481,1.8289152186421251,-0.00022931454520477384,0.028,1.0,2.452193595656148,0.06457284213198844,13,2026-10-07 22:01:19.493243,25.0,0.18781543882762253,0.27579633720016883,0.2239134680086593
0114,cdot_cos,T,S-T,14,2,3680,-0.03512516933866043,0.007004924223796642,-0.037524003037378274,0.281284278097824,942.0,0.1137406697664859,0.5075990328730215,1.8992616713639257,-0.00036112491552753214,0.271,1.0,-0.3774447276174175,0.06953998507924553,14,2026-10-07 22:01:19.764243,25.0,0.6941970811788128,0.05421172939739185,0.03385615416592987
0114,cdot_cos,P,T-P,15,3,4180,0.0320767436611858,-0.0002616190798687166,0.06720191299984624,0.8429108638284618,939.0,0.1339484093209053,0.5086454706689619,1.9699754378803997,-0.0009023588517925132,0.5,1.0,-0.5172155844950169,0.07450712986238783,15,2026-10-07 22:01:20.264243,25.0,0.5489219587343513,0.02787252029674632,0.040415479108838775
0114,cdot_cos,Q,P-Q,16,3,4304,-0.032877015143217586,-0.02541916490371105,-0.06495375880440338,0.16467542175666872,939.0,0.14161319006323222,0.5088498996053089,2.035399600124061,-0.0003807736669517638,0.124,0.9999999999999998,2.551425420300868,0.07947427197546121,16,2026-10-07 22:01:20.388243,25.0,0.25415684098103586,0.12450410165233247,0.06181274792199139
0114,cdot_cos,R,Q-R,17,3,4336,0.06514293728748731,0.11275784594949277,0.0980199524307049,0.9205979202314701,939.0,0.16482542653068374,0.5099926782679358,2.102753682718088,-0.0012822465316507596,0.032,0.9999999999999999,-0.7888429266143081,0.08444141336930872,17,2026-10-07 22:01:20.420243,25.0,0.49507710298401786,0.4975587581008151,0.72538238960786
0114,cdot_cos,S,R-S,18,3,4369,0.005252131673678016,-0.08676978571485625,-0.05989080561380929,0.18283302571260737,939.0,0.1734569505816844,0.510219624888773,2.1646785418746317,-0.0005263443199804885,0.033,0.9999999999999994,3.330748917440143,0.08940855485470965,18,2026-10-07 22:01:20.453243,25.0,0.2378449347899807,0.27570112931236873,0.26156133487880756
0114,cdot_cos,T,S-T,19,3,4659,-0.04485590368077176,0.004620285515773525,-0.05010803535444978,0.2222329530847832,939.0,0.18302170106530008,0.5104954720933588,2.225198175998441,-0.0006146109912266112,0.29,0.9999999999999994,-0.3199839250815738,0.09437569937175976,19,2026-10-07 22:01:20.743244,25.0,0.8662221462244666,0.059015886727158656,0.03298189821936444
0114,cdot_cos,P,T-P,20,4,5119,0.041409010458434856,0.0010811134923265286,0.08626491413920662,0.8962860377364023,1017.0,0.2076861648834364,0.5116079227686982,2.287980189232566,-0.0017368977328394194,0.46,0.9999999999999997,-1.0088417999031056,0.09934284648772009,20,2026-10-07 22:01:21.203244,25.0,0.5240624622782761,0.03762089524626934,0.0536183996046442
0114,cdot_cos,Q,P-Q,21,4,5249,-0.011188303634472901,-0.010893696643718418,-0.05259731409290776,0.21166257013891013,1017.0,0.21763292469186787,0.5118706173601422,2.3456858547808017,-0.000762493596701917,0.13,0.9999999999999991,3.7092660750313713,0.10430998921680118,21,2026-10-07 22:01:21.333244,25.0,0.2786168341313758,0.13574530857248449,0.07651353698793431
0114,cdot_cos,R,Q-R,22,4,5286,0.06419098660369597,0.1084661008038734,0.07537929023816888,0.8681251198275863,1017.0,0.24297994511228238,0.5129479780028157,2.4059392852182397,-0.002104050692954775,0.037,0.9999999999999989,-1.2452256404352684,0.1092771305932583,22,2026-10-07 22:01:21.370244,25.0,0.5285558346856503,0.46541525153600544,0.6850546059571488
0114,cdot_cos,S,R-S,23,4,5323,-0.004413894689589438,-0.04749190683713058,-0.06860488129328542,0.1525005442300726,1017.0,0.2520736533055323,0.5131372220907159,2.4609196707977645,-0.0008112932646413913,0.037,0.9999999999999993,6.831164147093448,0.11424427207812984,23,2026-10-07 22:01:21.407244,25.0,0.20322273557702075,0.2632935788471744,0.24577589711486203
0114,cdot_cos,T,S-T,24,4,5598,-0.05882917371748114,0.016008459748257643,-0.05441527902789171,0.20417822823850437,1017.0,0.2624636699469733,0.5133905891982555,2.515089969997822,-0.0009633987456489103,0.275,0.9999999999999993,-0.6003363360167687,0.11921141822638626,24,2026-10-07 22:01:21.682244,25.0,0.8539486273604072,0.07154819666199362,0.037781878696149136
0114,cdot_cos,P,T-P,25,5,6136,0.05746031804715383,-0.008113616273688198,0.11628949176463498,0.9482030448064422,939.0,0.29142516146962877,0.5145671329872619,2.572835672089892,-0.0028904089700290026,0.538,0.999999999999999,-1.637856782200664,0.12417857047223602,25,2026-10-07 22:01:22.220243,25.0,0.5134045234140484,0.035982557023972045,0.05383176862947115
0114,cdot_cos,Q,P-Q,26,5,6246,-0.009673812572553385,-0.008046510803464076,-0.06713413061970722,0.15731364682641993,939.0,0.3011809013047672,0.5147623147287631,2.6247830986515246,-0.0010416746876551583,0.11,0.9999999999999983,9.47186078039025,0.12914571337676176,26,2026-10-07 22:01:22.330244,25.0,0.1695222241078607,0.17664135807893758,0.08868854395580404
0114,cdot_cos,R,Q-R,27,5,6278,0.0806689194768491,0.11408136797486557,0.09034273204940248,0.9053870609879939,939.0,0.33028626024699503,0.5158855546295059,2.680619986252445,-0.0033110800642244193,0.032,0.9999999999999982,-2.0204102214215114,0.13411285449368573,27,2026-10-07 22:01:22.362243,25.0,0.5038899881477469,0.6006169291200274,0.9095424669446194
0114,cdot_cos,S,R-S,28,5,6306,0.0026634094123873867,-0.0717345889161183,-0.07800551006446171,0.12453833855342084,939.0,0.33962038476844897,0.5160400468906746,2.7306272730554038,-0.001126484580055146,0.028,0.9999999999999982,14.140484886707167,0.13907999562995568,28,2026-10-07 22:01:22.390244,25.0,0.14380407503385043,0.41578887380362495,0.3333615900519262
0114,cdot_cos,T,S-T,29,5,6575,-0.03184320265258381,0.006329010212519288,-0.034506612064971194,0.29678278871528674,939.0,0.35357043717999803,0.5164081993706139,2.780943273263757,-0.0017419883425742171,0.269,0.9999999999999977,-1.6718718358779263,0.144047143892349,29,2026-10-07 22:01:22.659244,25.0,0.7023425502147451,0.08100305710403637,0.051858930897951905
0114,cdot_cos,P,T-P,30,6,7075,0.04311213203381461,-0.003478709329841095,0.07495533468639842,0.8669069762954291,918.0,0.38320002949042054,0.5174834748337631,2.8343737376551714,-0.003931978235310968,0.5,0.9999999999999973,-2.0366780120907695,0.14901430006406408,30,2026-10-07 22:01:23.159244,25.0,0.5729430385642682,0.03949696026233368,0.05925918462084501
0114,cdot_cos,Q,P-Q,31,6,7197,-0.03372798288846998,-0.025924412875223533,-0.0768401149222846,0.12774977468058513,918.0,0.3930673974423317,0.5176419169090151,2.882108238142036,-0.0013796096608538156,0.122,0.9999999999999969,16.10915894908858,0.1539814440384378,31,2026-10-07 22:01:23.281244,25.0,0.15722682915971228,0.17225450356178004,0.08088006517959981
0114,cdot_cos,R,Q-R,32,6,7229,0.06440749038849161,0.1138073705650823,0.0981354732769616,0.9208087707730191,918.0,0.42523012835949486,0.5187838461142884,2.9346846262565505,-0.00473953069974853,0.032,0.9999999999999962,-2.942319912109141,0.1589485849827187,32,2026-10-07 22:01:23.313244,25.0,0.4921782705672262,0.7025256282870871,1.0050853411613485
0114,cdot_cos,S,R-S,33,6,7264,0.013192760876352346,-0.0939024181873367,-0.05121472951213926,0.21748754787544147,918.0,0.4380290376527053,0.5190535323110831,2.9817355551893625,-0.0019896083412816647,0.035,0.9999999999999961,10.196748632858036,0.1639157262142035,33,2026-10-07 22:01:23.348243,25.0,0.25104010892437584,0.36206178963497565,0.365683122663155
0114,cdot_cos,T,S-T,34,6,7534,-0.04084537624426846,0.00035307501156751914,-0.054038137120620805,0.20571454170009987,918.0,0.45057445363394316,0.5193086096774959,3.0280635437729413,-0.00200737952943055,0.27,0.9999999999999958,-0.0696697962614325,0.16888287720990292,34,2026-10-07 22:01:23.618243,25.0,0.9911861429397296,0.0846648200499206,0.04646450363421434
0114,cdot_cos,P,T-P,35,7,7993,0.04933529678773673,-0.00567688210679224,0.09018067303200519,0.9050394357409371,959.0,0.4837480404796624,0.5204306991233127,3.0789095639970627,-0.005580178101937669,0.459,0.9999999999999952,-3.184058620127484,0.17385003714687522,35,2026-10-07 22:01:24.077244,25.0,0.527152158359501,0.04890081351786568,0.07227360968566285
0114,cdot_cos,Q,P-Q,36,7,8103,-0.016132768094948947,-0.011783553427794809,-0.06546806488268568,0.16291437323181335,959.0,0.49546540044334386,0.520632662681727,3.123796010459131,-0.002065625236990369,0.11,0.9999999999999942,17.401915932466995,0.1788171815497073,36,2026-10-07 22:01:24.187244,25.0,0.18241928363434362,0.21058295639300853,0.10652145421528592
0114,cdot_cos,R,Q-R,37,7,8137,0.08119789119352094,0.11325288684608557,0.09733065928846989,0.91932911726322,959.0,0.5300762908861243,0.5217722188311347,3.1738165381638526,-0.006388904396020423,0.034,0.9999999999999936,-3.793827238155285,0.18378432245607257,37,2026-10-07 22:01:24.221244,25.0,0.5082989449049005,0.6566775722625569,1.0179673659641302
0114,cdot_cos,S,R-S,38,7,8164,-0.008678160339990975,-0.03299608399924737,-0.08987605153351191,0.0956170887556718,959.0,0.5401194753571977,0.5218907283692975,3.2171505503306745,-0.0019345767262185982,0.027,0.9999999999999932,37.586237688998615,0.18875146317152855,38,2026-10-07 22:01:24.248243,25.0,0.10001033153990889,0.36035788725788287,0.3719697952249423
0114,cdot_cos,T,S-T,39,7,8451,-0.10863489851774921,-0.02545015259218125,-0.09995673817775824,0.07593403517387644,959.0,0.54953561679805,0.5219848406222342,3.259794321387397,-0.0018467415883946807,0.287,0.9999999999999926,0.933301829285089,0.19371861803528667,39,2026-10-07 22:01:24.535244,25.0,0.9535511371454538,0.08198794547200361,0.032808855194607085
0114,cdot_cos,P,T-P,40,8,8952,0.038676820751376975,-0.004383627962306062,0.14731171926912617,0.9754645062778972,979.0,0.5871805560581278,0.5231936851731382,3.308967447957192,-0.007700300519772847,0.501,0.9999999999999921,-4.842275979157393,0.19868578583139157,40,2026-10-07 22:01:25.036243,25.0,0.46758562582252927,0.05079295154711133,0.07513959932151265
0114,cdot_cos,Q,P-Q,41,8,9062,-0.020045832315500917,-0.012749157796157408,-0.05872265306687789,0.18723670072079218,979.0,0.6004301542482555,0.5234256876424334,3.3515597615825676,-0.002831437754675135,0.11,0.9999999999999903,20.986254068289348,0.20365293104583113,41,2026-10-07 22:01:25.146244,25.0,0.17914269818111436,0.22836878542654301,0.12045089263752473
0114,cdot_cos,R,Q-R,42,8,9097,0.0793290308449722,0.10738591625727488,0.09937486316047311,0.9230389212839245,979.0,0.6374216888519673,0.5245692630514764,3.399597429046785,-0.00823769397706705,0.035,0.9999999999999896,-4.727503039712731,0.20862007178942438,42,2026-10-07 22:01:25.181243,25.0,0.518776190226051,0.6808716624540522,1.0569009886774783
0114,cdot_cos,S,R-S,43,8,9123,-0.010386025142817615,-0.03661602303378699,-0.08971505598778981,0.09596570576913825,979.0,0.6480911706200392,0.5246881427232228,3.440610297527287,-0.0024674263164182076,0.026,0.9999999999999885,48.53872471113827,0.21358721213065832,43,2026-10-07 22:01:25.207244,25.0,0.09646476203000122,0.37198690836957554,0.4103646833873816
0114,cdot_cos,T,S-T,44,8,9411,-0.1420617731233621,-0.013185406085976788,-0.1316757479805445,0.03585033243190832,979.0,0.6567650080871852,0.5247325524099526,3.4806820405963035,-0.002036078630212302,0.288,0.9999999999999876,9.712918914070864,0.21855437061260324,44,2026-10-07 22:01:25.495244,25.0,0.8090842916422326,0.08514972059393659,0.03011749120536808
0114,cdot_cos,P,T-P,45,9,9931,0.037559347456318296,-0.0018446341355092591,0.17962112057968038,0.9889096544173703,919.0,0.6971374096821467,0.525957409996205,3.52822963178958,-0.009830699734834613,0.52,0.9999999999999876,-6.36369582236187,0.2235215466241203,45,2026-10-07 22:01:26.015244,25.0,0.45253702944919927,0.05430961224444396,0.07763923383646437
0114,cdot_cos,Q,P-Q,46,9,10049,-0.0064869956598348055,-0.0064661635594476215,-0.0440463431161531,0.24952287475081472,919.0,0.7132470048214069,0.5262664187715124,3.5693125928087444,-0.004086076550495152,0.118,0.9999999999999848,18.590485589366324,0.228488693370785,46,2026-10-07 22:01:26.133244,25.0,0.2451458357630504,0.22883073729092043,0.1365219927055953
0114,cdot_cos,R,Q-R,47,9,10083,0.07567911677827172,0.12886456916291225,0.08216611243810652,0.8863665650833876,919.0,0.7511414636828039,0.5273639295855473,3.61542503490986,-0.00997731851794205,0.034,0.9999999999999845,-5.367821339078998,0.23345583376802753,47,2026-10-07 22:01:26.167244,25.0,0.5540704382998117,0.7619147648408303,1.1145429076881461
0114,cdot_cos,S,R-S,48,9,10119,0.013207576040581063,-0.0605713122346678,-0.06247154073769065,0.17339015604691535,919.0,0.7650572088305834,0.5275785929811468,3.655171797466616,-0.0037933582097138306,0.036,0.999999999999983,28.80770748528391,0.23842297457946726,48,2026-10-07 22:01:26.203244,25.0,0.19588895887017205,0.4384246757585207,0.38654847632720807
0114,cdot_cos,T,S-T,49,9,10390,-0.024645276172308283,0.001502238377817126,-0.037852852212889344,0.27962523862469224,919.0,0.7827080403374174,0.5279247578026893,3.6954733905545747,-0.004911318027823412,0.271,0.999999999999982,-3.2295592981633487,0.2433901360080897,49,2026-10-07 22:01:26.474244,25.0,0.7964194486129768,0.09932780433063941,0.06513221958241328
0114,cdot_cos,P,T-P,50,10,10850,0.031810017844511936,-0.0014681381642406603,0.056455294016820215,0.8039838850335983,958.0,0.8188928787777899,0.5289199068386482,3.740028624694061,-0.010416220252130291,0.46,0.9999999999999807,-5.531736479051736,0.24835731554294654,50,2026-10-07 22:01:26.934243,25.0,0.5894925113178535,0.054130556781142265,0.07866269226167949
0114,cdot_cos,Q,P-Q,51,10,10971,-0.03629762504751942,-0.025507857677995353,-0.06810764289203136,0.15411412230072236,958.0,0.8325081525760682,0.5291106390312241,3.77860587526915,-0.004040999957379866,0.121,0.9999999999999778,33.424983001821175,0.2533244639134663,51,2026-10-07 22:01:27.055244,25.0,0.20646294236857113,0.22759058756231212,0.11252292395271335
0114,cdot_cos,R,Q-R,52,10,11003,0.06765526288036693,0.10764102183530265,0.10395288792788634,0.9307857398582352,958.0,0.8739698009678695,0.5302624001342086,3.8237766666889814,-0.012712704312640797,0.032,0.9999999999999771,-7.52908249183874,0.2582916039073395,52,2026-10-07 22:01:27.087244,25.0,0.5055395491411574,0.858334350572568,1.295676512243788
0114,cdot_cos,S,R-S,53,10,11039,-0.004538708964068953,-0.06551187854298401,-0.07219397184443588,0.1412617878776169,958.0,0.8874415510127126,0.5304371706433015,3.8616410124886342,-0.004263409126800256,0.036,0.999999999999975,48.34508539049558,0.26325874458294923,53,2026-10-07 22:01:27.123244,25.0,0.13781864176193992,0.35837513060875403,0.3742152790234204
0114,cdot_cos,T,S-T,54,10,11309,-0.08835679832977207,0.012649316105518739,-0.08381808936570312,0.10953962638322713,958.0,0.8997728103716998,0.5305726890377378,3.8988972004087477,-0.003959513833611208,0.27,0.9999999999999732,2.242465271620207,0.268225910070983,54,2026-10-07 22:01:27.393243,25.0,0.9261207453615949,0.10307139577284252,0.045671330959211685
0114,cdot_cos,P,T-P,55,11,11808,0.030316497505407505,-0.0035458077217880492,0.11867329583517958,0.9510530318479011,957.0,0.9431001047300476,0.5317491052116713,3.9435570445085926,-0.0143412458945039,0.499,0.9999999999999725,-8.824880421509416,0.2731931016508175,55,2026-10-07 22:01:27.892244,25.0,0.48485409768510646,0.06182207152889821,0.08682824520710984
0114,cdot_cos,Q,P-Q,56,11,11916,-0.010567704631478813,-0.008208336218732397,-0.040884202136886316,0.26461756451383456,957.0,0.9614712377575402,0.5320763648158195,3.981695082690999,-0.006283862584159961,0.108,0.999999999999969,24.620769591512957,0.2781602499834257,56,2026-10-07 22:01:28.000243,25.0,0.2774168119016964,0.2842468899442822,0.17010308358789447
0114,cdot_cos,R,Q-R,57,11,11947,0.08681694722056832,0.1124694581486026,0.09738465185204713,0.9194291670039482,957.0,1.0044974329580125,0.5332132311113481,4.025671779791132,-0.015187053820008938,0.031,0.9999999999999677,-7.83134417025675,0.28312738957113864,57,2026-10-07 22:01:28.031244,25.0,0.5564179405526135,0.8847136033030699,1.3879417806603984
0114,cdot_cos,S,R-S,58,11,11980,-0.010494986075444187,-0.03355847091152566,-0.09731193329601251,0.08070560899047799,957.0,1.0163234811623305,0.5333130066130728,4.061591019488045,-0.004290618373343272,0.033,0.9999999999999649,109.20952797343561,0.28809452968650395,58,2026-10-07 22:01:28.064243,25.0,0.07889830156963855,0.49530659037002733,0.358365097100545
0114,cdot_cos,T,S-T,59,11,12248,-0.040978054916228614,0.010501429220436913,-0.030483068840784427,0.3181955575091609,957.0,1.0371876679224343,0.533706362417508,4.099476523770261,-0.007691391859562148,0.268,0.9999999999999633,-8.645540367967019,0.2930616999360674,59,2026-10-07 22:01:28.332243,25.0,0.6426511768402853,0.12034304034037402,0.07785144313471574
0114,cdot_cos,P,T-P,60,12,12765,0.04999711184741322,-0.0016038849986902994,0.09097516676364184,0.9067327874728698,960.0,1.080827350784771,0.5348270409834925,4.142752629791316,-0.016587578078401034,0.517,0.9999999999999625,-7.938213943641843,0.2980289045623627,60,2026-10-07 22:01:28.849244,25.0,0.5848989612851053,0.057799741469367,0.08440944460800127
0114,cdot_cos,Q,P-Q,61,12,12891,-0.009463829669695098,-0.009418672230835635,-0.05946094151710832,0.18444409881843424,960.0,1.0969526006017598,0.5350549624497659,4.1789130666782635,-0.0063018056002883144,0.126,0.9999999999999571,45.12858155175161,0.3029960567979117,61,2026-10-07 22:01:28.975244,25.0,0.19550007695766086,0.235757941455993,0.1279781731507049
0114,cdot_cos,R,Q-R,62,12,12922,0.0693965900342194,0.11537520939102267,0.0788604197039145,0.8777732624387623,960.0,1.1402383520316812,0.5361394431684691,4.221566424439668,-0.017372317572848576,0.031,0.9999999999999555,-10.208122451267416,0.30796319596072436,62,2026-10-07 22:01:29.006243,25.0,0.5287443947513351,0.9658520255272041,1.3963145622555295
0114,cdot_cos,S,R-S,63,12,12956,0.011049497796112948,-0.07786650017076628,-0.058347092238106454,0.1886697111856345,960.0,1.1568354261844465,0.5363724985753342,4.257324951954672,-0.006838907219922483,0.034,0.9999999999999524,45.19702200696679,0.31293033588589064,63,2026-10-07 22:01:29.040244,25.0,0.21433429771313697,0.5332485739928198,0.48814923978721275
0114,cdot_cos,T,S-T,64,12,13226,-0.029816071969204338,0.004329365100128876,-0.040865569765317286,0.26470821866125777,960.0,1.176499255063193,0.5366994542052598,4.293595862656033,-0.008229692896183707,0.27,0.9999999999999495,-4.253744389040844,0.3178975118316869,64,2026-10-07 22:01:29.310244,25.0,0.8445122305733478,0.11143824174529858,0.07282899584720931
0114,cdot_cos,P,T-P,65,13,13725,0.02151720461734523,-0.00037456141984423455,0.05133327658654957,0.7830164082329016,918.0,1.2170120767269077,0.5376664149198506,4.334805469908424,-0.017387649314695698,0.499,0.9999999999999475,-9.47086709969137,0.3228647248216408,65,2026-10-07 22:01:29.809243,25.0,0.5905545984534362,0.054373624742282856,0.08118801936616178
0114,cdot_cos,Q,P-Q,66,13,13846,-0.06224285520459648,-0.04410042141655471,-0.08376005982194171,0.10968121261385277,918.0,1.2307641325559913,0.5378018397212558,4.36912309266758,-0.006035793513279505,0.121,0.9999999999999408,83.82405352358442,0.3278318779857318,66,2026-10-07 22:01:29.930244,25.0,0.15247476757229297,0.2549934688687725,0.1136533539593683
0114,cdot_cos,R,Q-R,67,13,13878,0.05642386964578943,0.09919974748935406,0.1186667248503859,0.9510453841067306,918.0,1.2787204961931506,0.5389758716769023,4.411707946831813,-0.021570901846829027,0.032,0.9999999999999393,-13.232270432532859,0.33279901686540503,67,2026-10-07 22:01:29.962244,25.0,0.48666067224171333,1.2362103844350616,1.4986363636612308
0114,cdot_cos,S,R-S,68,13,13914,0.06101369675846961,-0.1795454478499718,0.004589827112680182,0.5286549856938878,918.0,1.3098815971598352,0.5396282915027578,4.449889191257718,-0.014455262039774451,0.036,0.9999999999999366,10.906535217141696,0.33776615686480416,68,2026-10-07 22:01:29.998244,25.0,0.6112479669058316,0.6663573492106112,0.8655861379634602
0114,cdot_cos,T,S-T,69,13,14183,-0.0010117476191212388,1.0783839859468492e-05,-0.06202544437759085,0.17499441318675868,918.0,1.3266982253363147,0.5398442245279506,4.484283221642882,-0.007945069925234268,0.269,0.9999999999999328,30.149126604090746,0.3427333390114737,69,2026-10-07 22:01:30.267244,25.0,0.4406958919626231,0.11063848588122079,0.06251534638096447
0114,cdot_cos,P,T-P,70,14,14643,0.05372876799596788,-0.008014319688846873,0.05474051561508912,0.7971397823801337,939.0,1.369405102563932,0.5408276586603926,4.524889163136209,-0.020625928211455286,0.46,0.9999999999999301,-12.894466307298002,0.34770055754332685,70,2026-10-07 22:01:30.727243,25.0,0.5407480479732946,0.06409052668229583,0.09284103745134205
0114,cdot_cos,Q,P-Q,71,14,14752,-0.013946721549585652,-0.010448005480202116,-0.06767548954555354,0.15552781108563837,939.0,1.3856615098840268,0.5410194970363112,4.558711691609318,-0.008022474968687365,0.109,0.9999999999999225,65.69828994024552,0.352667710695668,71,2026-10-07 22:01:30.836244,25.0,0.20783348296523893,0.2968936447285365,0.14914135156050287
0114,cdot_cos,R,Q-R,72,14,14786,0.08331754349954835,0.11957182169278728,0.097264265049134,0.9192059314999826,939.0,1.434127917114753,0.5421530567995017,4.600321624074465,-0.024470580529202517,0.034,0.9999999999999204,-14.510135322924599,0.35763484972645027,72,2026-10-07 22:01:30.870244,25.0,0.5106053115843886,0.9163712145553579,1.4254825656095926
0114,cdot_cos,S,R-S,73,14,14813,-0.00806309368711642,-0.02433017880016685,-0.09138063718666478,0.09241348967208636,939.0,1.4479747524737911,0.5422669966705533,4.63313164110168,-0.007145455480407742,0.027,0.9999999999999143,152.0549820609871,0.36260198770037244,73,2026-10-07 22:01:30.897243,25.0,0.0885103748562868,1.2279806527898767,0.5128457540384515
0114,cdot_cos,T,S-T,74,14,15343,0.21821452022059268,-0.3170769286674438,0.2262776139077091,0.996518971382702,939.0,1.5004388723654063,0.543495356959339,4.675324232820252,-0.027684480361434657,0.53,0.9999999999999144,-16.72068453249235,0.36756923138328496,74,2026-10-07 22:01:31.427244,25.0,0.47620982675028917,0.05932165360126328,0.09898890545587763
0114,cdot_cos,P,T-P,75,15,15582,0.021517095382869826,0.0005417498893502064,-0.19669742483772285,0.007264710380205199,978.0,1.5108557052911302,0.5435043098894728,4.7068858499378665,-0.005614009687529666,0.239,0.9999999999999046,2465.167307690487,0.3725364143278153,75,2026-10-07 22:01:31.666244,25.0,0.01961775264114542,0.05507130296031373,0.043585075003028995
0114,cdot_cos,Q,P-Q,76,15,15712,-0.05260508131909269,-0.0387434617582534,-0.07412217670196251,0.13551467210188423,978.0,1.5267629551804363,0.5436713111669178,4.739617091732912,-0.008647430602321043,0.13,0.9999999999998962,-18.16405815093961,0.37750357348169766,76,2026-10-07 22:01:31.796243,25.0,0.7041325233375141,0.2566274368996411,0.12236346068696946
0114,cdot_cos,R,Q-R,77,15,15744,0.054814920017086315,0.09495326078746137,0.107420001336179,0.9361655927986576,978.0,1.577578838885037,0.544824723078074,4.780818040188649,-0.028219481015887546,0.032,0.9999999999998935,-16.96882980335108,0.3824707115396568,77,2026-10-07 22:01:31.828243,25.0,0.4997910265401172,1.2335764416780346,1.5879963657687706
0114,cdot_cos,S,R-S,78,15,15772,0.04001461418774042,-0.17168491010416448,-0.014800305829345897,0.4085391740897102,978.0,1.6057118474478305,0.5453279177822712,4.816206262429716,-0.016017437378401687,0.028,0.9999999999998891,24.249149555244404,0.38743784912257917,78,2026-10-07 22:01:31.856243,25.0,0.4668265549877695,0.8897356071076049,1.0047503058140552
0114,cdot_cos,T,S-T,79,15,16062,-0.0020446555414982246,0.00012406154330063377,-0.042059269729238645,0.2589406669752546,978.0,1.6274040328830628,0.5456468052401744,4.849815387840532,-0.012542217288945032,0.29,0.9999999999998835,10.897951623144486,0.3924050488086846,79,2026-10-07 22:01:32.146244,25.0,0.7579924939891098,0.10627565597470955,0.07480063943183561
0114,cdot_cos,P,T-P,80,16,16560,0.025931072471956872,0.0013007588357263175,0.027975728013455096,0.6680532231437861,919.0,1.667351727913162,0.5464693444790101,4.887770947108627,-0.023530542474282108,0.498,0.9999999999998788,-13.359028562444268,0.3973722999474228,80,2026-10-07 22:01:32.644243,25.0,0.6268917633334267,0.057508345140179,0.0802162550805205
0114,cdot_cos,Q,P-Q,81,16,16690,-0.04181945470830615,-0.03480212035348594,-0.06775052718026302,0.15528158623988078,919.0,1.684682344642681,0.5466604984648193,4.919945098851367,-0.010385041513245529,0.13,0.9999999999998676,68.7691700771185,0.4023394615519728,81,2026-10-07 22:01:32.774244,25.0,0.2820104608714139,0.2656869161006714,0.13331243638091597
0114,cdot_cos,R,Q-R,82,16,16722,0.05586869342708908,0.11318369606261243,0.09768814813539523,0.9199894501308757,919.0,1.7364303260993366,0.5477927353249262,4.960474823527375,-0.03163436554247073,0.032,0.9999999999998639,-18.76756072684232,0.4073065990561757,82,2026-10-07 22:01:32.806243,25.0,0.5108310039748792,1.228532952385817,1.617124420520484
0114,cdot_cos,S,R-S,83,16,16750,0.03297385195579969,-0.11745871843312644,-0.022894841471289396,0.3606899006887325,919.0,1.7633084535953734,0.5482365043845322,4.9946728894313885,-0.016805764001466085,0.028,0.9999999999998574,33.41513163214044,0.41227373597814526,83,2026-10-07 22:01:32.834244,25.0,0.413808437852076,0.8540532699719628,0.959933124858457
0114,cdot_cos,T,S-T,84,16,17039,-0.015918005810714963,-0.00032521721722590956,-0.048891857766514654,0.22753257156934617,919.0,1.7842573092177665,0.5485164060438659,5.0272365328096384,-0.013275989227655096,0.289,0.9999999999998509,12.610767589638163,0.4172409428861958,84,2026-10-07 22:01:33.123244,25.0,0.7665337179110906,0.11697131218731976,0.07248738969686203
0114,cdot_cos,P,T-P,85,17,17479,0.03651977867218197,0.0018846206983003564,0.05243778448289693,0.787671180728685,960.0,1.8309178720396442,0.5494851301393595,5.0660032644758095,-0.030122355347697152,0.44,0.9999999999998462,-17.390262303176673,0.42220819254654146,85,2026-10-07 22:01:33.563244,25.0,0.5716293024666431,0.07514167998573619,0.10604673368608566
0114,cdot_cos,Q,P-Q,86,17,17609,-0.021632186962024735,-0.018558746733725314,-0.05815196563420671,0.18941756304792712,960.0,1.8503819876052143,0.5497180312727947,5.097876056326817,-0.012793958698553426,0.13,0.9999999999998334,74.40237148508292,0.4271753570512677,86,2026-10-07 22:01:33.693243,25.0,0.2580968845658898,0.2758424181176299,0.14972396588900116
0114,cdot_cos,R,Q-R,87,17,17642,0.06465693952867192,0.11986741970626492,0.08628912649069666,0.896342292157343,960.0,1.902636900750228,0.550819844852348,5.137706256881474,-0.035001169136536725,0.033,0.9999999999998294,-20.155143165858036,0.43214249447136255,87,2026-10-07 22:01:33.726244,25.0,0.5302161459591157,1.0614061207395753,1.5834822165155644
0114,cdot_cos,S,R-S,88,17,17670,-0.005369929114702542,-0.02499542822675967,-0.07002686864337446,0.14796249503044465,960.0,1.9204347915740263,0.5510016775910076,5.168854680400373,-0.01214292066561928,0.028,0.9999999999998198,125.71030189295503,0.4371096308585744,88,2026-10-07 22:01:33.754244,25.0,0.15221913112649044,0.6476749435854546,0.635638957992798
0114,cdot_cos,T,S-T,89,17,17939,-0.07110758970610885,0.008712295283215824,-0.06573766059140632,0.16199731889996158,960.0,1.9389066975910134,0.5512007422456898,5.200018179374945,-0.012721296630833922,0.269,0.9999999999998104,-2.9054679050780257,0.442076839340411,89,2026-10-07 22:01:34.023244,25.0,0.9555528800479348,0.1366587020634181,0.06866879560218259
0114,cdot_cos,P,T-P,90,18,18439,0.03736959940410115,-0.002101876267986533,0.10847718911021001,0.9377269305625691,956.0,1.9939571732841452,0.5523527104762983,5.240078737471935,-0.038615971875608994,0.5,0.999999999999807,-22.478636612311153,0.44704412006110683,90,2026-10-07 22:01:34.523244,25.0,0.511417477234242,0.07769989551711709,0.11010095138626363
0114,cdot_cos,Q,P-Q,91,18,18549,-0.0076800991378256625,-0.006837510652199919,-0.045049698541926815,0.24485520739164204,956.0,2.0166065931081305,0.5526534154577031,5.271978503769757,-0.01619959011104031,0.11,0.9999999999997922,74.54609384868897,0.4520112810115891,91,2026-10-07 22:01:34.633244,25.0,0.25063382211619767,0.3477937342127444,0.2059038165816843
0114,cdot_cos,R,Q-R,92,18,18586,0.07961843839572041,0.1167272961177619,0.08729853753354608,0.8986636312252889,956.0,2.070471794810949,0.5537567263412508,5.311448872983144,-0.039242483441105765,0.037,0.9999999999997883,-20.885222536706717,0.4569784192622541,92,2026-10-07 22:01:34.670244,25.0,0.5558857258157086,0.948396010675126,1.455816262238338
0114,cdot_cos,S,R-S,93,18,18623,-0.0055278019834591055,-0.01651642219631015,-0.08514624037917952,0.10634264876324284,956.0,2.08678789789809,0.5538872509390645,5.341496156250841,-0.012090218125520143,0.037,0.9999999999997761,208.02412549348603,0.46194555799009634,93,2026-10-07 22:01:34.707244,25.0,0.10584236431256819,0.39176082780770455,0.4409757591119141
0114,cdot_cos,T,S-T,94,18,18897,-0.1434404500442927,-0.02446886187341269,-0.1379126480608336,0.030834051670874826,956.0,2.099462096068719,0.5539250951582351,5.3705040033292395,-0.009456905012118488,0.274,0.9999999999997643,69.58296857800333,0.46691277557088534,94,2026-10-07 22:01:34.981244,25.0,0.7569530799748693,0.13080413976023963,0.04625619770302669
0114,cdot_cos,P,T-P,95,19,19395,0.035557373078340546,0.0015901305694228762,0.17899782312263324,0.9887374479320404,920.0,2.158468566486701,0.5551382897779331,5.410819752270045,-0.04475782351353168,0.498,0.9999999999997603,-29.097490153887563,0.47188007071236954,95,2026-10-07 22:01:35.479244,25.0,0.45443088141994536,0.07854274363452884,0.11848688838952212
0114,cdot_cos,Q,P-Q,96,19,19525,-0.030137985212083183,-0.02598672176112809,-0.06569535829042372,0.16214093808685462,920.0,2.17769066872871,0.5553371766499341,5.441171992239173,-0.014846982904835715,0.13,0.999999999999742,150.39122646842412,0.47684724060182,96,2026-10-07 22:01:35.609244,25.0,0.13337276438668058,0.28685214945806026,0.14786232493852852
0114,cdot_cos,R,Q-R,97,19,19557,0.057914948471778145,0.11620585011202038,0.08805293368386133,0.9003682845082085,920.0,2.233050125345797,0.5564412707823702,5.480312096616906,-0.04347287317441935,0.032,0.9999999999997365,-25.92703776662934,0.4818143764982856,97,2026-10-07 22:01:35.641243,25.0,0.517639061174004,1.2845902793453823,1.7299830192839676
0114,cdot_cos,S,R-S,98,19,19586,0.026403053936362823,-0.10152141567345446,-0.03151189453541532,0.3126418137701587,920.0,2.2599044466068143,0.5568245240877899,5.512282704317936,-0.02147755361687107,0.029,0.9999999999997251,57.39107594507779,0.4867815118325106,98,2026-10-07 22:01:35.670244,25.0,0.35911690413912933,0.8531745344468264,0.9260110779661206
0114,cdot_cos,T,S-T,99,19,19856,-0.02302610599890672,-0.00017182759821697695,-0.04942915993526954,0.225180290247353,920.0,2.2825342483437128,0.5571005204361622,5.5430813395206595,-0.01829587101196599,0.27,0.9999999999997135,11.527988046470414,0.4917487368240874,99,2026-10-07 22:01:35.940243,25.0,0.8403795243566391,0.14046481529340996,0.08381408050703124
0114,cdot_cos,P,T-P,100,20,20315,0.04329091945520827,0.00017842839700234528,0.066317025454115,0.8399593478503737,939.0,2.3357554468652557,0.5581297196717336,5.581298411018362,-0.043726054038126606,0.459,0.9999999999997075,-24.708707650799287,0.49671603512501755,100,2026-10-07 22:01:36.399244,25.0,0.5590146235641191,0.07781461851754927,0.11595032357634628
0114,cdot_cos,Q,P-Q,101,20,20445,-0.03223304282678836,-0.02727884069781539,-0.07552396228199663,0.13146136570991346,939.0,2.353968068142823,0.5582907538700143,5.610753969450006,-0.015193616325204603,0.13,0.999999999999687,177.18247439094475,0.5016832083262425,101,2026-10-07 22:01:36.529243,25.0,0.15290740338481618,0.28907930444874375,0.14009708675051757
0114,cdot_cos,R,Q-R,102,20,20480,0.05722362708302082,0.1164630962470791,0.08945666990980919,0.9034724142905305,939.0,2.410916066021929,0.5593971331559635,5.649635470527954,-0.04824395241783637,0.035,0.9999999999996806,-29.87251886614555,0.506650344936796,102,2026-10-07 22:01:36.564243,25.0,0.5040564948840707,1.1222789393219934,1.6270856536887455
0114,cdot_cos,S,R-S,103,20,20518,0.00046951427593822857,-0.06340070271003818,-0.05675411280708259,0.19484148819287833,939.0,2.4325275938953625,0.5596356563021089,5.679682956641452,-0.01860808914885604,0.038,0.9999999999996659,124.24732671821808,0.51161748330739,103,2026-10-07 22:01:36.602243,25.0,0.20338931164431068,0.5509317495081312,0.568724417721933
0114,cdot_cos,T,S-T,104,20,20774,-0.06369850203592436,0.0048399222529194865,-0.0641680163118626,0.1673953683934372,939.0,2.452786878984547,0.5598405581791459,5.709277230659898,-0.01759282378505048,0.256,0.9999999999996514,4.954885618847027,0.5165847108589119,104,2026-10-07 22:01:36.858243,25.0,0.9439245307255729,0.15559305378756108,0.07913783237962699
0114,cdot_cos,P,T-P,105,21,21254,0.04360410032958849,-0.003227087972882447,0.10730260236551285,0.9359899752939008,1018.0,2.512191237434594,0.5609858878770909,5.748396211700853,-0.0523975022331728,0.48,0.9999999999996465,-30.38834888379315,0.5215520335502899,105,2026-10-07 22:01:37.338243,25.0,0.514662937210766,0.08301155898452438,0.1237590801042641
0114,cdot_cos,Q,P-Q,106,21,21370,-0.02174754532475695,-0.01609017997446195,-0.06535164565434544,0.16331167453745668,1018.0,2.5324779756096905,0.5611856589837128,5.777761562218238,-0.018179286101484754,0.116,0.9999999999996235,171.2871130881923,0.52651920402145,106,2026-10-07 22:01:37.454243,25.0,0.15224502953662852,0.34091432342535605,0.1748856739232468
0114,cdot_cos,R,Q-R,107,21,21408,0.07206340467903379,0.10117713647056445,0.09381095000379074,0.9125578261603357,1018.0,2.5912833604692764,0.5623015791608146,5.816494367345612,-0.053492733087882834,0.038,0.9999999999996171,-31.645137090460363,0.5314863415232681,107,2026-10-07 22:01:37.492243,25.0,0.5167716946275042,1.0089431642720599,1.5475101278838415
0114,cdot_cos,S,R-S,108,21,21443,-0.010660381356344614,-0.0452391272533872,-0.0827237860353784,0.11223674667547212,1018.0,2.609157656094367,0.5624387844305409,5.845036914289469,-0.016501663423908228,0.035,0.999999999999599,269.6038551418116,0.5364534782545637,108,2026-10-07 22:01:37.527244,25.0,0.10628224652787728,0.6239626307287376,0.5106941607168736
0114,cdot_cos,T,S-T,109,21,21713,-0.051430358353841354,0.02035516818469217,-0.04076997699749674,0.26517362923952426,1018.0,2.634960744620288,0.5627629114009494,5.875418900326532,-0.024017686266625815,0.27,0.9999999999995839,-23.188514159265466,0.5414207205324871,109,2026-10-07 22:01:37.797244,25.0,0.7312959780299159,0.15729326680637154,0.09556699454044836
0114,cdot_cos,P,T-P,110,22,22272,0.03810080832626263,-0.0037469286096777454,0.08953116668010398,0.9036347138897995,979.0,2.6940960201698076,0.5638670379321511,5.913889080511361,-0.05590325608475149,0.559,0.9999999999995777,-28.878546902972605,0.5463880972269751,110,2026-10-07 22:01:38.356243,25.0,0.5653159332098976,0.07290661753800164,0.10578761278983824
0114,cdot_cos,Q,P-Q,111,22,22381,-0.018853542441879305,-0.01213775100798779,-0.05695435076814193,0.19405736297985807,979.0,2.716470343027774,0.564104069129325,5.943207030125364,-0.02147233138774116,0.109,0.9999999999995509,145.25904230130377,0.5513552669493053,111,2026-10-07 22:01:38.465244,25.0,0.20119072822756007,0.3811356673808741,0.20526901704556197
0114,cdot_cos,R,Q-R,112,22,22413,0.08033528611657317,0.10283781424190636,0.09918882855845249,0.9227078820799818,979.0,2.777183595658838,0.5652307073339026,5.98184144597081,-0.05912537649359382,0.032,0.9999999999995433,-33.4207068008757,0.5563224009365701,112,2026-10-07 22:01:38.497243,25.0,0.5289645212312283,1.2150437765868216,1.8972891447207596
0114,cdot_cos,S,R-S,113,22,22440,-0.012891451015797004,-0.042039892431086454,-0.09322673713237017,0.08861466473022767,979.0,2.7942331447293305,0.5653388717144597,6.009636548893845,-0.01683769834474491,0.027,0.9999999999995216,390.9575216075923,0.5612895330484527,113,2026-10-07 22:01:38.524243,25.0,0.08114739813008119,0.8245869258280064,0.6314647803886028
0114,cdot_cos,T,S-T,114,22,22712,-0.04958443840747022,0.018431941243283338,-0.03669298739167322,0.2855033216750297,979.0,2.8217112896535506,0.5656873189621626,6.039889680910701,-0.027348510970253898,0.272,0.9999999999995045,-30.164717026180373,0.566256785654336,114,2026-10-07 22:01:38.796243,25.0,0.6809077016197674,0.16173231710002128,0.10102259163316202
0114,cdot_cos,P,T-P,115,23,23251,0.040131493294151124,-0.0029683101171618606,0.08971593170162134,0.9040361935561193,917.0,2.882215525231742,0.5667902351032454,6.078150125915188,-0.06112583825472427,0.539,0.9999999999994971,-30.62547189789829,0.5712241743159161,115,2026-10-07 22:01:39.335244,25.0,0.5754593236415595,0.07418385073941725,0.11225275617475233
0114,cdot_cos,Q,P-Q,116,23,23375,-0.03586565908336847,-0.028105190362479056,-0.0759971523775196,0.1301165319414382,917.0,2.9016814807506424,0.5669489219202085,6.1062289618275125,-0.019939940652685666,0.124,0.9999999999994656,259.54202365545615,0.5761913541936903,116,2026-10-07 22:01:39.459244,25.0,0.12675521394533693,0.32761859180086367,0.1569835122491959
0114,cdot_cos,R,Q-R,117,23,23407,0.060563550747269344,0.11180886040616034,0.09642920983063782,0.9176418872155021,917.0,2.9634649359983563,0.568067662940694,6.144593496106248,-0.06413739865364083,0.032,0.9999999999994567,-39.50642480399579,0.5811584872849448,117,2026-10-07 22:01:39.491244,25.0,0.5020247430336202,1.4331295401329158,1.930732976491059
0114,cdot_cos,S,R-S,118,23,23441,0.03052571787180454,-0.11353423756317635,-0.030037832875464805,0.32061524590624413,917.0,2.993401771319149,0.5684583772571499,6.175040809371839,-0.03155655941195198,0.034,0.9999999999994369,83.3878818089541,0.5861256220962979,118,2026-10-07 22:01:39.525243,25.0,0.35613032292526053,0.8011234085628975,0.8804951564939035
0114,cdot_cos,T,S-T,119,23,23710,-0.02026587354722619,0.0011110899028626581,-0.05079159141903073,0.2192932394715827,917.0,3.0179413277806333,0.5687255675724491,6.204065732005759,-0.026099921978602218,0.269,0.9999999999994161,20.42228748912299,0.591092883635904,119,2026-10-07 22:01:39.794244,25.0,0.8113407171536223,0.15001751912076414,0.09122511695719075
0114,cdot_cos,P,T-P,120,24,24168,0.03512041935027454,0.0002998975376020426,0.05538629289750073,0.7997379451711761,980.0,3.07411119660612,0.5696996407449164,6.2407492299265925,-0.06051028594809608,0.458,0.9999999999994045,-35.32626186832765,0.5960602504576604,120,2026-10-07 22:01:40.252243,25.0,0.5662782782889363,0.08668722966460188,0.12264163499014585
0114,cdot_cos,Q,P-Q,121,24,24295,-0.022541388490446543,-0.018163699666086382,-0.057661807840721085,0.19130618014791384,980.0,3.0973468301534086,0.569932570190641,6.26926080260087,-0.02535402100137118,0.127,0.9999999999993728,150.9309603917092,0.6010274356924347,121,2026-10-07 22:01:40.379244,25.0,0.24991986184443343,0.3376861191974924,0.1829577444668388
0114,cdot_cos,R,Q-R,122,24,24328,0.06858063520224346,0.11398711416819492,0.09112202369269,0.9070428107039251,980.0,3.159883470882283,0.5710365389963028,6.307307301365235,-0.06914254864062286,0.033,0.9999999999993633,-39.664642166227516,0.6059945688153758,122,2026-10-07 22:01:40.412243,25.0,0.5308329100986127,1.2587343681478895,1.8950497190568043
0114,cdot_cos,S,R-S,123,24,24355,-0.00461550055207571,-0.05583997738341641,-0.07319613575431917,0.13824978211495376,980.0,3.1804232984511693,0.5712047420930615,6.33496962294291,-0.023008767954626204,0.027,0.9999999999993366,274.2742647133409,0.6109616990959027,123,2026-10-07 22:01:40.439244,25.0,0.13465326731799318,0.6514372311459373,0.7607343544031915
0114,cdot_cos,T,S-T,124,24,24629,-0.1418093646215533,-0.037824199215590264,-0.1371938640694776,0.03137559386515188,980.0,3.195061081364164,0.5712429132608906,6.3610944499659094,-0.01648789302784688,0.274,0.9999999999993083,170.83247114607525,0.6159289728282152,124,2026-10-07 22:01:40.713243,25.0,0.6733468268299376,0.15065858712830196,0.053422565375892135
0114,cdot_cos,P,T-P,125,25,25148,0.04881070014936944,-0.002069465021831486,0.19062006477092275,0.9915533397691928,1019.0,3.262984204197479,0.5724487861045071,6.4001746909585195,-0.07744404104242476,0.519,0.999999999999301,-50.54939941409215,0.6208963930076882,125,2026-10-07 22:01:41.232243,25.0,0.4551631886366648,0.08831402615874276,0.1308730690429962
0114,cdot_cos,Q,P-Q,126,25,25273,-0.008603345991790724,-0.0077117531325046566,-0.05741404614116016,0.19226628155559863,1019.0,3.2867310405169388,0.572682510671412,6.428348162712418,-0.027456000812900852,0.125,0.9999999999992648,213.87584921646177,0.6258635803293615,126,2026-10-07 22:01:41.357243,25.0,0.1619188622558539,0.34578686403729897,0.18997469055567962
0114,cdot_cos,R,Q-R,127,25,25305,0.07403974016586191,0.10680591375041491,0.08264308615765265,0.8875620732991865,1019.0,3.3494309202068036,0.5737610351747379,6.465961455627418,-0.07340275705393537,0.032,0.9999999999992533,-42.601495004838505,0.6308307119479059,127,2026-10-07 22:01:41.389244,25.0,0.5347509826951116,1.2854218503936323,1.9593712403082746
0114,cdot_cos,S,R-S,128,25,25338,-0.00798215110142725,-0.023963562387964075,-0.08202189126728916,0.1139970931905377,1019.0,3.3689980389421312,0.573899508576647,6.492934721543375,-0.023189266850300563,0.033,0.9999999999992227,362.62191519351114,0.6357978448182502,128,2026-10-07 22:01:41.422244,25.0,0.11470675563442194,0.5070549731306215,0.5929429919796267
0114,cdot_cos,T,S-T,129,25,25607,-0.17951472366711546,-0.010825626836540626,-0.1715325725656882,0.013542139846586686,1019.0,3.3828965484334246,0.5739159575788183,6.5184352212307575,-0.01655320107756844,0.269,0.9999999999991901,403.4327251954052,0.640765125229149,129,2026-10-07 22:01:41.691243,25.0,0.6697215825732711,0.1550597551880279,0.05166732152897153
0114,cdot_cos,P,T-P,130,26,26167,0.04666325061751251,-0.0032893718653305903,0.22617797428462796,0.9965103196617632,939.0,3.4524201872332902,0.5751259207525944,6.557447511562602,-0.0837642685674857,0.56,0.9999999999991825,-55.548027366951324,0.6457325922190122,130,2026-10-07 22:01:42.251244,25.0,0.4482592611676172,0.08281321787488384,0.12414935499976011
0114,cdot_cos,Q,P-Q,131,26,26289,-0.015243850483352995,-0.014065698342257588,-0.0619071011008655,0.1754219585039683,939.0,3.4756473524532945,0.5753388254346616,6.585057210569441,-0.028360838735541682,0.122,0.9999999999991407,260.2264510765613,0.6506997805843007,131,2026-10-07 22:01:42.373244,25.0,0.14177432647325608,0.3572307312969636,0.1903866001639691
0114,cdot_cos,R,Q-R,132,26,26322,0.06771540873305025,0.1130240286697689,0.08295925921640325,0.888348477434338,939.0,3.5395844856697494,0.5764165581843237,6.622525475588283,-0.0789978168706644,0.033,0.999999999999127,-46.98472617724671,0.6556669116904884,132,2026-10-07 22:01:42.406244,25.0,0.5267695459461654,1.3159189851707447,1.9374888853471177
0114,cdot_cos,S,R-S,133,26,26356,0.0032575117711127637,-0.06553089463330415,-0.06445789696193749,0.16638775475077724,939.0,3.5624980054745636,0.5766183371384287,6.649890487951294,-0.02865777859008839,0.034,0.9999999999990944,249.48111414225957,0.6606340441459843,133,2026-10-07 22:01:42.440243,25.0,0.172632110603601,0.7098689466400203,0.6739270530827725
0114,cdot_cos,T,S-T,134,26,26626,-0.050096536457811924,0.006351951368730774,-0.053354048228924686,0.20852304415197326,939.0,3.5878555740412708,0.5768711776045513,6.677770092563513,-0.03192501289107087,0.27,0.9999999999990641,-12.922117851966041,0.6656013357420004,134,2026-10-07 22:01:42.710243,25.0,0.902721768452289,0.16688283151444114,0.09391692061743379
0114,cdot_cos,P,T-P,135,27,27106,0.033756478456771516,0.0018493578918440871,0.08385301491458344,0.8905455111449647,938.0,3.652614734492362,0.5779505361755913,6.715181963165434,-0.08250238175190933,0.48,0.9999999999990514,-46.858727227323804,0.6705687733553254,135,2026-10-07 22:01:43.190243,25.0,0.5417008765550265,0.09107714551758461,0.13491491760643978
0114,cdot_cos,Q,P-Q,136,27,27235,-0.03307593231627039,-0.02778623902269679,-0.0668324107730419,0.15831617880740412,938.0,3.675289633738152,0.5781423408620298,6.742244166575499,-0.029232797652604378,0.129,0.9999999999990065,277.7282718605857,0.6755359702720285,136,2026-10-07 22:01:43.319244,25.0,0.1616609470687415,0.3434087502554562,0.17577441275806308
0114,cdot_cos,R,Q-R,137,27,27270,0.05567678153496691,0.11170232286244638,0.0887527138512373,0.9019266780322753,938.0,3.7412141920582695,0.5792346001502583,6.779771039913463,-0.08595782916571121,0.035,0.9999999999989934,-51.93366824566485,0.6805031020781225,137,2026-10-07 22:01:43.354244,25.0,0.5168942423679592,1.410233052511232,1.8835588091462159
0114,cdot_cos,S,R-S,138,27,27297,0.027060110461247653,-0.11574623261883786,-0.02861667107371926,0.3284030372005476,938.0,3.7740059474139382,0.5796321137495444,6.8091394596183425,-0.043314452612998385,0.027,0.9999999999989632,107.27526461811281,0.6854702289062982,138,2026-10-07 22:01:43.381243,25.0,0.3736234231157439,1.0609952569295484,1.2145094576173592
0114,cdot_cos,T,S-T,139,27,27584,-0.03216778038626205,0.0010974738022179755,-0.05922789084750971,0.18532212369997722,938.0,3.798507935932465,0.5798563903209832,6.8364098917943945,-0.032606495359659204,0.287,0.9999999999989287,47.74443083662926,0.6904375449523791,139,2026-10-07 22:01:43.668243,25.0,0.7200752815456254,0.15599712962492893,0.08537278229451889
0114,cdot_cos,P,T-P,140,28,28044,0.045513592185676986,-0.001826833088646,0.07768137257193904,0.8745754640682525,999.0,3.8635482998186474,0.580914353900459,6.8734753593900635,-0.08751603976161157,0.46,0.9999999999989148,-51.901166984559204,0.6954049910095407,140,2026-10-07 22:01:44.128243,25.0,0.5339662541550722,0.09534292026011805,0.1413920954047441
0114,cdot_cos,Q,P-Q,141,28,28169,-0.02358911098708502,-0.016626124110003367,-0.06910270317276201,0.1508989775206964,999.0,3.8862234225717738,0.5810968196547925,6.900146717736092,-0.030856397114506794,0.125,0.9999999999988661,310.52206401167666,0.700372189431591,141,2026-10-07 22:01:44.253243,25.0,0.15941626160609979,0.3624089637309673,0.18140098202501065
0114,cdot_cos,R,Q-R,142,28,28201,0.07155913883798445,0.10852838850956717,0.09514824982506948,0.9151890695202248,999.0,3.9541505407513893,0.5822029815449923,6.937753576878738,-0.09344674684085334,0.032,0.9999999999988528,-56.583353920324,0.7053393184558368,142,2026-10-07 22:01:44.285243,25.0,0.5118124704706342,1.3893326701385904,2.122722443112984
0114,cdot_cos,S,R-S,143,28,28234,-0.0083696076933381,-0.03425859952921193,-0.07992874653132255,0.11939007785435705,999.0,3.9751407134606436,0.5823472240805996,6.963864308223336,-0.029200633357117547,0.033,0.999999999998812,445.40338405203073,0.7103064489629619,143,2026-10-07 22:01:44.318244,25.0,0.1107852491786307,0.6640783739617292,0.6360658396743726
0114,cdot_cos,T,S-T,144,28,28504,-0.07763112645259439,0.023002151504534968,-0.06926151875925629,0.15039096235418598,999.0,3.9979797134328634,0.5825289006498657,6.990351173064452,-0.031944331279553206,0.27,0.9999999999987735,-15.102101132348984,0.7152737636867998,144,2026-10-07 22:01:44.588243,25.0,0.9176951919929929,0.1731035206047757,0.08458888878599936
0114,cdot_cos,P,T-P,145,29,29043,0.03954174643746608,-0.003179553050313923,0.11717287289006047,0.9492770306562865,999.0,4.0686166145872225,0.583675135547614,7.028383870136172,-0.09987802772306409,0.539,0.9999999999987623,-59.266819198199215,0.7202412929129011,145,2026-10-07 22:01:45.127244,25.0,0.5065326075922346,0.09088103050294162,0.1310517646648591
0114,cdot_cos,Q,P-Q,146,29,29153,-0.010612998437067107,-0.008129902825800818,-0.05015474487453318,0.22203118033348612,999.0,4.0959494643150345,0.5839431041583926,7.05581623392899,-0.03910981530351741,0.11,0.9999999999987108,226.77362189168483,0.7252084830637001,146,2026-10-07 22:01:45.237243,25.0,0.21144630643230447,0.43669923180313525,0.2484804520710184
0114,cdot_cos,R,Q-R,147,29,29186,0.08140198412043038,0.10288053516070929,0.09201498255749749,0.9089080554576989,999.0,4.164690445583912,0.5850395431020061,7.093232406128507,-0.09944107209902442,0.033,0.9999999999986956,-55.02472996505597,0.7301756118855969,147,2026-10-07 22:01:45.270243,25.0,0.5451449242178562,1.3403001731499233,2.0830600384508404
0114,cdot_cos,S,R-S,148,29,29213,-0.010034576773925621,-0.024232978347746688,-0.091436560894356,0.09229629391527584,999.0,4.184409275742929,0.5851508355750124,7.118672074581408,-0.02882858672019664,0.027,0.9999999999986493,634.4767392748544,0.7351427364801199,148,2026-10-07 22:01:45.297244,25.0,0.08634614175005487,0.7631381958981194,0.7303270429265633
0114,cdot_cos,T,S-T,149,29,29483,-0.08909732894946497,0.024013345482493686,-0.07906275217553935,0.12168508083613021,999.0,4.205899908162411,0.5852975522763555,7.144472045664156,-0.0315707550369952,0.27,0.9999999999986052,-18.690226073071024,0.7401100628379679,149,2026-10-07 22:01:45.567244,25.0,0.9168073985970024,0.17371075920859327,0.07959493488696753
0114,cdot_cos,P,T-P,150,30,30042,0.035062098423205214,-0.0025296539008851805,0.12415942737267019,0.9570568515689025,938.0,4.27821308571557,0.5864509542594633,7.182533077263203,-0.10733146303711648,0.559,0.9999999999985935,-65.68456540710065,0.7450776348493486,150,2026-10-07 22:01:46.126244,25.0,0.49368510454336867,0.08584583438840741,0.12936167719706462
0114,cdot_cos,Q,P-Q,151,30,30152,-0.032958946928012794,-0.022191091435657905,-0.068021045351218,0.1543965614798629,938.0,4.30187555100865,0.5866369376089644,7.2087208487365855,-0.03551381461912419,0.11,0.9999999999985331,386.15095711859874,0.7500448279193349,151,2026-10-07 22:01:46.236243,25.0,0.13235793403505539,0.4303485646661518,0.2151133208461851
0114,cdot_cos,R,Q-R,152,30,30188,0.06893632738762194,0.10457612990883455,0.10189527431563473,0.9273974285038185,938.0,4.372889769942123,0.5877535422672631,7.246317862268642,-0.10767122829281198,0.036,0.9999999999985176,-64.62216787061604,0.7550119581915694,152,2026-10-07 22:01:46.272243,25.0,0.5116245093831088,1.393264332633685,1.9726171925964735
0114,cdot_cos,S,R-S,153,30,30231,0.0235195422424061,-0.12063658280289781,-0.04541678514521584,0.24316231495256765,938.0,4.4021905829582755,0.5880461655717081,7.273734897218479,-0.04492987559620311,0.043,0.9999999999984738,214.40996579408753,0.7599790954765991,153,2026-10-07 22:01:46.315244,25.0,0.2474792931500372,0.7513039817930529,0.6814142561895881
0114,cdot_cos,T,S-T,154,30,30501,-0.0030390514571452037,0.00021421042636406062,-0.026558593699551304,0.33984952788367984,938.0,4.437501912376326,0.5884550386637243,7.302540535094832,-0.05452884008640793,0.27,0.9999999999984355,-23.476635361038632,0.7649464349519497,154,2026-10-07 22:01:46.585243,25.0,0.8385889378660599,0.1733239275894383,0.1307827015483343
0114,cdot_cos,P,T-P,155,31,30980,0.03275128556748018,-0.0022857874293403893,0.035790337024625384,0.7098711676238071,960.0,4.495785503856572,0.589308690469576,7.336839763500203,-0.09089927159443167,0.479,0.9999999999984098,-42.60569855145473,0.769913965150494,155,2026-10-07 22:01:47.064243,25.0,0.6702409768547576,0.08716852294860233,0.12167764400886519
0114,cdot_cos,Q,P-Q,156,31,31090,-0.029782394872016532,-0.019643414281704998,-0.06253368043949671,0.17316761311902612,960.0,4.521009357361087,0.5895168508997459,7.363069196670272,-0.039700836565218015,0.11,0.9999999999983477,245.95661618984244,0.7748811618794907,156,2026-10-07 22:01:47.174243,25.0,0.27537927509130233,0.44241200722868645,0.22930775913195103
0114,cdot_cos,R,Q-R,157,31,31127,0.07135412981517968,0.10470406467859855,0.10113652468719621,0.9261098357598366,960.0,4.593116145446883,0.5906295584175576,7.400573306851132,-0.11462180147815271,0.037,0.9999999999983314,-67.33212790750206,0.7798482925213159,157,2026-10-07 22:01:47.211244,25.0,0.520150933016887,1.267419204510255,1.94883211042693
0114,cdot_cos,S,R-S,158,31,31165,-0.010920771491060459,-0.036993226651185214,-0.08227490130624013,0.1133597898778991,960.0,4.614798378494846,0.5907656950653931,7.425815802080762,-0.03481745948796717,0.038,0.9999999999982766,586.2076322505538,0.7848154249160713,158,2026-10-07 22:01:47.249243,25.0,0.10105622227341965,0.4779972089336764,0.5705850802095385
0114,cdot_cos,T,S-T,159,31,31419,-0.28581136653275296,0.05437167455485682,-0.2748905950416925,0.001035055254875363,960.0,4.629443933325843,0.5907669380254348,7.449293819151235,-0.02361068503851103,0.254,0.9999999999982172,9016.198488892649,0.7897827605075148,159,2026-10-07 22:01:47.503244,25.0,0.6221037345966531,0.18110857134353311,0.05765966468896434
0114,cdot_cos,P,T-P,160,32,31940,0.07189732074126978,-0.008732294063113023,0.3577086872740227,0.9998693316153077,998.0,4.7068015327373605,0.5919671005247914,7.487863707214098,-0.12583817349374254,0.521,0.9999999999982067,-85.17803923221537,0.7947503525077434,160,2026-10-07 22:01:48.024243,25.0,0.4438038320131837,0.09389062307879731,0.1484790775652934
0114,cdot_cos,Q,P-Q,161,32,32052,-0.01975252077811466,-0.014411992201000921,-0.09164984151938443,0.09185056000273327,998.0,4.727277962573949,0.5920772957725918,7.512625444027455,-0.033655383833606604,0.112,0.9999999999981342,836.5405178550649,0.7997175542337734,161,2026-10-07 22:01:48.136243,25.0,0.06463361799489302,0.4117639454150374,0.18282526639811542
0114,cdot_cos,R,Q-R,162,32,32091,0.06956963412382548,0.09724491338759511,0.08932215490194015,0.9031787397190106,998.0,4.799036656510329,0.593160365550631,7.549705736986843,-0.11899788033818598,0.039,0.9999999999981157,-78.79685892361042,0.8046846859445934,162,2026-10-07 22:01:48.175244,25.0,0.48812848896482347,1.2436026994637863,1.839966511189217
0114,cdot_cos,S,R-S,163,32,32126,0.00466266178531945,-0.10802838790785714,-0.06490697233850604,0.16483638051591254,998.0,4.824278973132125,0.5933579359303124,7.575493848987413,-0.042279268535496364,0.035,0.9999999999980597,388.31029188896605,0.8096518145589099,163,2026-10-07 22:01:48.210243,25.0,0.1629082539399094,0.7758755958378112,0.7212090463370251
0114,cdot_cos,T,S-T,164,32,32399,-0.04487676175070613,0.013778797956565432,-0.049539423536025584,0.22469970099199896,998.0,4.853347948218976,0.5936272089186632,7.6021443922415015,-0.04895324329369273,0.273,0.9999999999980079,-24.78516244452376,0.8146191807192644,164,2026-10-07 22:01:48.483244,25.0,0.87255144962505,0.18512360395291017,0.10647976222289711
0114,cdot_cos,P,T-P,165,33,32938,0.04170395832247948,-0.0033492192340344403,0.08658072007318561,0.8970176571672513,979.0,4.925356460890414,0.5947016042028037,7.639087485575981,-0.12242878734355227,0.539,0.9999999999979907,-68.3878132512797,0.8195868185217254,165,2026-10-07 22:01:49.022244,25.0,0.5487297358917792,0.09011881140197311,0.1335964984627793
0114,cdot_cos,Q,P-Q,166,33,33055,-0.02464634737245957,-0.017284245880262252,-0.06635030569493905,0.1599288391748572,979.0,4.950496026910303,0.5948930626890412,7.664668470473727,-0.04316039567009149,0.117,0.9999999999979156,414.02391312726417,0.8245540288037655,166,2026-10-07 22:01:49.139244,25.0,0.1593582911840781,0.4220107364761471,0.21486808564007676
0114,cdot_cos,R,Q-R,167,33,33093,0.07031214727172584,0.10684564065932389,0.0949584946441854,0.9148201329379287,979.0,5.024106973225832,0.5959876813804684,7.701865801819932,-0.12753056726467216,0.038,0.9999999999978963,-77.07722538939375,0.8295211586592661,167,2026-10-07 22:01:49.177243,25.0,0.5160414281985416,1.2717700473204336,1.9371301661981433
0114,cdot_cos,S,R-S,168,33,33127,-0.007659924818115454,-0.04544725767453237,-0.07797207208984129,0.12462950950314909,979.0,5.047150550506656,0.5961367318990891,7.7268227670014795,-0.0403049429609349,0.034,0.9999999999978322,585.2084589233474,0.8344882851822335,168,2026-10-07 22:01:49.211244,25.0,0.11484841965493929,0.634043713979858,0.6777522729653974
0114,cdot_cos,T,S-T,169,33,33397,-0.10614622307075437,0.031920858143870426,-0.09848629825263892,0.0785540313118671,979.0,5.0672219457764625,0.5962306693894986,7.751006317098885,-0.03525401939926726,0.27,0.9999999999977667,53.76898552055595,0.8394556607827227,169,2026-10-07 22:01:49.481244,25.0,0.8665181055700498,0.1801944344245426,0.07433850099928457
0114,cdot_cos,P,T-P,170,34,33917,0.02244835859165735,-0.0006137965987096337,0.12859458166241172,0.961389840309938,918.0,5.144455545095909,0.5973797575490827,7.788886942080901,-0.1368339443284603,0.52,0.9999999999977517,-88.40046264680399,0.8444233059036729,170,2026-10-07 22:01:50.001244,25.0,0.4759896786299259,0.0959397990768786,0.14852615253739648
0114,cdot_cos,Q,P-Q,171,34,34030,-0.059397992212181054,-0.04078588626981906,-0.0818463508038384,0.1144410919783886,918.0,5.166999336816416,0.5975164707918457,7.8135500425376625,-0.0403263924635134,0.113,0.9999999999976685,705.9122431340272,0.8493905155195489,171,2026-10-07 22:01:50.114244,25.0,0.09134049487197238,0.44028070771938344,0.1995025815974122
0114,cdot_cos,R,Q-R,172,34,34068,0.058211315210860225,0.0988882950181578,0.11760930742304128,0.949799822447098,918.0,5.243958985040489,0.5986505308395791,7.851236486096793,-0.13886545019664034,0.038,0.9999999999976504,-86.89051160039647,0.8543576445261726,172,2026-10-07 22:01:50.152243,25.0,0.491840418899752,1.659029329592107,2.025253900633502
0114,cdot_cos,S,R-S,173,34,34105,0.061245580597703894,-0.179152295379141,0.0030342653868436695,0.5189550702214194,918.0,5.293085565865416,0.5992697176463565,7.882170885336762,-0.08967145874142923,0.037,0.9999999999976086,79.44935343703993,0.8593247735347277,173,2026-10-07 22:01:50.189243,25.0,0.577756629110156,1.0246954647359903,1.327745427700731
0114,cdot_cos,T,S-T,174,34,34376,-0.0009525791946734766,4.346863761592351e-06,-0.06219815979237737,0.17437190871738453,918.0,5.319786449430953,0.5994776969810325,7.9076623236404,-0.04907979498229803,0.271,0.9999999999975453,195.1716204033974,0.864292166215123,174,2026-10-07 22:01:50.460243,25.0,0.4373355766512764,0.16741123371030514,0.098527245629285
0114,cdot_cos,P,T-P,175,35,34835,0.041347738782938584,-0.0030141570904343626,0.04230031797761206,0.7422140232504568,979.0,5.383822454536402,0.6003625592731672,7.942058784449599,-0.11862564705358652,0.459,0.9999999999975143,-78.59511326164908,0.8692597747990887,175,2026-10-07 22:01:50.919244,25.0,0.5564025670365562,0.09867817003925713,0.139511993693789
0114,cdot_cos,Q,P-Q,176,35,34952,-0.02213783946819488,-0.015450943579760965,-0.06348557825113346,0.16978673609724146,979.0,5.410373009526991,0.6005648860114651,7.967402643084346,-0.04959232809775573,0.117,0.9999999999974317,341.19721168137903,0.8742269938195025,176,2026-10-07 22:01:51.036243,25.0,0.24857365073911805,0.4383764518193232,0.2269278204323837
0114,cdot_cos,R,Q-R,177,35,34988,0.07460982454506536,0.11300374149067144,0.09674766401326024,0.9182415714945174,979.0,5.486402544262123,0.601658514344256,8.004555089594945,-0.1432287772764192,0.036,0.9999999999974113,-85.61999206778502,0.8791941202572735,177,2026-10-07 22:01:51.072243,25.0,0.5200894615887689,1.3756996690374386,2.111931520420354
0114,cdot_cos,S,R-S,178,35,35024,-0.00747284440917293,-0.025145817782097412,-0.08208266895423828,0.11384371684907776,979.0,5.509423385697686,0.6017940321091871,8.028942997152965,-0.043757162385542774,0.036,0.9999999999973379,734.0116252759532,0.8841612475887258,178,2026-10-07 22:01:51.108243,25.0,0.1029754414379224,0.5448490746466547,0.6394678176545229
0114,cdot_cos,T,S-T,179,35,35294,-0.1861663886450959,-0.04887523152396698,-0.17869354423592299,0.011347576776986529,979.0,5.5256316776366825,0.6018075392309099,8.051645320545507,-0.030917683256190084,0.27,0.9999999999972585,950.5710685727613,0.8891286511765959,179,2026-10-07 22:01:51.378243,25.0,0.6601557609121815,0.1816263046344392,0.06003071088517152
0114,cdot_cos,P,T-P,180,36,35814,0.04908110280935675,-0.004900476364335016,0.23524749145445267,0.9972163015743037,999.0,5.607501590200283,0.6029939271637899,8.090021919443494,-0.15739689183803918,0.52,0.9999999999972448,-106.60864383104557,0.8940963557384325,180,2026-10-07 22:01:51.898243,25.0,0.44772832209787156,0.10703949675617659,0.1574421395453863
0114,cdot_cos,Q,P-Q,181,36,35924,-0.004420160974323439,-0.00369458522429643,-0.05350126378368019,0.2079162800049536,999.0,5.636952754263106,0.6032411330961244,8.11578939851777,-0.057174562584259146,0.11,0.9999999999971584,405.42040519545714,0.8990635701564309,181,2026-10-07 22:01:52.008243,25.0,0.1732675818244272,0.48141273122300665,0.2677378551165707
0114,cdot_cos,R,Q-R,182,36,35959,0.08761516948114567,0.11379711700043837,0.0920353304554691,0.9089501638972598,999.0,5.713412391069345,0.6043212258958742,8.15274913075798,-0.14969144596573436,0.035,0.9999999999971363,-85.6564208213422,0.9040306943773861,182,2026-10-07 22:01:52.043243,25.0,0.5389941458916797,1.4015567160112825,2.1845610516068192
0114,cdot_cos,S,R-S,183,36,35985,-0.005462026969877216,-0.01345248215414894,-0.09307719645102289,0.08891705996182378,999.0,5.735061724383896,0.604426830344712,8.176544684821575,-0.04274714951467915,0.026,0.999999999997055,1012.68741637326,0.908997808345003,183,2026-10-07 22:01:52.069243,25.0,0.08193837948816884,0.9667558788103864,0.8326666659442731
0114,cdot_cos,T,S-T,184,36,36254,-0.0628018712898564,0.02474028610542575,-0.05733984431997918,0.19255453451885182,999.0,5.763683696767485,0.6046554888914389,8.201956182356993,-0.056751604617512205,0.269,0.9999999999969843,-61.246147599972645,0.9139652247739494,184,2026-10-07 22:01:52.338243,25.0,0.7813222815281899,0.1967506028140085,0.10640138432560962
0114,cdot_cos,P,T-P,185,37,36813,0.030529484808447648,7.080958223237031e-05,0.09333135609830405,0.9115963393161599,939.0,5.8409135486978325,0.6057373869030251,8.23892955147083,-0.15439369456710475,0.559,0.9999999999969639,-90.2507342687844,0.9189330091837947,185,2026-10-07 22:01:52.897243,25.0,0.5313030086671202,0.09485755534346547,0.13815715908827833
0114,cdot_cos,Q,P-Q,186,37,36941,-0.026775120819524118,-0.022812118897937182,-0.057304605627971766,0.19269154202306316,939.0,5.869734443641479,0.6059659442463432,8.264284609758514,-0.0581319334848695,0.128,0.9999999999968681,421.17115855813074,0.92390025011098,186,2026-10-07 22:01:53.025243,25.0,0.19091656245595393,0.41200343652775945,0.22516324174724073
0114,cdot_cos,R,Q-R,187,37,36973,0.059578514556696736,0.10838448155700499,0.08635363537622086,0.8964920389174865,939.0,5.946386428448939,0.6070286899302851,8.301003558021714,-0.15585210928669335,0.032,0.999999999996842,-91.95066823453031,0.9288673691202828,187,2026-10-07 22:01:53.057244,25.0,0.53418887944004,1.7270127162120756,2.3953745252331125
0114,cdot_cos,S,R-S,188,37,37006,0.018623780522260762,-0.1069983235326072,-0.040954734034435974,0.2642745779016323,939.0,5.980263257479052,0.6073417811657225,8.327462027542122,-0.06950458295346718,0.033,0.9999999999967695,275.7903018671746,0.9338344904081225,188,2026-10-07 22:01:53.090244,25.0,0.28871116217355863,1.022355073989959,1.026570576670098
0114,cdot_cos,T,S-T,189,37,37272,-0.02333613658989799,0.0013300594634016233,-0.041959917112158754,0.25941757260658543,939.0,6.013861863332276,0.6076490324103391,8.353804143901842,-0.06930454986556221,0.266,0.9999999999966984,0.6510407733402799,0.9388019182332172,189,2026-10-07 22:01:53.356243,25.0,0.9971178704862534,0.2015740856892816,0.12631054832039115
0114,cdot_cos,P,T-P,190,38,37752,0.0440298959202698,0.0017157117898481818,0.06736603251016779,0.8434533851493302,979.0,6.08750067106575,0.6086474189121978,8.38963706302071,-0.15311554832558755,0.48,0.9999999999966701,-83.94644589444616,0.9437696335540317,190,2026-10-07 22:01:53.836244,25.0,0.5784686536451826,0.10937165218138183,0.15341418277807034
0114,cdot_cos,Q,P-Q,191,38,37880,-0.005737315643174631,-0.005826392097755581,-0.04976721156344443,0.2237091841979641,979.0,6.118858649426403,0.608912068890421,8.415344147676159,-0.06575178954476063,0.128,0.9999999999965739,330.11058367485634,0.9487368803692223,191,2026-10-07 22:01:53.964243,25.0,0.2648238990497125,0.42127643154476685,0.24498420594259995
0114,cdot_cos,R,Q-R,192,38,37912,0.07354221415346632,0.12303334177135512,0.07927952979664095,0.8788929506367924,979.0,6.19534743754121,0.6099511857220248,8.451743597485907,-0.1616450859174169,0.032,0.9999999999965453,-92.28345981525278,0.9537039985076409,192,2026-10-07 22:01:53.996243,25.0,0.5525377065255618,1.5802669252840684,2.390274628587735
0114,cdot_cos,S,R-S,193,38,37941,-0.004773824323752007,-0.015908163262983353,-0.07831603847721832,0.12369439122650261,979.0,6.219995732644583,0.6100973499956668,8.475755317835832,-0.05251040417925559,0.029,0.9999999999964556,746.6577092940178,0.9586711134402663,193,2026-10-07 22:01:54.025243,25.0,0.1251372721366084,0.8300248484276079,0.8499412104611328
0114,cdot_cos,T,S-T,194,38,38212,-0.08966003050672006,0.021881275196032224,-0.08488620618296805,0.10696203318315181,979.0,6.243488878750012,0.6102237264296605,8.499445057572805,-0.05023768097394442,0.271,0.9999999999963666,17.983757995768663,0.9636385623165774,194,2026-10-07 22:01:54.296243,25.0,0.9557686308600134,0.19603637188573672,0.08669057603479118
0114,cdot_cos,P,T-P,195,39,38731,0.038970292626104464,-0.0033398440681834483,0.12863032313282452,0.961422994201473,979.0,6.3262474462066525,0.6113589885870951,8.537176037535037,-0.17829054559279045,0.519,0.9999999999963474,-112.79585405031666,0.9686063600061684,195,2026-10-07 22:01:54.815244,25.0,0.48761663237001085,0.10990118442282097,0.15945774076424066
0114,cdot_cos,Q,P-Q,196,39,38840,-0.012272201434192838,-0.009430162423904554,-0.0512424940602973,0.21736944210953218,979.0,6.3575663081809,0.6116154946876726,8.562629937750481,-0.06806761969504216,0.109,0.9999999999962437,429.70878918512994,0.9735735850719489,196,2026-10-07 22:01:54.924243,25.0,0.19803428195198666,0.5096697617242617,0.28732900893804836
0114,cdot_cos,R,Q-R,197,39,38872,0.08132517520217025,0.10344080969386057,0.09359737663636308,0.9121308288672567,979.0,6.4373554542625415,0.6126911762793428,8.59954356728552,-0.17475302603014226,0.032,0.9999999999962172,-99.17935489576936,0.978540702009573,197,2026-10-07 22:01:54.956243,25.0,0.5430833514656691,1.5977648843205765,2.4934108150513055
0114,cdot_cos,S,R-S,198,39,38900,-0.012210808742120528,-0.05613894887658225,-0.09353598394429077,0.0879922617822342,979.0,6.459823260777417,0.6127948881901221,8.622801523230544,-0.049597072970238965,0.028,0.9999999999961179,1206.7654729286255,0.9835078141128778,198,2026-10-07 22:01:54.984244,25.0,0.0801821448979835,1.1069030443728392,0.80242166124554
0114,cdot_cos,T,S-T,199,39,39170,-0.04027105530969655,0.013563523466528702,-0.028060246567576025,0.3314783764755546,979.0,6.4993420247474205,0.6131854926586568,8.650058971856565,-0.0876232431148847,0.27,0.999999999996045,-97.35211245096016,0.988475277395825,199,2026-10-07 22:01:55.254244,25.0,0.6479293910126348,0.21868517464575335,0.14636579248149578
0114,cdot_cos,P,T-P,200,40,39710,0.04187643241386716,0.0007113139181147234,0.08214748772356371,0.8863196592061612,999.0,6.5779132550861235,0.6142291897847209,8.686525951247337,-0.1756241346756548,0.54,0.9999999999960177,-84.31650271246758,0.9934431405116573,200,2026-10-07 22:01:55.794244,25.0,0.6058788920331336,0.0999246961896,0.14550227840500546
0114,cdot_cos,Q,P-Q,201,40,39841,-0.01784387221308673,-0.0162246161537386,-0.05972030462695389,0.1834707298489285,999.0,6.6072606966321885,0.6144451073130548,8.711277031931644,-0.06612562313186522,0.131,0.9999999999959033,507.131182858101,0.998410402436307,201,2026-10-07 22:01:55.925244,25.0,0.1909169968141887,0.41044869884950336,0.22402627134400804
0114,cdot_cos,R,Q-R,202,40,39879,0.060004173309119356,0.10841086827615909,0.07784804552220609,0.8750318234490302,999.0,6.685450814184693,0.6154742676322961,8.747547207517849,-0.17743731607920657,0.038,0.99999999999587,-108.15777762341587,1.0033775268923963,202,2026-10-07 22:01:55.963244,25.0,0.5340158974112338,1.399823878640256,2.0576346724343373
0114,cdot_cos,S,R-S,203,40,39919,-0.004889518454240521,-0.04772290179133158,-0.06489369176335988,0.16488209247731672,999.0,6.713647311408848,0.6156680767651862,8.77193415700974,-0.06448640835965093,0.04,0.999999999995771,582.7945568673782,1.0083446554007378,203,2026-10-07 22:01:56.003244,25.0,0.1735055042918529,0.7630588048662901,0.7049124306038657
0114,cdot_cos,T,S-T,204,40,40189,-0.05317374349047091,0.012434494945700819,-0.04828422503623039,0.2302135777164141,999.0,6.7464955185739965,0.6159386177565751,8.79737744581576,-0.07544730732597493,0.27,0.9999999999956809,-40.514743847329854,1.0133121342066491,204,2026-10-07 22:01:56.273243,25.0,0.8647811046993795,0.21523293901309626,0.12166002653758733
0114,cdot_cos,P,T-P,205,41,40709,0.05698116790246235,-0.004589126043255875,0.11015491139293326,0.9401316978988523,897.0,6.82987309847592,0.6170426898942761,8.834721502360267,-0.19294906176877563,0.52,0.9999999999956563,-106.42579450240501,1.0182800013270332,205,2026-10-07 22:01:56.793243,25.0,0.5439063991545275,0.10806124378504973,0.16034149981139115
0114,cdot_cos,Q,P-Q,206,41,40817,-0.005475177344768792,-0.005108362887115639,-0.06245634524723114,0.17344461052807122,897.0,6.858879212110448,0.6172462483291274,8.8591656982301,-0.06766680486691945,0.108,0.9999999999955338,615.4608969820704,1.0232472331776354,206,2026-10-07 22:01:56.901243,25.0,0.15700805906946463,0.5104239569068795,0.26857512624563257
0114,cdot_cos,R,Q-R,207,41,40848,0.08431037059995279,0.12633835201813085,0.08978554794472159,0.9041870759211399,897.0,6.940124673167806,0.6183067549519695,8.895900600013585,-0.1908576091151206,0.031,0.9999999999955018,-116.16222057912256,1.0282143457723105,207,2026-10-07 22:01:56.932243,25.0,0.5244216598597864,1.6862719677608113,2.6208213244308913
0114,cdot_cos,S,R-S,208,41,40877,-0.007472067756893675,-0.025292696006489302,-0.09178243835684646,0.09157442293459503,897.0,6.963428074111619,0.6184140984671033,8.91891049464619,-0.0551519928424715,0.029,0.9999999999953894,1264.2181141875103,1.0331814561596204,208,2026-10-07 22:01:56.961244,25.0,0.08538583769331684,0.7344174315376701,0.8035655497866437
0114,cdot_cos,T,S-T,209,41,41147,-0.13915400295874725,0.03732295996356915,-0.13168193520185356,0.0358449862698151,897.0,6.982720884196991,0.618456112802496,8.940931839984005,-0.04579812055163955,0.27,0.9999999999952724,222.6352554049075,1.0381489499904306,209,2026-10-07 22:01:57.231244,25.0,0.8152655417595115,0.19638487780746258,0.07145485216804519
0114,cdot_cos,P,T-P,210,42,41606,0.004892847312288916,-2.719977609255743e-05,0.14404685027103617,0.9734333129772216,980.0,7.069475908127648,0.6195964061909001,8.978820850230239,-0.20727003021803547,0.459,0.99999999999525,-141.60558265832967,1.0431167503335281,210,2026-10-07 22:01:57.690243,25.0,0.4588457050106906,0.12476611342495529,0.1890087667334588
0114,cdot_cos,Q,P-Q,211,42,41735,-0.06387409856662515,-0.04417653390013585,-0.06876694587891408,0.15197763376655263,980.0,7.0972561763211,0.619774316242754,9.002758531174356,-0.06689990231259527,0.129,0.9999999999951215,788.994924360193,1.0480840203842088,211,2026-10-07 22:01:57.819244,25.0,0.12267566775624386,0.43907747648789436,0.21535091622830513
0114,cdot_cos,R,Q-R,212,42,41768,0.053861433362328535,0.09231370369167011,0.1177355319289537,0.949950069052147,980.0,7.182757897061525,0.6208856286322274,9.04024792377915,-0.20731440390308378,0.033,0.9999999999950949,-126.35016303294151,1.053051135099313,212,2026-10-07 22:01:57.852243,25.0,0.5079855896062105,1.828047625387433,2.5909612345583453
0114,cdot_cos,S,R-S,213,42,41796,0.010227501304748256,-0.12629037468080953,-0.04363393205758028,0.2514585713608958,980.0,7.21790731959667,0.6211795892885232,9.065834362493161,-0.0859202582303979,0.028,0.9999999999949942,412.9605206436828,1.058018242630193,213,2026-10-07 22:01:57.880243,25.0,0.24344362358612087,1.267280002656809,1.2553365191123282
0114,cdot_cos,T,S-T,214,42,42066,-0.03160434765963798,0.006621193961025963,-0.041831848964386235,0.2600331578697608,980.0,7.253725577210306,0.6214834802495752,9.09153624748436,-0.08795908294513996,0.27,0.9999999999948985,-6.709066658923321,1.0629857541245562,214,2026-10-07 22:01:58.150244,25.0,0.9770873347099738,0.2100284405997558,0.13266021338383743
0114,cdot_cos,P,T-P,215,43,42586,0.03266859491641725,-0.001818394134068032,0.06427294257605523,0.8329699129444331,979.0,7.3313226775205385,0.6224562978531756,9.12701804790868,-0.19185520606150064,0.52,0.9999999999948594,-106.79918078357765,1.0679536900663038,215,2026-10-07 22:01:58.670244,25.0,0.5818549837867212,0.10509164571786625,0.14922519290429237
0114,cdot_cos,Q,P-Q,216,43,42697,-0.022561840517180458,-0.014841912603574736,-0.05523043543359771,0.20088682595079965,979.0,7.363020888756887,0.6226907644540504,9.151665761810236,-0.07894035811798035,0.111,0.9999999999947268,481.58180108484817,1.072920935723445,216,2026-10-07 22:01:58.781244,25.0,0.23921758242807026,0.5216716080229986,0.28556947059773746
0114,cdot_cos,R,Q-R,217,43,42734,0.07346202648756113,0.10395257277701755,0.09602386700474158,0.9168727916519479,979.0,7.447133774501644,0.6237601692561165,9.188579110010846,-0.21088642840358535,0.037,0.999999999994696,-123.38271721865584,1.077888056196772,217,2026-10-07 22:01:58.818244,25.0,0.5349009992600285,1.4798418264399944,2.2733212363447795
0114,cdot_cos,S,R-S,218,43,42771,-0.009127285522371683,-0.04329219755224536,-0.08258931200993282,0.11257215725375953,979.0,7.472529183913447,0.6238913861848527,9.211663987556577,-0.06413289744291197,0.037,0.9999999999945718,1118.4039466105862,1.082855177733183,218,2026-10-07 22:01:58.855244,25.0,0.10144157395488197,0.7341916050703089,0.6863624165352091
0114,cdot_cos,T,S-T,219,43,43045,-0.07523609469744998,0.02353918323607134,-0.06610880917507829,0.16074164164096985,979.0,7.501463953276847,0.6240787191567829,9.235539735607889,-0.07332266708506965,0.274,0.9999999999944572,-49.05580447195594,1.087822711888136,219,2026-10-07 22:01:59.129244,25.0,0.8822028417098715,0.21223868372722773,0.10560134804160624
0114,cdot_cos,P,T-P,220,44,43565,0.045769360045730935,-0.003857464836042658,0.12100545474318092,0.9536968724443662,919.0,7.588835982595968,0.6251894201812114,9.27307615225594,-0.22286292882970918,0.52,0.9999999999944311,-134.63592673067944,1.092790681997337,220,2026-10-07 22:01:59.649244,25.0,0.5111988762772203,0.11232804656708609,0.16802313330600133
0114,cdot_cos,Q,P-Q,221,44,43679,-0.01895677076544043,-0.015366766861236923,-0.06472613081117137,0.1654597142796753,919.0,7.6182851217066165,0.625381985272543,9.296990929114726,-0.07568292787821759,0.114,0.9999999999942867,764.3129911747891,1.0977579373518178,221,2026-10-07 22:01:59.763244,25.0,0.14303123887024896,0.4977325130279897,0.2583257816723582
0114,cdot_cos,R,Q-R,222,44,43717,0.07020360996309889,0.11917422938058995,0.08916038072853932,0.9028244963087599,919.0,7.702318995566349,0.6264320088335875,9.333646194790388,-0.21732912317434822,0.038,0.9999999999942507,-134.89811138639794,1.102725058437053,222,2026-10-07 22:01:59.801243,25.0,0.5211283454245286,1.4625582127001848,2.211417733150864
0114,cdot_cos,S,R-S,223,44,43753,-0.005125246430695506,-0.04964073551440347,-0.0753288563937944,0.13201929375776914,919.0,7.729439545871831,0.6265854534008208,9.35693569312211,-0.07063659868770857,0.036,0.9999999999941216,955.9968601794025,1.107692177001479,223,2026-10-07 22:01:59.837244,25.0,0.1253405012168683,0.8388033174219706,0.7533486195967005
0114,cdot_cos,T,S-T,224,44,44024,-0.05699471021329044,0.005030828693409246,-0.05186946378259493,0.21471475505354956,919.0,7.762712834420731,0.6268349595741354,9.38162614097589,-0.08697729460838496,0.271,0.9999999999940061,-65.49215076965855,1.1126597225750576,224,2026-10-07 22:02:00.108243,25.0,0.8287198465031014,0.21876716368934865,0.12277966254206885
0114,cdot_cos,P,T-P,225,45,44484,0.03679302712993256,-0.0033430095753605327,0.09378773734322299,0.9125115081126189,898.0,7.8480113485914575,0.6278945760508441,9.418438577126286,-0.22441986031281552,0.46,0.9999999999939727,-129.7097286853659,1.117627618425694,225,2026-10-07 22:02:00.568243,25.0,0.5420294468719441,0.12201390737115024,0.1854315525450572
0114,cdot_cos,Q,P-Q,226,45,44600,-0.04009043683839886,-0.03003484707010438,-0.07688346396833141,0.12762906403366645,898.0,7.8749656292021895,0.6280426823826399,9.441572509211483,-0.0714149442719205,0.116,0.999999999993819,1033.0747793537787,1.1225948825688536,226,2026-10-07 22:02:00.684243,25.0,0.1173637060867398,0.49073686073058376,0.23236448802355092
0114,cdot_cos,R,Q-R,227,45,44634,0.06251471686823455,0.11074994961335646,0.10260515370663341,0.9285833322866336,898.0,7.961862300280953,0.6291195256673702,9.478662266145546,-0.2316234263610883,0.034,0.9999999999937857,-148.7760423089815,1.1275619955467702,227,2026-10-07 22:02:00.718244,25.0,0.5007358786206433,1.780804918844032,2.555784443493045
0114,cdot_cos,S,R-S,228,45,44671,0.012444799804914603,-0.09917273906796652,-0.05006991706331995,0.2223977110301711,898.0,7.996060363683584,0.6293772420317459,9.503408831070823,-0.09182590254427761,0.037,0.9999999999936637,542.4472138407746,1.1325291153297274,228,2026-10-07 22:02:00.755244,25.0,0.21818340266677805,0.8877740891629416,0.9242719838548825
0114,cdot_cos,T,S-T,229,45,44943,-0.0466026609058813,0.0014955732038723418,-0.059047460710795904,0.1860041143660483,898.0,8.02755758287901,0.6295927286292371,9.527487715526993,-0.08490167306185614,0.272,0.9999999999935394,32.1329937130113,1.1374966806276579,229,2026-10-07 22:02:01.027244,25.0,0.9216812176531055,0.21657685803348023,0.1157985999831876
0114,cdot_cos,P,T-P,230,46,45382,0.0476566610225726,0.0005673774126999804,0.0942593219284539,0.9134481571187075,939.0,8.113878174453797,0.6306502121656752,9.564305361658032,-0.23411377403425854,0.439,0.9999999999935058,-141.10111016479024,1.1424645689426325,230,2026-10-07 22:02:01.466244,25.0,0.5286923086901125,0.13183282482280603,0.1966300491452989
0114,cdot_cos,Q,P-Q,231,46,45512,-0.019760141154835324,-0.017192965179375772,-0.06741680217740792,0.15637909751574805,939.0,8.143306803073434,0.6308311242360722,9.587825147065642,-0.08037071297340115,0.13,0.9999999999933508,849.8220197437996,1.1474318658902152,231,2026-10-07 22:02:01.596244,25.0,0.14764804055880057,0.44066996004075665,0.22637406630490356
0114,cdot_cos,R,Q-R,232,46,45545,0.06497642894458101,0.12588772139582455,0.08473657009941633,0.8926801057707648,939.0,8.228452364064394,0.6318631439751877,9.624274990960288,-0.23390184756023563,0.033,0.999999999993312,-148.76763376485562,1.1523989761061937,232,2026-10-07 22:02:01.629244,25.0,0.5187198724674384,1.7285818280366645,2.5801685148775535
0114,cdot_cos,S,R-S,233,46,45572,-0.005017911681535829,-0.0275497658360573,-0.06999434062611684,0.14806504423139882,939.0,8.257393203723854,0.6320342042884458,9.647605746214692,-0.08004139520333747,0.027,0.9999999999931742,899.4514824999859,1.1573660756305402,233,2026-10-07 22:02:01.656243,25.0,0.1462758582942597,0.8875324771111937,1.0718829503503924
0114,cdot_cos,T,S-T,234,46,45842,-0.16751476561372428,-0.07333230920713267,-0.16249685393218843,0.016916221199651426,939.0,8.276379117828398,0.6320537455727969,9.668585478351133,-0.05266066689442475,0.27,0.9999999999930189,1401.1734242717464,1.1623336536198265,234,2026-10-07 22:02:01.926244,25.0,0.5945523684340974,0.2081706987069167,0.0703182003871995
0114,cdot_cos,P,T-P,235,47,46321,0.04364452718253542,0.0004987376449302074,0.2111592927962597,0.9949282379985148,939.0,8.36980538102559,0.633202302365708,9.706830277513253,-0.2605533796538125,0.479,0.9999999999929979,-181.0034245084912,1.1673016498652955,235,2026-10-07 22:02:02.405244,25.0,0.45027843511883714,0.1300973028729671,0.19504439080833227
0114,cdot_cos,Q,P-Q,236,47,46451,-0.01816043358594956,-0.01643132526072267,-0.061804960768484976,0.1757916273553423,939.0,8.4010123339807,0.6334050815025579,9.730577186259667,-0.08766329708927575,0.13,0.999999999992837,852.6029119675142,1.1722689527168668,236,2026-10-07 22:02:02.535244,25.0,0.1391495501915271,0.4448262712194365,0.24005348427008716
0114,cdot_cos,R,Q-R,237,47,46487,0.058529004316431765,0.1196994131099634,0.07668943790238132,0.8718298887633381,939.0,8.485460211542643,0.6344100553721345,9.766642534259518,-0.2385810269252154,0.036,0.9999999999927937,-150.17079986321502,1.177236067666798,237,2026-10-07 22:02:02.571244,25.0,0.5312280713594033,1.7157441179053035,2.345774376720616
0114,cdot_cos,S,R-S,238,47,46531,0.02009212109375136,-0.0812709251650062,-0.03843688322268041,0.2766936169716098,939.0,8.524545910469882,0.634728760966664,9.792142290466428,-0.11119112557138215,0.044,0.999999999992668,399.71027663286674,1.1822032001476444,238,2026-10-07 22:02:02.615244,25.0,0.3180063046193165,0.830592451496011,0.8883113392554473
0114,cdot_cos,T,S-T,239,47,46800,-0.03293439011507641,0.0018143489561539623,-0.053026511208827766,0.20987769722562588,939.0,8.558552347274292,0.6349704269073582,9.81642850317001,-0.0971300224671289,0.269,0.9999999999925349,58.18404970043521,1.1871707944650833,239,2026-10-07 22:02:02.884243,25.0,0.8652249255646632,0.2108956373492639,0.1264179806855364
0114,cdot_cos,P,T-P,240,48,47260,0.022539158798491735,-0.00011805379986842818,0.05547354891356814,0.8000870836514378,898.0,8.638007763363786,0.6358910712366521,9.851206521620352,-0.22820390124524356,0.46,0.9999999999924813,-142.37189608134136,1.192138786977611,240,2026-10-07 22:02:03.344243,25.0,0.5630584877079183,0.11521206644362335,0.17272916541194497
0114,cdot_cos,Q,P-Q,241,48,47385,-0.06068604954565552,-0.04632313565040039,-0.08322520834414726,0.11099376616637162,898.0,8.664547448402425,0.6360187111884068,9.873690898552526,-0.07668302447326956,0.125,0.9999999999923035,1187.0960047304245,1.197106085743406,241,2026-10-07 22:02:03.469243,25.0,0.13863126078666044,0.46977450599344195,0.21231748030911035
0114,cdot_cos,R,Q-R,242,48,47417,0.05232632249018213,0.10309731732907568,0.11301237203583765,0.9440282663016093,898.0,8.755451389862147,0.6371035439197702,9.91103069278879,-0.26409942082866467,0.032,0.9999999999922706,-172.76063943964357,1.2020731912991351,242,2026-10-07 22:02:03.501244,25.0,0.4918195761957859,2.280336316060921,2.840748170616303
0114,cdot_cos,S,R-S,243,48,47450,0.048710961396283364,-0.16750345659382115,-0.003615361093898768,0.4774193633515119,898.0,8.810488972630324,0.6376516415568605,9.940030861249982,-0.16113300633937144,0.033,0.999999999992171,187.86144570138032,1.2070403003174617,243,2026-10-07 22:02:03.534244,25.0,0.5278120418548893,1.310165742725897,1.6678055384296142
0114,cdot_cos,T,S-T,244,48,47719,-0.014228805898937182,-0.0011616418471937315,-0.06293976729522055,0.17171883878139327,898.0,8.841922328882056,0.6378486946443437,9.963540629737482,-0.09245847006475806,0.269,0.9999999999920265,348.5077912340339,1.2120079142936293,244,2026-10-07 22:02:03.803244,25.0,0.47579846929656616,0.210172634423938,0.11685262547112243
0114,cdot_cos,P,T-P,245,49,48158,0.04567611797977883,-0.003243656947522444,0.059904923878716015,0.817219701907373,960.0,8.923561849950403,0.6387858455868382,9.998606034383927,-0.24140230225379017,0.439,0.9999999999919745,-158.93259605819708,1.2169758977931346,245,2026-10-07 22:02:04.242244,25.0,0.5395637970955759,0.12595320080641575,0.18596701837892188
0114,cdot_cos,Q,P-Q,246,49,48275,-0.02760510542255928,-0.020171886115427837,-0.07328122340233811,0.13799655036551045,960.0,8.95250923919009,0.6389439898635982,10.021471828660566,-0.08611187609932687,0.117,0.9999999999917951,981.9541328710102,1.2219431865666903,246,2026-10-07 22:02:04.359244,25.0,0.16474496454504656,0.5076966016639675,0.24741358324518217
0114,cdot_cos,R,Q-R,247,49,48313,0.0690944513013296,0.11104462410581559,0.09669955672388889,0.9181512359140789,960.0,9.042362854739771,0.639995424460108,10.05834472533024,-0.26872806642133173,0.038,0.9999999999917583,-173.68288139670526,1.2269103045254703,247,2026-10-07 22:02:04.397243,25.0,0.506841187315377,1.556743663451318,2.3645688302547914
0114,cdot_cos,S,R-S,248,49,48348,-0.00692501495964169,-0.047661964657921656,-0.0760194662609713,0.130053404365652,960.0,9.07082175761239,0.6401442487640729,10.081028838824654,-0.08565712242444809,0.035,0.9999999999915974,1230.1145654278341,1.2318774170442588,248,2026-10-07 22:02:04.432243,25.0,0.11797848226929565,0.706600915903063,0.8131115106462312
0114,cdot_cos,T,S-T,249,49,48618,-0.13974099008736374,-0.05300423462679041,-0.13281597512772206,0.0348779623690662,960.0,9.091824918852986,0.6401841561600408,10.101962743626448,-0.06338601224818488,0.27,0.9999999999914231,558.069742115522,1.236845049351408,249,2026-10-07 22:02:04.702244,25.0,0.7037325756463558,0.21696494147952042,0.07778948607628264
0114,cdot_cos,P,T-P,250,50,49118,0.05360104333143407,-0.007500321288648203,0.1933420334187978,0.99210462037845,959.0,9.18798282601133,0.641318509668564,10.140163656477268,-0.291664218007591,0.5,0.999999999991399,-201.24079843205004,1.2418131979773561,250,2026-10-07 22:02:05.202244,25.0,0.4571815487678907,0.12786263868492043,0.19231581431668943
0114,cdot_cos,Q,P-Q,251,50,49228,-0.009951779131233301,-0.00812216935584751,-0.06355282246266737,0.16954990036890374,959.0,9.219687557537906,0.6415122121139564,10.163493593959767,-0.09681582206571841,0.11,0.9999999999912139,1005.9160355314237,1.2467804759596548,251,2026-10-07 22:02:05.312243,25.0,0.13364507381768134,0.554625512573475,0.2882248320597792
0114,cdot_cos,R,Q-R,252,50,49261,0.08391376774454506,0.11584390302295815,0.09386554687577836,0.912666680201353,959.0,9.310000438777495,0.6425540946535981,10.200258947941759,-0.2772564040955253,0.033,0.9999999999911742,-173.18706779734282,1.251747581422692,252,2026-10-07 22:02:05.345243,25.0,0.5216243294398194,1.7632798852963527,2.736753976957236
0114,cdot_cos,S,R-S,253,50,49288,-0.00563910734713233,-0.013883263624739706,-0.08955287509167739,0.09631803778250911,959.0,9.336064029967465,0.6426639710876187,10.222225168956115,-0.08050566707612997,0.027,0.9999999999909986,1790.6545545744336,1.2567146743064221,253,2026-10-07 22:02:05.372243,25.0,0.08681841850789833,0.9007850444316751,0.9653181922211289
0114,cdot_cos,T,S-T,254,50,49557,-0.12145698606370951,0.029811657495785862,-0.11581787871657719,0.052379095187603426,959.0,9.358642831176805,0.6427237171330257,10.243359414578563,-0.06991855047484563,0.269,0.9999999999908186,177.2019642333808,1.2616823214452537,254,2026-10-07 22:02:05.641243,25.0,0.859486027650349,0.22040746517892934,0.08393606397524152
0114,cdot_cos,P,T-P,255,51,50077,0.03078920712759656,-0.0040045453707486635,0.15224619319130608,0.9782500707718076,898.0,9.45464324623373,0.6438387380103504,10.281309637762964,-0.2987481913498803,0.52,0.999999999990792,-205.22453483029366,1.2666505514921262,255,2026-10-07 22:02:06.161243,25.0,0.46488668369044384,0.11934087523987827,0.18461618280177697
0114,cdot_cos,Q,P-Q,256,51,50185,-0.048661075055701594,-0.030226960614592513,-0.07945028218329815,0.12065341111232478,898.0,9.482757341426279,0.6439761524830026,10.303649087643116,-0.0880516579134362,0.108,0.9999999999905882,1533.292158896625,1.2716178290973503,256,2026-10-07 22:02:06.269243,25.0,0.0913667072726789,0.5669196387135277,0.260315696227309
0114,cdot_cos,R,Q-R,257,51,50217,0.07116283976080491,0.10673822253978163,0.1198239148165065,0.9523748566297721,898.0,9.577097888195851,0.6450599966070488,10.341129228763313,-0.29697284396472023,0.032,0.9999999999905534,-192.7594396796899,1.2765849305404533,257,2026-10-07 22:02:06.301243,25.0,0.4948489763439188,2.0600705339066105,2.9481420865491437
0114,cdot_cos,S,R-S,258,51,50245,0.02434201464675813,-0.13847463750678574,-0.04682082511404678,0.23676089123466168,898.0,9.614601855596302,0.6453292104751,10.365552786358402,-0.11883418942614983,0.028,0.9999999999903951,661.6993984304829,1.2815520237660425,258,2026-10-07 22:02:06.329243,25.0,0.2233417404535031,1.3764490196354855,1.3394274071589456
0114,cdot_cos,T,S-T,259,51,50516,-0.017033934430095397,0.0011741268503925332,-0.041375949076853526,0.26223220836125466,898.0,9.654179033295438,0.6456272796379005,10.390418546107204,-0.12585926640791545,0.271,0.9999999999902457,-23.56861379339461,1.2865196950799818,259,2026-10-07 22:02:06.600243,25.0,0.9457122582068646,0.22633855184267054,0.14604124612227568
0114,cdot_cos,P,T-P,260,52,50975,0.03968550088934295,-0.004274533694444577,0.05671943531943835,0.8050224722081974,920.0,9.73727735069503,0.646541610318327,10.425201595756489,-0.2656324539396948,0.459,0.9999999999901847,-152.86940548311284,1.291487820620818,260,2026-10-07 22:02:07.059244,25.0,0.5908517285295636,0.12374396464824042,0.18104208583788828
0114,cdot_cos,Q,P-Q,261,52,51082,-0.030685895907849203,-0.019078146370772375,-0.07037139679719215,0.1468799211508375,920.0,9.767775992842523,0.6467083186448828,10.44792508798348,-0.098042328066898,0.107,0.9999999999899812,1005.2894737489892,1.2964551013356431,261,2026-10-07 22:02:07.166244,25.0,0.18098067562514403,0.5829522864549455,0.28503403876162603
0114,cdot_cos,R,Q-R,262,52,51114,0.0792169483077906,0.11145613368848868,0.1099028442156398,0.9397760283188837,920.0,9.862029139996388,0.6477741160299462,10.48517267254711,-0.30450914544120106,0.032,0.9999999999899445,-193.72051411255828,1.3014222017764425,262,2026-10-07 22:02:07.198244,25.0,0.507615208907979,1.905007548074794,2.945410848558261
0114,cdot_cos,S,R-S,263,52,51146,-0.004392919216218649,-0.05936822319966129,-0.08360986752400924,0.11004841195858422,920.0,9.88969647591931,0.6478988256861956,10.507185889030632,-0.08992723352641704,0.032,0.9999999999897561,1720.6519396186707,1.3063893033904563,263,2026-10-07 22:02:07.230243,25.0,0.0919810477899634,0.9187455785592546,0.8646042475913274
0114,cdot_cos,T,S-T,264,52,51415,-0.07284111271561006,0.007594770157915859,-0.06844819349939141,0.1530075081059352,920.0,9.92082885702418,0.6480721841733388,10.529959267883276,-0.10146806995519211,0.269,0.9999999999895791,-66.57208781041014,1.3113569876560476,264,2026-10-07 22:02:07.499244,25.0,0.8924912207747306,0.2333168714858842,0.1157337587541629
0114,cdot_cos,P,T-P,265,53,51895,0.03392401457030366,0.002354908749641226,0.10676512728591372,0.9351802034186923,958.0,10.015220952778716,0.6491309000372559,10.567118687607755,-0.30916886889785566,0.48,0.9999999999895434,-196.18181423502088,1.3163251985818243,265,2026-10-07 22:02:07.979244,25.0,0.5107864262127744,0.13609988384321592,0.19665019948861645
0114,cdot_cos,Q,P-Q,266,53,52024,-0.017987409506085805,-0.016936423315612983,-0.05191142407638946,0.2145379324152521,958.0,10.051484745513667,0.6493735716507147,10.590996827258591,-0.11951778321237677,0.129,0.999999999989344,781.5132680018561,1.321292539227576,266,2026-10-07 22:02:08.108243,25.0,0.2045787613944376,0.4908904220611604,0.2811146723639643
0114,cdot_cos,R,Q-R,267,53,52059,0.06210738148410403,0.1166358281016684,0.08009479099018983,0.8810456646841822,958.0,10.141870681670495,0.6503693431966878,10.627157243989588,-0.29937980233180994,0.035,0.9999999999892931,-180.62578695565162,1.3262596456850984,267,2026-10-07 22:02:08.143244,25.0,0.5483825915490311,1.7765564767515227,2.582455318766514
0114,cdot_cos,S,R-S,268,53,52086,0.0026480081378279165,-0.06446654630475596,-0.059459373346276115,0.18444999617317465,958.0,10.175843698886274,0.6505776458947069,10.650449703598115,-0.11318862846372324,0.027,0.9999999999891112,893.849074633837,1.3312267330872236,268,2026-10-07 22:02:08.170244,25.0,0.1930195883890521,1.103743649884217,1.2582598968806893
0114,cdot_cos,T,S-T,269,53,52374,-0.09408882364130279,0.006909915455900003,-0.09673683177913071,0.081778761283637,958.0,10.201472838764243,0.6506699817370588,10.671815803447354,-0.08562920815018149,0.288,0.9999999999889121,298.46936586669756,1.3361944843907845,269,2026-10-07 22:02:08.458244,25.0,0.7248097839312114,0.21547063915359274,0.08899006902072608
0114,cdot_cos,P,T-P,270,54,52853,0.051595339421240824,0.002588598143609287,0.14568416306254361,0.9744716064458862,899.0,10.299954787038743,0.6517693797352345,10.709699032586405,-0.330556103753312,0.479,0.9999999999888806,-222.78273747046174,1.3411627293055548,270,2026-10-07 22:02:08.937243,25.0,0.4766589250788667,0.13935521720810481,0.20559905694050168
0114,cdot_cos,Q,P-Q,271,54,52965,-0.005075178804936299,-0.005340486818029972,-0.05667051822617712,0.1951695516499756,899.0,10.334975136849607,0.6519893761390091,10.733136218306328,-0.11827704186141388,0.112,0.9999999999886686,964.9205998358989,1.3461300326626833,271,2026-10-07 22:02:09.049243,25.0,0.16616710540814744,0.5603915604337643,0.3126816947398581
0114,cdot_cos,R,Q-R,272,54,53007,0.07176949759708436,0.13404602088300577,0.07684467640202065,0.8722629318959207,899.0,10.425482496575906,0.6529718033829337,10.769123544201342,-0.30713090721658765,0.042,0.9999999999886141,-192.23190981628153,1.3510971560369207,272,2026-10-07 22:02:09.091244,25.0,0.5406965984485854,1.4343218704933576,2.1549371363404544
0114,cdot_cos,S,R-S,273,54,53043,-0.003585103744346761,-0.0373250904154532,-0.07535460134143111,0.13194555825655196,899.0,10.45545817397105,0.6531203001322281,10.791355107256102,-0.10229047714338688,0.036,0.9999999999884124,1379.4270315446051,1.3560642649468053,273,2026-10-07 22:02:09.127244,25.0,0.13499241918159702,0.9734163584175843,0.8326577054206377
0114,cdot_cos,T,S-T,274,54,53313,-0.046438034557369626,0.00020448155222582196,-0.04285293081302286,0.2551515162078243,899.0,10.495568474381972,0.6534073731839086,10.81585328308553,-0.13728036777698066,0.27,0.9999999999882407,-121.88497119030741,1.361031989641711,274,2026-10-07 22:02:09.397243,25.0,0.7750102246371197,0.25019367195358844,0.14855666818860414
0114,cdot_cos,P,T-P,275,55,53752,0.05175629840606649,-0.0025035829729623434,0.09819433296343612,0.9209160055288247,939.0,10.590562756825987,0.6544425737406084,10.852739686566066,-0.32676055208774984,0.439,0.9999999999881976,-183.03717389297626,1.3660001670160433,275,2026-10-07 22:02:09.836244,25.0,0.5599685138925804,0.14680282442167802,0.2163878871162065
0114,cdot_cos,Q,P-Q,276,55,53866,-0.009551207167234382,-0.009228181972527089,-0.06130750557330088,0.17760079233963186,939.0,10.624461354224206,0.6546420466921987,10.875769008211671,-0.11728502469318805,0.114,0.9999999999879763,1050.145023295299,1.370967481636545,276,2026-10-07 22:02:09.950243,25.0,0.16762295448877426,0.5539582064190316,0.2973561175282338
0114,cdot_cos,R,Q-R,277,55,53905,0.07212524356382746,0.11863823956975351,0.08167645073106185,0.8851277423466725,939.0,10.716865227889526,0.6556353685068479,10.911985973983077,-0.32117071806824105,0.039,0.9999999999879239,-205.25643388498673,1.3759345966682919,277,2026-10-07 22:02:09.989243,25.0,0.5300307233445465,1.5620588975216183,2.3693300939825783
0114,cdot_cos,S,R-S,278,55,53941,-0.006793366845879373,-0.031219671370392055,-0.07891861040970684,0.12207074513466283,939.0,10.746301948230892,0.6557722541967274,10.933947259356888,-0.10287887468696358,0.036,0.9999999999877133,1594.7017074867288,1.3809017048194883,278,2026-10-07 22:02:10.025243,25.0,0.11981175142226083,0.8059923386990835,0.8176866761490469
0114,cdot_cos,T,S-T,279,55,54212,-0.0896511654549323,0.00645122843869849,-0.08285779860905293,0.11190335592503257,939.0,10.77489667627586,0.6558977158318918,10.955690559170897,-0.10018903435654825,0.271,0.9999999999875034,21.43954466151483,1.3858694513911567,279,2026-10-07 22:02:10.296243,25.0,0.9735095424417107,0.23465343680302425,0.10551560164194952
0114,cdot_cos,P,T-P,280,56,54691,0.0316207500227817,-0.0038440650786717707,0.12127191547771402,0.9539901519530904,937.0,10.873484110978131,0.6569664078774158,10.99319007310435,-0.3469526389462059,0.479,0.9999999999874675,-230.90244343371623,1.3908377711522066,280,2026-10-07 22:02:10.775244,25.0,0.4910391686530826,0.14004093708962378,0.20581927912791406
0114,cdot_cos,Q,P-Q,281,56,54784,-0.025307346503699604,-0.015255676698150516,-0.05692809652648131,0.19416003708992796,937.0,10.90905589400772,0.6571837182332203,11.016447290769753,-0.1259233484672594,0.093,0.9999999999872392,1017.113471931217,1.3958050332090524,281,2026-10-07 22:02:10.868243,25.0,0.17286081812484275,0.7166070484848308,0.3824922906407392
0114,cdot_cos,R,Q-R,282,56,54826,0.08403642950405787,0.1072488219089771,0.10934377600775748,0.9389801088493666,937.0,11.00677302199631,0.658233725019001,11.0536647811282,-0.3475211820792035,0.042,0.9999999999871981,-211.04419191651195,1.4007721557583097,282,2026-10-07 22:02:10.910244,25.0,0.5285315707190891,1.4830511343307022,2.3265982854426137
0114,cdot_cos,S,R-S,283,56,54861,-0.009449949991728017,-0.049825639298045794,-0.09348637949578589,0.0880918311010605,937.0,11.033632189291499,0.6583321536470119,11.0749019327608,-0.0960517831104457,0.035,0.9999999999869716,2554.8400302897426,1.4057392600235292,283,2026-10-07 22:02:10.945244,25.0,0.07294418607348452,0.7454181586105081,0.7674047798625492
0114,cdot_cos,T,S-T,284,56,55130,-0.11303599720938068,0.023434342328416482,-0.10358604721765266,0.06980742985016815,937.0,11.058952293099045,0.6584101426760955,11.095765892230155,-0.09075230942706125,0.269,0.9999999999867432,67.95152787069581,1.410707020033603,284,2026-10-07 22:02:11.214243,25.0,0.9432773564959596,0.23541560928419564,0.09412677995370389
0114,cdot_cos,P,T-P,285,57,55628,0.0359035787923855,-0.003078036327900767,0.1489395760017662,0.976419895780238,900.0,11.160285787086396,0.6595001018893311,11.133684748590518,-0.3647181251309983,0.498,0.9999999999867117,-251.35419048450177,1.4156754303011574,285,2026-10-07 22:02:11.712243,25.0,0.4718135581060592,0.13564480229643558,0.2034809116211866
0114,cdot_cos,Q,P-Q,286,57,55736,-0.02779172800117142,-0.018880419369777756,-0.06369530679355692,0.16904893600810275,900.0,11.194054516186295,0.6596886371746916,11.156390176915345,-0.1222463524045246,0.108,0.9999999999864679,1286.0816597952287,1.4206427385091018,286,2026-10-07 22:02:11.820243,25.0,0.13759119230225908,0.6096749181482491,0.3126734175916567
0114,cdot_cos,R,Q-R,287,57,55768,0.07647874922653403,0.11391530226292519,0.10427047722770544,0.9312955001534702,900.0,11.291975569406418,0.6607263759015852,11.193457857483974,-0.35604416805377814,0.032,0.9999999999864222,-225.29545211163975,1.4256098314127104,287,2026-10-07 22:02:11.852243,25.0,0.5185836322676287,2.0569648673679772,3.0600329131288406
0114,cdot_cos,S,R-S,288,57,55795,0.012170930784088605,-0.09511166627006817,-0.06430781844244542,0.16690881438407545,900.0,11.325700267697846,0.6609121989828852,11.216095155690788,-0.12330930858367972,0.027,0.999999999986205,1252.4539892564103,1.4305769111745352,288,2026-10-07 22:02:11.879244,25.0,0.15146403740559977,1.4029273189911857,1.249062899682506
0114,cdot_cos,T,S-T,289,57,56069,-0.028607785202399084,0.002980681523310697,-0.04077871598648769,0.26513106018691673,900.0,11.367733644631942,0.6612072730153394,11.240566842737064,-0.1541380628255471,0.274,0.9999999999860153,-104.47803212453535,1.4355447061942057,289,2026-10-07 22:02:12.153243,25.0,0.8187246888885598,0.23890928457209706,0.15340648516093564
0114,cdot_cos,P,T-P,290,58,56528,0.0316430376837637,-0.0040657660145083764,0.06025082288616278,0.8185078480324204,899.0,11.456622555643355,0.6621174292259434,11.275497436439931,-0.3274086958192362,0.459,0.9999999999859439,-190.37460929779053,1.4405130446269212,290,2026-10-07 22:02:12.612243,25.0,0.5890653347749945,0.13238268264132882,0.1936577581947992
0114,cdot_cos,Q,P-Q,291,58,56634,-0.03705305497619216,-0.022104366702303774,-0.06869609265995585,0.15220606436351358,899.0,11.489260947296682,0.6622865457540409,11.297807395739373,-0.12082914741310304,0.106,0.9999999999856894,1221.521933604621,1.4454803525526594,291,2026-10-07 22:02:12.718244,25.0,0.18092312243199693,0.6278991908201217,0.3079093552200665
0114,cdot_cos,R,Q-R,292,58,56665,0.0818982087881224,0.11820613157669413,0.11895126376431456,0.9513755130025594,899.0,11.58973718409722,0.6633426798344486,11.335250122097758,-0.3735506531626227,0.031,0.9999999999856493,-239.2892251445537,1.4504474412703394,292,2026-10-07 22:02:12.749243,25.0,0.5083735398573227,2.0757460481984507,3.241168929049637
0114,cdot_cos,S,R-S,293,58,56699,-0.006572175560923594,-0.018275824920160888,-0.088470384349046,0.09869943159315328,899.0,11.617957202284986,0.6634521541916636,11.356517041783539,-0.10548476761126907,0.034,0.9999999999854076,2448.663708752768,1.4554145401483825,293,2026-10-07 22:02:12.783243,25.0,0.0787658474250092,0.8515220629527769,0.8300005349342707
0114,cdot_cos,T,S-T,294,58,56968,-0.0878291169636484,0.0170611028246495,-0.0812569414027248,0.1159429296950317,899.0,11.64764068437801,0.6635807320941848,11.37808485286382,-0.11121098135422364,0.269,0.9999999999851741,-44.53497553369236,1.4603823394348938,294,2026-10-07 22:02:13.052243,25.0,0.9498134869984797,0.2474650165936331,0.11034751707443727
0114,cdot_cos,P,T-P,295,59,57427,0.06906360646798929,-0.0076260920600864255,0.15689272343163768,0.9805890873658468,940.0,11.75109338121236,0.6646672114330291,11.4160804365048,-0.38918635054241146,0.459,0.9999999999851422,-255.84965976791554,1.46535071336761,295,2026-10-07 22:02:13.511244,25.0,0.489560378369277,0.14624355601808683,0.2253871390726601
0114,cdot_cos,Q,P-Q,296,59,57537,-0.007879512356300147,-0.006581371624508761,-0.07694311882428943,0.12746310710589118,940.0,11.781892268802613,0.6648083111106586,11.437842230411121,-0.11650529310159151,0.11,0.9999999999848733,1932.542030016161,1.4703180385874481,296,2026-10-07 22:02:13.621243,25.0,0.09627914024354157,0.5852333915674716,0.27998988718411577
0114,cdot_cos,R,Q-R,297,59,57568,0.08563712857353073,0.11919799053638869,0.09351664092983088,0.9119689237444851,940.0,11.879844727357204,0.6658169864598988,11.474529939467143,-0.3720011801643536,0.031,0.9999999999848223,-253.29843467991608,1.475285125793419,297,2026-10-07 22:02:13.652243,25.0,0.5031762755844608,2.0268543419252096,3.159756727567452
0114,cdot_cos,S,R-S,298,59,57597,-0.006836022601277353,-0.019932094401341936,-0.09247315117480809,0.09014803325102512,940.0,11.907557238001976,0.6659166117916396,11.495550829770643,-0.10578927905259333,0.029,0.9999999999845701,2672.1306364569373,1.4802522081052676,298,2026-10-07 22:02:13.681243,25.0,0.08074691388330761,0.9455130326342107,0.9556038153369648
0114,cdot_cos,T,S-T,299,59,57867,-0.10270518479526049,0.033140707608231436,-0.09586916219398313,0.08342246272666631,940.0,11.934684483249988,0.6660087913043942,11.516416373955753,-0.103779565340869,0.27,0.9999999999843194,21.802173299354322,1.4852200294478062,299,2026-10-07 22:02:13.951244,25.0,0.9808210851508155,0.24103645080221348,0.10047127869634163
0114,cdot_cos,P,T-P,300,60,58367,0.03088308919820817,-0.0018631975510722445,0.13358827399346865,0.9657661515317826,878.0,12.037716921435171,0.6670750116430374,11.554126647967136,-0.39568505725052716,0.5,0.9999999999842842,-273.77595542878953,1.4901885649455973,300,2026-10-07 22:02:14.451244,25.0,0.4782021164577956,0.1367008274780268,0.20606487637036608
0114,cdot_cos,Q,P-Q,301,60,58478,-0.03604566055111757,-0.027036868488897487,-0.06692874974932574,0.15799550842154786,878.0,12.071385310728015,0.6672492787328328,11.576392398595637,-0.13000326980338228,0.111,0.9999999999840112,1524.5666164453232,1.4951558980746655,301,2026-10-07 22:02:14.562243,25.0,0.12955436815920285,0.6002863954893959,0.303318822458052
0114,cdot_cos,R,Q-R,302,60,58517,0.06256763561097381,0.1150335939865683,0.09861329616209139,0.9216754745807595,878.0,12.170980501233817,0.6682649625243328,11.613257169756974,-0.3860969938229155,0.039,0.9999999999839598,-252.13922498589147,1.5001230083467172,302,2026-10-07 22:02:14.601243,25.0,0.5151544229567477,1.882644652581529,2.5537228334821056
0114,cdot_cos,S,R-S,303,60,58552,0.031239604746021835,-0.12137235992398365,-0.03132803086495198,0.3136304568241624,878.0,12.218231593629374,0.6686102261965615,11.638478432820579,-0.1841896349923537,0.035,0.999999999983757,584.7917839928044,1.5050901075086078,303,2026-10-07 22:02:14.636243,25.0,0.33414079308599565,1.2086928540004291,1.3500312113016324
0114,cdot_cos,T,S-T,304,60,58825,-0.02452722853444577,-0.0019449636089339318,-0.05576683328046761,0.19874274198405273,878.0,12.255589001013847,0.6688289205712139,11.661481025705958,-0.14607961320809765,0.273,0.9999999999835275,174.26155494320398,1.510057960179384,304,2026-10-07 22:02:14.909244,25.0,0.7703692860892954,0.23939404634943956,0.13684032008964434
0114,cdot_cos,P,T-P,305,61,59245,0.04297947840960663,0.002302935904151492,0.06750670694405239,0.8439171899569924,919.0,12.348940742936168,0.6697567452835722,11.696849800158915,-0.3664642040242439,0.42,0.999999999983456,-237.52826140616816,1.515026285185666,305,2026-10-07 22:02:15.329243,25.0,0.5480542782324356,0.15045128925809378,0.22226605219600262
0114,cdot_cos,Q,P-Q,306,61,59384,-0.02727567917373513,-0.027596540663631704,-0.07025515758334176,0.1472444323243835,919.0,12.381968083990646,0.6699184946289951,11.71883998856632,-0.130286858861978,0.139,0.9999999999831776,1460.1440552650713,1.5199937145454823,306,2026-10-07 22:02:15.468243,25.0,0.16320490439708835,0.46398446555383005,0.23760677017609846
0114,cdot_cos,R,Q-R,307,61,59418,0.048869223788275795,0.120427059060193,0.07614490296201093,0.8703009804066487,919.0,12.477928424360133,0.6708737062558323,11.754709692677304,-0.379959572570852,0.034,0.9999999999831095,-261.379475180347,1.5249608080251833,307,2026-10-07 22:02:15.502244,25.0,0.5183506345594655,2.080650018074494,2.8223629520437377
0114,cdot_cos,S,R-S,308,61,59453,0.012915820140320508,-0.07785567710168875,-0.03595340364795529,0.28928994530577357,919.0,12.523452285219712,0.6711909087017945,11.779405407219054,-0.18119090037729288,0.035,0.9999999999828939,626.6303262277751,1.5299279061490931,308,2026-10-07 22:02:15.537244,25.0,0.33386704217966734,1.0457589422491356,1.3006817388450995
0114,cdot_cos,T,S-T,309,61,59723,-0.08246634188865745,-0.004039534349079626,-0.09538216202897797,0.08435813598033293,919.0,12.551131550317573,0.6712833768655702,11.800137708640445,-0.11047394235377347,0.27,0.999999999982625,764.7708696273179,1.5348957695011376,309,2026-10-07 22:02:15.807244,25.0,0.5272273485629859,0.24485747413253114,0.10251579665874445
0114,cdot_cos,P,T-P,310,62,60164,0.048255655194835115,-0.005018439254647666,0.13072199708349258,0.9633163223045368,959.0,12.655675321251278,0.6723383621273773,11.837791984877157,-0.4187669129810747,0.441,0.9999999999825858,-292.2249075775807,1.5398641974841647,310,2026-10-07 22:02:16.248243,25.0,0.47893409240378515,0.15633323648352468,0.23706070506509255
0114,cdot_cos,Q,P-Q,311,62,60274,-0.021847653825775398,-0.014603174724490442,-0.07010330902061052,0.14772173688785464,959.0,12.689017464896041,0.6724999874836995,11.859721491360684,-0.13425419637523944,0.11,0.9999999999822976,1760.3222853137897,1.5448315397403634,311,2026-10-07 22:02:16.358243,25.0,0.12012659734690607,0.6121048135676962,0.30311039677057233
0114,cdot_cos,R,Q-R,312,62,60312,0.07721438849571544,0.11344812646375839,0.09906204232149084,0.9224815253196318,959.0,12.790338380236172,0.6735083667754599,11.896584922980812,-0.4094920077107757,0.038,0.9999999999822442,-272.9506779686538,1.5497986454747565,312,2026-10-07 22:02:16.396243,25.0,0.5106123813778852,1.7261371447243485,2.666339877371848
0114,cdot_cos,S,R-S,313,62,60349,-0.0077425112263777894,-0.03126092167150782,-0.08495689972209322,0.10679333219641267,959.0,12.820203887895092,0.6736250009294735,11.917698128956689,-0.12130190613664296,0.037,0.9999999999819699,2470.8894578206564,1.5547657491995768,313,2026-10-07 22:02:16.433243,25.0,0.09293931592618701,0.6957333635360948,0.8071758826735207
0114,cdot_cos,T,S-T,314,62,60622,-0.1805262564062348,-0.01895193699505466,-0.172783745179857,0.013130583113832011,959.0,12.841822649137843,0.6736393399904097,11.936974848671397,-0.08798151336884599,0.273,0.9999999999816722,2323.749994236764,1.559733641836373,314,2026-10-07 22:02:16.706244,25.0,0.6847370474687778,0.23795933751342993,0.07918960162179761
0114,cdot_cos,P,T-P,315,63,61123,0.04841337743748097,-0.004978996785339218,0.22893963384371577,0.9967423649731726,939.0,12.950129686177425,0.6747268684123883,11.975270091965921,-0.4422418675104339,0.501,0.9999999999816419,-325.7481340092916,1.564702305650256,315,2026-10-07 22:02:17.207244,25.0,0.448854872655542,0.14434731121974256,0.2161817106578483
0114,cdot_cos,Q,P-Q,316,63,61234,-0.01258392325869704,-0.010836712948965361,-0.06099730069617801,0.1787363291909372,939.0,12.986458654980025,0.6749216860046802,11.997728168514085,-0.14912513990112397,0.111,0.9999999999813477,1504.5701169026456,1.5696696559863643,316,2026-10-07 22:02:17.318244,25.0,0.14007524429824245,0.6149138244954001,0.3272880072306312
0114,cdot_cos,R,Q-R,317,63,61272,0.07558334114364036,0.11660021921619917,0.08816726440233741,0.9006243928579833,939.0,13.086640555215403,0.6759024199054293,12.034158523945354,-0.4127474940208144,0.038,0.9999999999812852,-268.8011028458557,1.574636760049438,317,2026-10-07 22:02:17.356243,25.0,0.5279776723829052,1.7600142027378,2.6363657956678623
0114,cdot_cos,S,R-S,318,63,61307,0.005010067806762343,-0.07482350579766019,-0.07057327333687802,0.14624863794112555,939.0,13.120219734388098,0.6760615317988117,12.05596221427319,-0.13902006377220988,0.035,0.9999999999810111,1720.3455029651193,1.5796038551931237,318,2026-10-07 22:02:17.391244,25.0,0.13959947092496194,1.124590450104788,0.9594051192198296
0114,cdot_cos,T,S-T,319,63,61582,-0.03346701312661748,0.0066909493468402135,-0.03847708093337982,0.2764925386361404,939.0,13.165361886722739,0.6763622319403203,12.080273846375672,-0.1873620821708944,0.275,0.9999999999807797,-160.76486747279392,1.584571775941921,319,2026-10-07 22:02:17.666244,25.0,0.7725845060322727,0.2545100951528053,0.16415328121687686
0114,cdot_cos,P,T-P,320,64,62062,0.03146262224890616,0.0013712907414099307,0.06492963537552364,0.835241602545401,898.0,13.26020028672214,0.6772697158335254,12.115427950618633,-0.3951414191931686,0.48,0.9999999999806983,-228.96201087210375,1.5895404107399314,320,2026-10-07 22:02:18.146244,25.0,0.5910613991343588,0.13218312654370198,0.19757999999875375
0114,cdot_cos,Q,P-Q,321,64,62191,-0.045465572371665,-0.039142373860142354,-0.07692819462057116,0.12750460822818174,898.0,13.292257688204693,0.677408131428015,12.13682506330676,-0.13417776854774177,0.129,0.9999999999803789,1885.3630734857622,1.5945078291544657,321,2026-10-07 22:02:18.275244,25.0,0.14300012812974366,0.5226041734930603,0.24850698823683795
0114,cdot_cos,R,Q-R,322,64,62224,0.05273809120967973,0.11546235394576349,0.09820366358134473,0.9209329925172548,898.0,13.39503216348335,0.678406947055127,12.173638380489876,-0.43164757024244016,0.033,0.9999999999803182,-297.82253463014524,1.5994749141860545,322,2026-10-07 22:02:18.308243,25.0,0.5020027310854459,2.7250909968603643,3.1143780387471955
0114,cdot_cos,S,R-S,323,64,62252,0.07413793757333004,-0.15440671510011592,0.021399846363650304,0.6306476309840543,898.0,13.472113693997477,0.6790899888053618,12.204802523517888,-0.32555564561236106,0.028,0.9999999999801816,155.3227523700043,1.6044419832778354,323,2026-10-07 22:02:18.336244,25.0,0.7218921400056413,1.9554734116377568,2.7529118040759495
0114,cdot_cos,T,S-T,324,64,62521,-0.0020442429357136463,-0.00012719363288062063,-0.07618218050904368,0.12959386127756317,898.0,13.504538674535064,0.6792302545042104,12.226205494827255,-0.13747441484782574,0.269,0.9999999999798979,1340.8925511255734,1.6094099080439193,324,2026-10-07 22:02:18.605243,25.0,0.2545856219767399,0.22878063240527052,0.12053896110627434
0114,cdot_cos,P,T-P,325,65,62960,0.04854225288127317,-0.004082483091050276,0.050586495816986814,0.7798276689610664,920.0,13.595197674231512,0.6800736157671693,12.260263244635754,-0.3855889827626835,0.439,0.999999999979796,-294.1972542636732,1.6143784427481243,325,2026-10-07 22:02:19.044243,25.0,0.5254664009958725,0.14716486647858598,0.2065125277823411
0114,cdot_cos,Q,P-Q,326,65,63071,-0.007727650551263504,-0.007308072276063774,-0.05626990343253667,0.19674755433301339,920.0,13.633749427303263,0.6802862070270453,12.282950638331721,-0.16469158278866194,0.111,0.999999999979492,1039.0709387714955,1.619345805948325,326,2026-10-07 22:02:19.155244,25.0,0.26151092090989103,0.6272110267358647,0.34731309073649314
0114,cdot_cos,R,Q-R,327,65,63108,0.07523393228245076,0.121944484832408,0.08296158283371427,0.8883542390306592,920.0,13.734438522166874,0.6812451652602503,12.319116213515109,-0.43164947281793503,0.037,0.9999999999794214,-278.38322961895847,1.6243129046610505,327,2026-10-07 22:02:19.192243,25.0,0.538773563834396,1.7849564668019542,2.721326888205709
0114,cdot_cos,S,R-S,328,65,63145,-0.006096016054651081,-0.03373331322855871,-0.08132994833710185,0.11575598021935417,920.0,13.765836205846607,0.6813700084674919,12.340199349150136,-0.13522220221727718,0.037,0.9999999999791196,2374.3964701820546,1.6292800047110008,328,2026-10-07 22:02:19.229243,25.0,0.11167645215167649,0.7207266675656998,0.8485860453981998
0114,cdot_cos,T,S-T,329,65,63418,-0.1870095723702401,-0.08669668609075382,-0.18091355631558903,0.01074152147088212,920.0,13.787772295566736,0.6813815919140237,12.359206369901145,-0.09465496251106657,0.273,0.9999999999787885,3502.1735193123077,1.6342479620055794,329,2026-10-07 22:02:19.502244,25.0,0.6514333645491385,0.24350154604198274,0.0803519769968073
0114,cdot_cos,P,T-P,330,66,63880,0.06653121492935818,-0.003354715398740546,0.2535407872995983,0.9982362005868489,916.0,13.89878804998553,0.682457090416153,12.39751328919906,-0.48047834738588424,0.462,0.9999999999787534,-358.7391187537294,1.6392166143327909,330,2026-10-07 22:02:19.964243,25.0,0.4479836760206138,0.15492704800058738,0.24029384073332075
0114,cdot_cos,Q,P-Q,331,66,63990,-0.012160977534344253,-0.011272481927157232,-0.07869219246370243,0.12267867134596341,916.0,13.930924887919279,0.6825891302812025,12.41868708313488,-0.13977730217397283,0.11,0.9999999999784144,2580.289256461864,1.6441839789390338,331,2026-10-07 22:02:20.074244,25.0,0.08738285760119414,0.6080291274903615,0.2921530721249868
0114,cdot_cos,R,Q-R,332,66,64033,0.0716976756004732,0.12345889783353141,0.08385865313481745,0.8905592499143224,916.0,14.03255445803341,0.6835467634407227,12.454881324221072,-0.4434365387144422,0.043,0.9999999999783423,-317.09348566479986,1.6491510983123132,332,2026-10-07 22:02:20.117243,25.0,0.5041979993817581,1.5625500827512837,2.3634783747472325
0114,cdot_cos,S,R-S,333,66,64067,-0.004933307595711799,-0.032145821394749474,-0.076630983196185,0.12833349691272683,916.0,14.065304195035889,0.6836846346265784,12.476140443606294,-0.1435491860962662,0.034,0.9999999999780335,2175.127099669834,1.654118185652849,333,2026-10-07 22:02:20.151244,25.0,0.12379958414012103,0.8284683733198788,0.9632275588964531
0114,cdot_cos,T,S-T,334,66,64339,-0.14777937044107056,-0.05955340007774957,-0.14284606284535875,0.027354155675136264,916.0,14.088890307419161,0.6837140175577401,12.4953962728014,-0.10358530723474912,0.272,0.9999999999776953,1360.1052475518306,1.6590861586907921,334,2026-10-07 22:02:20.423244,25.0,0.6799021132163877,0.24771800776174682,0.08671364846791305
0114,cdot_cos,P,T-P,335,67,64796,0.0401560691628017,0.002138643722789308,0.18793543960387227,0.9909722734849745,842.0,14.20006279125828,0.6847774968494844,12.533553632447573,-0.48969221099208954,0.457,0.9999999999776575,-363.06010540557315,1.6640548287130357,335,2026-10-07 22:02:20.880243,25.0,0.4545403718936868,0.1560920462317728,0.24326582896962348
0114,cdot_cos,Q,P-Q,336,67,64927,-0.04217012124420083,-0.04152792700033086,-0.08232619040700254,0.11323097790364263,842.0,14.231558437675002,0.6848988897652529,12.554473311374862,-0.1394030152755449,0.131,0.9999999999773049,2885.581860349371,1.6690222773296988,336,2026-10-07 22:02:21.011244,25.0,0.08104257670824845,0.5137421372040206,0.24042478180704138
0114,cdot_cos,R,Q-R,337,67,64959,0.04511292051427698,0.12367847327413994,0.08728304175847781,0.8986283468129419,842.0,14.334663231205733,0.6858613970849524,12.590811188137858,-0.45775343298357923,0.032,0.9999999999772313,-330.75116541184144,1.6739893538897372,337,2026-10-07 22:02:21.043243,25.0,0.4988436022432901,2.9531564562308987,3.2220247978353433
0114,cdot_cos,S,R-S,338,67,64991,0.08052117332009287,-0.14276597232366509,0.03540825280581589,0.7078999356423215,842.0,14.42056045087378,0.6866184947293118,12.623396985073462,-0.3833779348400615,0.032,0.9999999999771066,98.23765626222546,1.6789564322368702,338,2026-10-07 22:02:21.075244,25.0,0.8236575201638682,1.8264923072365824,2.684288114626454
0114,cdot_cos,T,S-T,339,67,65258,-0.004825024333026081,-0.00151546903390875,-0.08534619765311895,0.10586851484425334,842.0,14.451558738868874,0.6867316356183999,12.644139918167763,-0.13888764614839727,0.267,0.9999999999767867,2160.9366044604963,1.6839244125924038,339,2026-10-07 22:02:21.342243,25.0,0.1719853758894644,0.23718142810432555,0.11609845691046719
