record_id,input,event,transition,event_index,k,peak,value_cos,value_sin,value_return,x_input,rr,knowledge,decision,decision_norm,entropy,delta_t,cosine_similarity,delta_h_over_delta_d,frobenius_norm,matrix_size,timestamp,scale,P,zdot,zdot_back
0314,cdot_cos,Q,P-Q,1,0,915,-0.01570287833139034,-0.008488321474106901,-0.1065214224421544,0.06519010092279112,804.0,0.00032380845764580973,0.5000809521137042,0.5000809521137042,,,1.0,,0.004967141530112327,1,2026-10-07 21:46:16.999244,25.0,,,
0314,cdot_cos,R,Q-R,2,0,942,0.13166627621452498,0.1295175656632028,0.14736915454591532,0.9754988485108014,804.0,0.007310422468281807,0.5012923094475015,0.708934382733987,-9.618640516729755e-06,,1.0,,0.009934283060224654,2,2026-10-07 21:46:17.026243,25.0,,,
0314,cdot_cos,S,R-S,3,0,998,-0.001577085718333498,-0.003913916287717486,-0.1332433619328585,0.03452008240321251,804.0,0.00925039048320656,0.5013351756852704,0.8683379959083576,-5.7937223208930274e-06,0.056,1.0000000000000002,0.08922915550586656,0.014901424597367145,3,2026-10-07 21:46:17.082243,25.0,0.516756651173102,0.0303505063354171,0.034642285980799166
0314,cdot_cos,T,S-T,4,0,1246,-0.23597172342076078,0.03024101637702928,-0.23439463770242727,0.0028435172910637463,804.0,0.010709679177848522,0.5013387066982318,1.0026774133967176,-5.2527255422440635e-06,0.248,0.9999999999999999,0.15321291215009267,0.01986856616201087,4,2026-10-07 21:46:17.330244,25.0,0.9021328046059744,0.027876800748876666,0.005884228607427265
0314,cdot_cos,P,T-P,5,1,1649,0.08805855567415401,0.0023462357414338847,0.3240302790949148,0.9996967825159654,837.0,0.023077283654649387,0.5025800958476588,1.123803258455512,-7.53542461476707e-05,0.403,1.0,-0.05647022179771789,0.02483570780912547,5,2026-10-07 21:46:17.733243,25.0,0.39443816026498946,0.019107910474642945,0.030688844855585273
0314,cdot_cos,Q,P-Q,6,1,1733,-0.016478207712283272,-0.01055572193412027,-0.10453676338643728,0.06827976828993368,837.0,0.026110655020410736,0.5026648823331173,1.2312724733370997,-2.690645120519448e-05,0.084,0.9999999999999998,0.5714094018696405,0.029802849367027956,6,2026-10-07 21:46:17.817244,25.0,0.16519949978441126,0.10606305454117662,0.036111563878111284
0314,cdot_cos,R,Q-R,7,1,1760,0.11722252218511106,0.1337635496135509,0.13370072989739434,0.9658589800399977,837.0,0.04089587681756706,0.5038642201919511,1.333099421178339,-0.00017865023640884604,0.027,0.9999999999999999,-0.126522967724215,0.034769990897625856,7,2026-10-07 21:46:17.844243,25.0,0.4276755888029498,0.3388553964060176,0.5476008073020862
0314,cdot_cos,S,R-S,8,1,1816,-0.0013500038279782697,-0.004186148976429231,-0.11857252601308933,0.049064375310306524,837.0,0.044408846426335684,0.5039251439192166,1.425315545910528,-5.403874543113136e-05,0.056,1.0,2.0453688008062336,0.03973713248894671,8,2026-10-07 21:46:17.900243,25.0,0.09966251461353963,0.05551683258830596,0.06273160015658256
0314,cdot_cos,T,S-T,9,1,2048,-0.2895287174623272,-0.020061642491844823,-0.28817871363434894,0.0007427056006380548,837.0,0.04711376206745733,0.5039260661433242,1.511778198442447,-4.4641614104725305e-05,0.232,1.0000000000000004,10.189639642470345,0.044704274353090746,9,2026-10-07 21:46:18.132244,25.0,0.8101777564944589,0.04517060906142756,0.011659119142765706
0314,cdot_cos,P,T-P,10,2,2486,0.0748444156577626,-0.0030125114314838706,0.36437313312008984,0.99988938324084,838.0,0.06536800903083807,0.505167610847359,1.5974802504584853,-0.0003702407588057384,0.438,1.0000000000000002,-0.2622532588982895,0.04967141673959826,10,2026-10-07 21:46:18.570244,25.0,0.41502129504574986,0.026147620647332753,0.041676362930093025
0314,cdot_cos,Q,P-Q,11,2,2558,-0.01836186690479877,-0.0096409892571715,-0.09320628256256137,0.08865597227244101,838.0,0.07001907775452082,0.5052776905258768,1.675816514492807,-0.0001135445155974958,0.072,1.0000000000000002,2.3319130893595905,0.054638558343148694,11,2026-10-07 21:46:18.642244,25.0,0.10427181082487358,0.1696987972637013,0.06459817671781594
0314,cdot_cos,R,Q-R,12,2,2586,0.11923788617254245,0.11592789181179047,0.13759975307734124,0.9689313300105336,838.0,0.08980463583681106,0.5064807283517808,1.7545007092116287,-0.0005701657254497376,0.028,0.9999999999999998,-0.37955681859721335,0.059605699847984285,12,2026-10-07 21:46:18.670244,25.0,0.44894405614790667,0.43296041527796514,0.7066270743675085
0314,cdot_cos,S,R-S,13,2,2637,-0.0036283372044390526,-0.05457361728490638,-0.12286622337698151,0.04429169390291572,838.0,0.09426486101008687,0.5065357198111138,1.8263405107289283,-0.00014802973124228947,0.051,0.9999999999999999,7.676391922088845,0.0645728414925194,13,2026-10-07 21:46:18.721244,25.0,0.05774622135213434,0.08072006728076438,0.08745539555442762
0314,cdot_cos,T,S-T,14,2,2885,-0.18157768037060723,0.04038067568152386,-0.17794934316616817,0.011558211914260628,838.0,0.09803808269944903,0.5065500701719696,1.8953368119413292,-0.0001308302795053032,0.248,1.0000000000000002,1.1985379259633737,0.0695399840393917,14,2026-10-07 21:46:18.969243,25.0,0.8768109746549436,0.0532624173244017,0.015214603586137734
0314,cdot_cos,P,T-P,15,3,3324,0.07224518305267968,-0.004592286770066857,0.2538228634232869,0.9982485732681408,841.0,0.12068302000299011,0.5077894251330767,1.966659987126564,-0.0008929783815422374,0.439,1.0000000000000002,-0.6149554614733989,0.07450712779840153,15,2026-10-07 21:46:19.408243,25.0,0.4259258618143602,0.03269547199304716,0.05158300069143755
0314,cdot_cos,Q,P-Q,16,3,3393,-0.013093279460808713,-0.006853575699839827,-0.0853384625134884,0.10588682151941954,841.0,0.12674470710934443,0.5079208813862653,2.031683525930258,-0.0002704066874014076,0.069,1.0000000000000002,4.735961044373543,0.07947426948450922,16,2026-10-07 21:46:19.477243,25.0,0.10002319491023776,0.21648886941369883,0.08785053777325107
0314,cdot_cos,R,Q-R,17,3,3421,0.1292561905056675,0.11842986395832195,0.1423494699664762,0.972313591409552,841.0,0.15055848398208055,0.509127934657391,2.099188251962203,-0.001190482278747214,0.028,1.0,-0.7622493665816001,0.08444141093973115,17,2026-10-07 21:46:19.505243,25.0,0.4616909531955824,0.5165289879409138,0.850492031169147
0314,cdot_cos,S,R-S,18,3,3474,-0.002892982793529424,-0.007867271015386569,-0.13214917329919693,0.03544347259548542,841.0,0.1556703304340356,0.5091719331041749,2.16023356055414,-0.0002822033997727742,0.053,1.0,20.643430515561185,0.08940855267859663,18,2026-10-07 21:46:19.558244,25.0,0.04001400969013026,0.08869020728047844,0.09644993305575585
0314,cdot_cos,T,S-T,19,3,3721,-0.27573764542725887,0.033280941209157616,-0.2728446626337295,0.0010893147237040384,841.0,0.15995964595381126,0.5091732853440302,2.2194348960323866,-0.00024406448178073778,0.247,1.0000000000000002,28.204255215675687,0.09437569620526023,19,2026-10-07 21:46:19.805243,25.0,0.8553318602867782,0.062054637857567804,0.01736564987763423
0314,cdot_cos,P,T-P,20,4,4165,0.07396689874953348,-0.0010244834206668742,0.34970454417679236,0.9998403893630792,857.0,0.1863253215356741,0.5104143955171841,2.2826425708452827,-0.0016457681004876236,0.444,1.0,-1.1293949957277327,0.09934284202355284,20,2026-10-07 21:46:20.249243,25.0,0.4266881848279482,0.03775408511013974,0.05938215221140279
0314,cdot_cos,Q,P-Q,21,4,4241,-0.008688758971887521,-0.005220183217892379,-0.082655657721421,0.11240656583993525,857.0,0.19348527353161535,0.510553918975345,2.3396519812077705,-0.0004901942345929089,0.076,1.0,8.282290885900911,0.1043099839268488,21,2026-10-07 21:46:20.325243,25.0,0.09466797079840025,0.22442686261202255,0.09420989468343742
0314,cdot_cos,R,Q-R,22,4,4267,0.11996563596262376,0.11775946074266821,0.12865439493451128,0.961445307872943,857.0,0.22043820465270153,0.5117472333566918,2.4003072896083366,-0.0020108090064393683,0.026,0.9999999999999998,-1.2742784262184164,0.1092771252758213,22,2026-10-07 21:46:20.351244,25.0,0.4694373681572398,0.6346800503527238,1.0366511969648533
0314,cdot_cos,S,R-S,23,4,4313,-0.0013017487551580857,-0.05251263178155885,-0.12126738471778184,0.046014820012142695,857.0,0.22648863614995698,0.5118043421929787,2.454527399298827,-0.00048737719889384,0.046,1.0000000000000002,26.675938551674484,0.11424426700487299,23,2026-10-07 21:46:20.397243,25.0,0.043902864733216404,0.12535382335973652,0.13153111950555335
0314,cdot_cos,T,S-T,24,4,4583,-0.14767653805872677,0.04067594754939691,-0.14637478930356868,0.025102381600664646,857.0,0.2319707564017973,0.5118354965434131,2.507471598855401,-0.00045299204347755965,0.27,1.0000000000000002,1.1037031726481505,0.11921141221319305,24,2026-10-07 21:46:20.667244,25.0,0.9269026328854719,0.06479880268875016,0.02030414908089002
0314,cdot_cos,P,T-P,25,5,5022,0.06897137865436474,-0.0036527536667811744,0.21664791671309153,0.9955756507940099,856.0,0.26147998960188207,0.5130710202888945,2.5653551032624615,-0.0026241544047136815,0.439,1.0,-1.7572809662109248,0.12417856065028944,25,2026-10-07 21:46:21.106244,25.0,0.437194984396583,0.042970437297857975,0.06721921002297215
0314,cdot_cos,Q,P-Q,26,5,5093,-0.010708230088464664,-0.006070277176627765,-0.07967960874282941,0.12004646607764347,856.0,0.2696988003493166,0.5132199891934975,2.6169187423688576,-0.000786738761747558,0.071,0.9999999999999996,12.334222688032991,0.1291457026808128,26,2026-10-07 21:46:21.177243,25.0,0.0967636557041676,0.26950755088112927,0.11575789785119049
0314,cdot_cos,R,Q-R,27,5,5120,0.12228564665985162,0.11191384172819169,0.13299387674831628,0.9652714391663647,856.0,0.2997500618270024,0.5144177329930313,2.672992952417053,-0.003083477115715375,0.027,1.0,-1.9175539500700272,0.13411284393525943,27,2026-10-07 21:46:21.204243,25.0,0.4748039102511541,0.6772025174506165,1.1130096843587345
0314,cdot_cos,S,R-S,28,5,5172,-0.006210689954624554,-0.04599949162924352,-0.12849633661447618,0.03870143304632189,856.0,0.3062677362916499,0.514465751773445,2.7222968773767033,-0.0007117032117428245,0.052,0.9999999999999998,49.39263104014714,0.13907998586530196,28,2026-10-07 21:46:21.256243,25.0,0.035702582718141467,0.12103590930427514,0.1253398935509127
0314,cdot_cos,T,S-T,29,5,5423,-0.15398264437342987,0.04758277941689582,-0.1477719544188053,0.024261619026049216,856.0,0.31233779639464704,0.5144958542269287,2.770644970600061,-0.0006765909070433422,0.251,0.9999999999999998,1.1664266741090892,0.14404713247095807,29,2026-10-07 21:46:21.507244,25.0,0.949427682182017,0.07679296671325167,0.024183506386442847
0314,cdot_cos,P,T-P,30,6,5878,0.08699944372595543,-0.006328005915347782,0.24098208809938532,0.9975872012945365,856.0,0.3448178055817022,0.5157335107729081,2.8247887789491912,-0.0038453747465357134,0.455,0.9999999999999999,-2.560309521883386,0.1490142846561532,30,2026-10-07 21:46:21.962244,25.0,0.4386511964470628,0.04457243203418021,0.07138463557594545
0314,cdot_cos,Q,P-Q,31,6,5945,-0.007491358968535689,-0.003974588185137557,-0.09449080269449112,0.0860954108990698,856.0,0.35289870954575103,0.5158403162139613,2.8720773349613404,-0.0010157513225210906,0.067,0.9999999999999993,26.493251618184875,0.15398142680335575,31,2026-10-07 21:46:22.029243,25.0,0.06168316316304496,0.30706408932301904,0.12061050692610169
0314,cdot_cos,R,Q-R,32,6,5973,0.14041687349594784,0.1250380680391198,0.14790823246448354,0.9758189031144617,856.0,0.3859643935509868,0.5170507623621087,2.9248808079072144,-0.004400689241033709,0.028,0.9999999999999998,-2.7964382584829677,0.1589485679500308,32,2026-10-07 21:46:22.057244,25.0,0.4633912343562996,0.7120406363338458,1.1809172859012764
0314,cdot_cos,S,R-S,33,6,6031,-0.00018379500576345674,-0.00037395500232489574,-0.1406006685017113,0.02888796661993091,856.0,0.3927729851804464,0.5170865932122501,2.9704363340730087,-0.0009550484214373141,0.058,0.9999999999999998,96.16408223617077,0.163915710192658,33,2026-10-07 21:46:22.115244,25.0,0.027110940319098317,0.10967400183922486,0.11738951085275216
0314,cdot_cos,T,S-T,34,6,6263,-0.33386501229175364,0.04568704473567694,-0.3336812172859902,0.0002382312560951956,856.0,0.39868657776433686,0.517086888698861,3.0151087793559257,-0.0008430575023130181,0.232,0.9999999999999997,379.0050547589107,0.1688828581538464,34,2026-10-07 21:46:22.347244,25.0,0.8756060496231332,0.08861909638921966,0.02548962320642439
0314,cdot_cos,P,T-P,35,7,6734,0.08225535990248561,-0.005035532625616169,0.41612037219423925,0.9999696598805023,847.0,0.4338922459050443,0.5183270784289137,3.066464356766239,-0.005278841527847038,0.471,0.9999999999999994,-3.5766979181044922,0.1738500149332215,35,2026-10-07 21:46:22.818244,25.0,0.4315831971003047,0.04682341866668434,0.07474664148770163
0314,cdot_cos,Q,P-Q,36,7,6804,-0.009237577123425834,-0.004844329630868483,-0.09149293702591145,0.0921782851957906,847.0,0.4427942381483535,0.518441389327132,3.1106483454373306,-0.0014054806940482826,0.07,0.9999999999999993,33.884440540397534,0.17881715741771148,36,2026-10-07 21:46:22.888243,25.0,0.06355195153758463,0.31755930604245264,0.12717131776155965
0314,cdot_cos,R,Q-R,37,7,6829,0.1367609804217212,0.12261333165300961,0.145998557545147,0.974666406368105,847.0,0.4783505487509877,0.5196499591064628,3.160907309902097,-0.005897363025738309,0.025,0.9999999999999997,-3.716692580363198,0.1837842982825712,37,2026-10-07 21:46:22.913243,25.0,0.4668830804470113,0.8571104043129851,1.422252424105368
0314,cdot_cos,S,R-S,38,7,6872,-0.004139968326548001,-0.010376076951669836,-0.1409009487482692,0.028678112347553634,847.0,0.48564975836400276,0.5196855160653441,3.203556682189239,-0.001266962752093623,0.043,0.9999999999999993,130.2248679115002,0.18875144006271802,38,2026-10-07 21:46:22.956243,25.0,0.025868613854202492,0.16112541551708942,0.16974906076779203
0314,cdot_cos,T,S-T,39,7,7120,-0.20388228115048346,0.06368591986129536,-0.19974231282393545,0.006735815289036968,847.0,0.4922073344854574,0.519693867531277,3.2454871725177155,-0.001154593206883688,0.248,0.9999999999999996,13.455068381106845,0.19371859083856785,39,2026-10-07 21:46:23.204243,25.0,0.9072620716685248,0.08913724420207389,0.026441839199413845
0314,cdot_cos,P,T-P,40,8,7581,0.0730747028838701,0.00030957957770264265,0.27695698403435354,0.9990170065270685,859.0,0.5298618314882314,0.52093238406584,3.2946656929064866,-0.006928190985798241,0.461,0.9999999999999991,-4.661704238734162,0.19868575202371527,40,2026-10-07 21:46:23.665244,25.0,0.43459160377816336,0.05151259327407147,0.08168003688237313
0314,cdot_cos,Q,P-Q,41,8,7660,-0.013747054713820194,-0.008378667320555477,-0.08682175759769029,0.10242701511742774,859.0,0.5397019454841513,0.5210593521562423,3.336407782016686,-0.0018946118600536648,0.079,0.999999999999999,39.64444223578809,0.2036528952685455,41,2026-10-07 21:46:23.744244,25.0,0.07017336511985035,0.29965561029098225,0.12455840501164413
0314,cdot_cos,R,Q-R,42,8,7687,0.1153703594978891,0.1196847875205329,0.1291174142117093,0.9618721059873285,859.0,0.5772074179142066,0.5222515497381351,3.3845768887782923,-0.007539388791177533,0.027,0.9999999999999991,-4.734766297849572,0.20862003602443904,42,2026-10-07 21:46:23.771244,25.0,0.47297873606441865,0.849260566012313,1.38909157148353
0314,cdot_cos,S,R-S,43,8,7746,-0.005210788819548877,-0.04173708439136294,-0.12058114831743798,0.04677381365097461,859.0,0.5855620160488162,0.5223095174413136,3.4250125669312808,-0.0017483897142389622,0.059,0.9999999999999989,99.90044040749962,0.21358717872999788,43,2026-10-07 21:46:23.830244,25.0,0.03643628772484528,0.1314374247580976,0.1416033582137219
0314,cdot_cos,T,S-T,44,8,7995,-0.18268831417453482,0.04748979205303004,-0.17747752535498595,0.011693749704578904,859.0,0.5927170340356621,0.5223240096404734,3.4647055340154274,-0.0015173187734185776,0.249,0.9999999999999991,15.944504921022466,0.21855433216772,44,2026-10-07 21:46:24.079243,25.0,0.8587400791070324,0.09464991871616671,0.028735011995365156
0314,cdot_cos,P,T-P,45,9,8440,0.08880130210276271,-0.004601250563346582,0.2714896162772975,0.9988731936072925,843.0,0.6326976755694672,0.523561783492034,3.512159233385078,-0.008815600879666832,0.445,0.9999999999999988,-5.896296885773468,0.22352149785051215,45,2026-10-07 21:46:24.524243,25.0,0.43697357858403807,0.05569918409407924,0.08984413827821369
0314,cdot_cos,Q,P-Q,46,9,8510,-0.010447661348252474,-0.005895603430924512,-0.09924896345101519,0.07718496845583332,843.0,0.6422893078793926,0.5236574169514088,3.551617422805743,-0.002200439755152103,0.07,0.9999999999999984,69.17203631198849,0.22848864099258723,46,2026-10-07 21:46:24.594244,25.0,0.04947486596128903,0.35439782003844894,0.1370233187132205
0314,cdot_cos,R,Q-R,47,9,8539,0.1306121590953205,0.12499409803953383,0.141059820443573,0.9714323177534996,843.0,0.6823133703748501,0.5248608871298659,3.598264978917133,-0.009537099914607572,0.029,0.9999999999999983,-6.096254224480448,0.23345578167562941,47,2026-10-07 21:46:24.623244,25.0,0.4633485041635853,0.8354944763995231,1.380140086050256
0314,cdot_cos,S,R-S,48,9,8589,-0.001726462070802057,-0.0034156806752566175,-0.13233862116612258,0.03528191091206069,843.0,0.690747987510565,0.5249045911847627,3.63664570783636,-0.0020833443877881623,0.05,0.9999999999999984,170.55066273399515,0.23842292400976808,48,2026-10-07 21:46:24.673243,25.0,0.02793754855402171,0.15630264280894757,0.16869234271429834
0314,cdot_cos,T,S-T,49,9,8838,-0.2750288032552556,0.025973803328801916,-0.2733023411844535,0.0010769352049767448,843.0,0.6979436346557448,0.5249059251891443,3.6743415003464883,-0.0017975513542177095,0.249,0.9999999999999982,214.23695268973412,0.24339008038112725,49,2026-10-07 21:46:24.922244,25.0,0.853004725846894,0.09919708940242879,0.02889818130594313
0314,cdot_cos,P,T-P,50,10,9283,0.08430757805907074,-0.0040141479417934054,0.3593363813143263,0.9998745414332468,849.0,0.7401481380329745,0.5261443182928507,3.7204021805842538,-0.010915431692557903,0.445,0.9999999999999983,-7.362670472769045,0.2483572518675385,50,2026-10-07 21:46:25.367244,25.0,0.43373558684576674,0.05863433613320664,0.09484158062298809
0314,cdot_cos,Q,P-Q,51,10,9354,-0.016925833520950315,-0.008524318943583008,-0.10123341158002105,0.07372458497754115,849.0,0.7501281938142987,0.5262356172223871,3.758074029807398,-0.002674773198348024,0.071,0.9999999999999978,90.26018745294851,0.253324395484036,51,2026-10-07 21:46:25.438244,25.0,0.04591877462164153,0.36671863951266803,0.1405641659341439
0314,cdot_cos,R,Q-R,52,10,9381,0.12334376881305786,0.11673947972358266,0.14026960233400818,0.9708789370932102,849.0,0.7922221848437734,0.527437766708913,3.803407858561188,-0.011672877440050173,0.027,0.9999999999999981,-7.485012756363708,0.2582915358079362,52,2026-10-07 21:46:25.465244,25.0,0.462617032277572,0.9448376752674396,1.559036704795357
0314,cdot_cos,S,R-S,53,10,9440,-0.006773121626385319,-0.024336484601663613,-0.1301168904394432,0.03722202187172501,849.0,0.8011494282787405,0.5274838490489686,3.840140419587959,-0.00255743627336878,0.059,0.9999999999999978,197.8076884913564,0.26325867906421424,53,2026-10-07 21:46:25.524243,25.0,0.02831712077123326,0.14083819189258281,0.1513092107621541
0314,cdot_cos,T,S-T,54,10,9696,-0.22160308334049275,0.060465194393594615,-0.21482996171410743,0.004629118080132547,849.0,0.8088410914870982,0.5274895800481089,3.8762409816172845,-0.0022264523092896827,0.256,0.9999999999999974,57.753274076488104,0.2682258392660184,54,2026-10-07 21:46:25.780244,25.0,0.8618622670635776,0.10151116623924988,0.030045559407647186
0314,cdot_cos,P,T-P,55,11,10132,0.10612951419579211,-0.008072263315983375,0.32773259753628486,0.9997235806319501,844.0,0.8531231453932364,0.5287270981872609,3.921145144005034,-0.013228116502031187,0.436,0.9999999999999974,-8.890103380851997,0.27319301634850396,55,2026-10-07 21:46:26.216243,25.0,0.4353139074922455,0.061783776377835636,0.10156434382141803
0314,cdot_cos,Q,P-Q,56,11,10202,-0.01132954609524463,-0.005862514913330901,-0.11745906029103674,0.05037957547090569,844.0,0.8627165444885708,0.5287894518474395,3.9570979625260634,-0.002958636097328192,0.07,0.9999999999999969,164.69731488559185,0.27816016031236107,56,2026-10-07 21:46:26.286243,25.0,0.03108535645170397,0.385901950704433,0.13704855850477726
0314,cdot_cos,R,Q-R,57,11,10229,0.14505987786261182,0.13369923160195443,0.15638942395785646,0.980348136836434,844.0,0.907149418491857,0.5300026253370341,4.001432117843215,-0.014130670774650834,0.027,0.9999999999999971,-9.208934066846412,0.28312730037830985,57,2026-10-07 21:46:26.313244,25.0,0.4535620944605511,0.987349476308303,1.6456620001217117
0314,cdot_cos,S,R-S,58,11,10285,-0.0008184660564645355,-0.0017357252796286532,-0.14587834391907636,0.02540790686464935,844.0,0.9160334162092192,0.5300340627812175,4.036619206920328,-0.0029104045930240957,0.056,0.9999999999999968,356.9077090426591,0.2880944436275043,58,2026-10-07 21:46:26.369244,25.0,0.0211688278968553,0.14972569815935904,0.1586428163814669
0314,cdot_cos,T,S-T,59,11,10536,-0.2987894174777846,0.04752120077786566,-0.2979709514213201,0.0005815256480144093,844.0,0.9239186966857053,0.5300347823056293,4.071274461458748,-0.002606983580912315,0.251,0.9999999999999962,421.69661949373227,0.293061606935207,59,2026-10-07 21:46:26.620243,25.0,0.8901299883712886,0.10787793147651381,0.03141546006568154
0314,cdot_cos,P,T-P,60,12,10976,0.08219868771719802,-0.0034067334184518065,0.3809881051949826,0.9999269798883462,836.0,0.9701881378104291,0.5312718094626151,4.1152137925286665,-0.015742768654133904,0.44,0.9999999999999963,-10.618833223701182,0.2980287912264322,60,2026-10-07 21:46:27.060243,25.0,0.4341343628075629,0.06517274792775479,0.10515782073800878
0314,cdot_cos,Q,P-Q,61,12,11048,-0.016522099876581778,-0.008552099967217739,-0.0987207875937798,0.07813075050619273,836.0,0.9812707148621295,0.5313684503925559,4.150120327856672,-0.0038848297332143094,0.072,0.9999999999999961,122.70100182383284,0.30299593588780144,61,2026-10-07 21:46:27.132244,25.0,0.04724680219038427,0.3962785571459759,0.15392468127361597
0314,cdot_cos,R,Q-R,62,12,11076,0.1236997108002145,0.12242678735160477,0.1402218106767963,0.9708451377117348,836.0,1.0272522500394496,0.5325691026751967,4.193453369398727,-0.01658434005166582,0.028,0.9999999999999954,-10.577175841883601,0.30796307579581467,62,2026-10-07 21:46:27.160243,25.0,0.46498360554970136,0.9957870154977816,1.642197684904292
0314,cdot_cos,S,R-S,63,12,11125,-0.004645197644814128,-0.045301125274605135,-0.12834490844502863,0.03884252121346488,836.0,1.0370347877300052,0.5326171317918122,4.22751748583501,-0.0036262194204008447,0.049,0.9999999999999951,269.79718854714713,0.312930218477658,63,2026-10-07 21:46:27.209243,25.0,0.028058830402171928,0.189914191718661,0.19964362633786922
0314,cdot_cos,T,S-T,64,12,11374,-0.16971298401763027,0.036669833815032325,-0.16506778637281613,0.015879886318860562,836.0,1.0458638408278784,0.5326367672358591,4.261094200237111,-0.00330226933378015,0.249,0.999999999999995,16.498230742747378,0.31789738548363117,64,2026-10-07 21:46:27.458244,25.0,0.9065589393262475,0.11436479444551584,0.03545804456977183
0314,cdot_cos,P,T-P,65,13,11812,0.08975370208712073,0.0026904280925649886,0.259466686104751,0.9984786993384441,856.0,1.0939884553638721,0.5338711784069265,4.304207112709224,-0.018485790895745563,0.438,0.9999999999999951,-12.300213995013612,0.3228645771565542,65,2026-10-07 21:46:27.896243,25.0,0.43983230483478297,0.0677334390030065,0.1098735491689354
0314,cdot_cos,Q,P-Q,66,13,11895,-0.013684421396539519,-0.00798239180920702,-0.10343812348366024,0.07004794550804616,856.0,1.1051983333945121,0.5339577627261797,4.337893449314603,-0.004425269569756211,0.083,0.9999999999999942,162.39108244166215,0.32783172384443127,66,2026-10-07 21:46:27.979244,25.0,0.04169702974057005,0.35400221212626015,0.13505877145349393
0314,cdot_cos,R,Q-R,67,13,11922,0.11836401205859276,0.13034706866279203,0.13204843345513229,0.9644703261833979,856.0,1.1527528225768313,0.535149707440984,4.380389221261684,-0.019268105130644607,0.027,0.9999999999999946,-12.452620810794095,0.3327988633347888,67,2026-10-07 21:46:28.006243,25.0,0.4628594311549087,1.0746088642894913,1.761277377122933
0314,cdot_cos,S,R-S,68,13,11980,-0.002486038914787986,-0.009871274188947109,-0.12085005097338075,0.04647499272998758,856.0,1.1632272120661447,0.5352071337283983,4.413431168144707,-0.004353007551529373,0.058,0.9999999999999938,259.725959150031,0.33776600744857777,68,2026-10-07 21:46:28.064243,25.0,0.03250409852777202,0.16464174135987947,0.18059292222954035
0314,cdot_cos,T,S-T,69,13,12233,-0.2424449982004392,0.051057620311815044,-0.2399589592856512,0.0024751551314964944,856.0,1.1718512645745773,0.5352101920990511,4.44578983474576,-0.0036135859373042163,0.253,0.9999999999999936,241.76978469398207,0.3427331791898005,69,2026-10-07 21:46:28.317244,25.0,0.8149547627001001,0.11587516570301414,0.0340871640649513
0314,cdot_cos,P,T-P,70,14,12668,0.08902995429026028,-0.00526092903708745,0.33147495249069947,0.9997482629785396,845.0,1.2218600459118698,0.5364452898818802,4.488223392960862,-0.021472816861776024,0.435,0.9999999999999933,-14.459770856006966,0.3477003784975056,70,2026-10-07 21:46:28.752243,25.0,0.4353027706942982,0.07106838388307583,0.11496271571791374
0314,cdot_cos,Q,P-Q,71,14,12738,-0.011669340422859893,-0.006009610131228519,-0.10069929471312017,0.07464165260143873,845.0,1.2336807585528533,0.5365374850885938,4.520945308999962,-0.005206549974462612,0.07,0.9999999999999927,176.43289133080646,0.3526675240228404,71,2026-10-07 21:46:28.822243,25.0,0.04397240585930189,0.4407443698105021,0.1688673234426214
0314,cdot_cos,R,Q-R,72,14,12765,0.1403586103311364,0.130095839047757,0.15202795075399628,0.9781336794553944,845.0,1.28356425768534,0.5377454143118496,4.562921250369622,-0.02251567054603725,0.027,0.9999999999999925,-14.329581765494176,0.3576346632001811,72,2026-10-07 21:46:28.849244,25.0,0.46358810249127796,1.110523791293168,1.8475370049069184
0314,cdot_cos,S,R-S,73,14,12822,-0.0010595916409518772,-0.0022936424025858343,-0.14141820197208826,0.028320088443506815,845.0,1.2936490432826844,0.5377803811833096,4.59479769340771,-0.004660311071582977,0.057,0.9999999999999921,510.63646042476086,0.3626018075269845,73,2026-10-07 21:46:28.906244,25.0,0.02167997083904869,0.16597354179439838,0.176926063111303
0314,cdot_cos,T,S-T,74,14,13053,-0.3577701629601073,0.009467393310880597,-0.3567105713191554,0.00013396951800410657,845.0,1.3024852414499015,0.5377805465948661,4.626163287806981,-0.004113300618170528,0.231,0.9999999999999916,3306.9663640531903,0.3675689802633165,74,2026-10-07 21:46:29.137243,25.0,0.8754775493284825,0.1312193402189808,0.038251940117823145
0314,cdot_cos,P,T-P,75,15,13513,0.08679251479297653,-0.002706140167001086,0.4445626777530838,0.999985098994215,854.0,1.3542723784638535,0.5390149894401565,4.6680068498412615,-0.02466073552646982,0.46,0.9999999999999919,-16.645108347212,0.3725361924581757,75,2026-10-07 21:46:29.597243,25.0,0.4346542188125033,0.06995446260441211,0.11258073263902606
0314,cdot_cos,Q,P-Q,76,15,13586,-0.009563324859412262,-0.0054985403298746524,-0.0963558396523888,0.08249684326819172,854.0,1.3668433470459607,0.5391168074403337,4.699911491396373,-0.006131038425480909,0.073,0.999999999999991,181.98842119002825,0.3775033391078429,76,2026-10-07 21:46:29.670244,25.0,0.04869021898985359,0.4369381569148367,0.17220504906996106
0314,cdot_cos,R,Q-R,77,15,13614,0.1288576049628565,0.12565726484410103,0.13842092982226878,0.9695434214371798,854.0,1.4180653493734197,0.5403131757384149,4.741229003625893,-0.025557576449770913,0.028,0.9999999999999905,-16.237924438025193,0.3824704781121876,77,2026-10-07 21:46:29.698244,25.0,0.4676155612439011,1.1074276891621422,1.8293572259806783
0314,cdot_cos,S,R-S,78,15,13660,-0.0017053177742535725,-0.003249318890999987,-0.13056292273711007,0.036824471101475964,854.0,1.4288592976390406,0.5403586062328145,4.772318121057418,-0.005505567013193709,0.046,0.99999999999999,441.37775081606327,0.38743762075042715,78,2026-10-07 21:46:29.744244,25.0,0.026196397239107206,0.2178481870029626,0.23465104925262972
0314,cdot_cos,T,S-T,79,15,13910,-0.2386179316371725,0.06415877212716144,-0.23691261386291892,0.0026705003714475642,854.0,1.4381073825776922,0.540361900813519,4.8028417599524245,-0.004750285797582135,0.25,0.9999999999999893,229.24957175475433,0.39240480143971,79,2026-10-07 21:46:29.994244,25.0,0.8529989135350858,0.12545852177659,0.03699233975460636
0314,cdot_cos,P,T-P,80,16,14367,0.07031364333909843,-0.003804785900568046,0.3089315749762709,0.9995577926550028,848.0,1.4915885585273356,0.5415947991628691,4.844171288004593,-0.028060283875642925,0.457,0.9999999999999896,-18.90666662855655,0.397372022884741,80,2026-10-07 21:46:30.451244,25.0,0.4357391853448196,0.07283767311606561,0.11702664321584991
0314,cdot_cos,Q,P-Q,81,16,14438,-0.02474822304279915,-0.01147285462496407,-0.09506186638189758,0.08497870367738616,848.0,1.5046810158057762,0.5416995923445891,4.875296488462253,-0.007025145840878559,0.071,0.9999999999999882,200.73002546077794,0.40233916983786305,81,2026-10-07 21:46:30.522244,25.0,0.05007349077441932,0.4663510324374552,0.18440080673859932
0314,cdot_cos,R,Q-R,82,16,14465,0.12233867740702781,0.11298313207588052,0.14708690044982695,0.9753296286461767,848.0,1.5578104051334543,0.5429020730838249,4.916187523536631,-0.029126278487769185,0.027,0.9999999999999885,-18.379614679680042,0.40730630828029146,82,2026-10-07 21:46:30.549243,25.0,0.468226154565648,1.1922251638826948,1.9677551602843733
0314,cdot_cos,S,R-S,83,16,14520,-0.005465541661526139,-0.066638313909376,-0.12780421906855394,0.03935032838741502,848.0,1.5690611746554417,0.5429505775806993,4.946515333542454,-0.0062973855023686996,0.055,0.9999999999999876,470.6551857345966,0.41227345292496387,83,2026-10-07 21:46:30.604243,25.0,0.026645413667398324,0.19787578723395063,0.2045594458543172
0314,cdot_cos,T,S-T,84,16,14768,-0.1537157351910474,0.04263509853220143,-0.14825019352952126,0.023980189350808215,848.0,1.5795767417291888,0.5429801359441024,4.976495309049775,-0.005926782373374955,0.248,0.9999999999999867,12.538012471778133,0.41724063837846487,84,2026-10-07 21:46:30.852243,25.0,0.939384654637711,0.13220773310439327,0.042401480136077106
0314,cdot_cos,P,T-P,85,17,15215,0.08752650940045333,-0.0023826859200825135,0.24124224459150073,0.9976028055082077,851.0,1.6346362102752208,0.5442095264133685,5.017364095166873,-0.03166522559512146,0.447,0.9999999999999868,-20.935938471291447,0.422207868199216,85,2026-10-07 21:46:31.299244,25.0,0.44360092702951354,0.0760382937358959,0.12317554484570904
0314,cdot_cos,Q,P-Q,86,17,15289,-0.014537044352952708,-0.007802516664482804,-0.10206355375340603,0.07231981790598238,851.0,1.6475549763290798,0.5442986285955943,5.047618022322194,-0.007586597205690509,0.074,0.9999999999999855,270.2361242782167,0.42717501655124807,86,2026-10-07 21:46:31.373244,25.0,0.04184270871309635,0.4568125388516586,0.17457791964674324
0314,cdot_cos,R,Q-R,87,17,15315,0.13082520955298652,0.12774721912895284,0.1453622539059392,0.9742706392585762,851.0,1.7022444660252662,0.5454987074550567,5.088073413120399,-0.032763935779058784,0.026,0.9999999999999855,-20.979736768838112,0.4321421543618519,87,2026-10-07 21:46:31.399244,25.0,0.463732821898034,1.270685558275838,2.1034419113917875
0314,cdot_cos,S,R-S,88,17,15374,-0.0018398109283537638,-0.00472095802525854,-0.13266502048134027,0.0350052195520304,851.0,1.7136306253594233,0.5455418161377729,5.117636060084639,-0.006955778676199995,0.059,0.9999999999999848,598.6765420965884,0.4371093003107002,88,2026-10-07 21:46:31.458244,25.0,0.024469718576525173,0.17892269113935425,0.1929857514263915
0314,cdot_cos,T,S-T,89,17,15627,-0.3171219263715862,0.0012547080757243268,-0.3152821154432324,0.0003773149635425078,851.0,1.72335734357971,0.54554228079479,5.146635781880444,-0.005978755446200757,0.253,0.9999999999999836,2102.6761548294576,0.4420764923443433,89,2026-10-07 21:46:31.711244,25.0,0.8492379839686034,0.13142748631255913,0.038445526562398025
0314,cdot_cos,P,T-P,90,18,16066,0.09354588572304813,-0.0053767455214464525,0.4106678120946343,0.9999652291120295,857.0,1.7801329334335783,0.5467734399845171,5.1871485142779195,-0.035557389933357185,0.439,0.9999999999999837,-24.025028391098157,0.44704373088765237,90,2026-10-07 21:46:32.150244,25.0,0.43524065197632394,0.07982629913833142,0.12932936185391392
0314,cdot_cos,Q,P-Q,91,18,16136,-0.00823244809894836,-0.0045287063279851655,-0.1017783338219965,0.0727996619108488,857.0,1.793444834223165,0.5468630489182359,5.21674123599786,-0.008503464632575187,0.07,0.9999999999999821,301.9110280419481,0.4520108790522798,91,2026-10-07 21:46:32.220243,25.0,0.04152257837913779,0.49792373706501225,0.190170011279811
0314,cdot_cos,R,Q-R,92,18,16163,0.14259140606406243,0.12963435765315826,0.15082385416301078,0.9774804914548433,857.0,1.84984225662268,0.5480659309360704,5.25686397390468,-0.036711749234331764,0.027,0.9999999999999817,-23.450583002761537,0.4569780166727047,92,2026-10-07 21:46:32.247243,25.0,0.46376741167604396,1.254447642254143,2.0887934222042577
0314,cdot_cos,S,R-S,93,18,16214,-6.258607950200317e-05,-0.00012126537145277742,-0.14265399214356442,0.027482201408617846,857.0,1.8611850069048888,0.5480997423311593,5.285682734610113,-0.007520716979319244,0.051,0.9999999999999812,863.3489442897056,0.4619451609810916,93,2026-10-07 21:46:32.298244,25.0,0.020621601454834895,0.20919312541892657,0.22240686827860331
0314,cdot_cos,T,S-T,94,18,16468,-0.322147123354094,0.03398129320207986,-0.322084537274592,0.00031832687019448165,857.0,1.8711799554154105,0.5481001339666016,5.314028197859755,-0.006665171507045531,0.254,0.9999999999999798,2184.545574457787,0.466912359111904,94,2026-10-07 21:46:32.552243,25.0,0.8795361534908038,0.13451566465942677,0.03935019098630606
0314,cdot_cos,P,T-P,95,19,16923,0.09297485086889354,-0.006652184765120476,0.4151219742229876,0.9999688930864541,858.0,1.9295189645518775,0.5493300926046958,5.354207693956529,-0.03959670116296613,0.455,0.9999999999999796,-26.774501707592712,0.47187961307584375,95,2026-10-07 21:46:33.007244,25.0,0.43532013939288644,0.07923085468533286,0.1282176024977298
0314,cdot_cos,Q,P-Q,96,19,16994,-0.00772996267999252,-0.004355573933973514,-0.10070481354888605,0.07463212347291064,858.0,1.9432800331790634,0.5494218659022349,5.383213181354623,-0.009516948334527818,0.071,0.9999999999999786,327.7614909242411,0.47684676224611433,96,2026-10-07 21:46:33.078244,25.0,0.04239812842541346,0.5046579782063882,0.19381786798853307
0314,cdot_cos,R,Q-R,97,19,17021,0.14258904982844434,0.13100252814081037,0.15031901250843685,0.9772009916529893,858.0,2.0011803974571847,0.5506231935248727,5.42300981993017,-0.040764168995530224,0.027,0.9999999999999782,-26.0105736954517,0.48181389938983776,97,2026-10-07 21:46:33.105243,25.0,0.4646195259247183,1.287064744090847,2.1444579362267144
0314,cdot_cos,S,R-S,98,19,17075,-0.001273215781944288,-0.0025529336536613376,-0.14386226561038862,0.02668628622829251,858.0,2.012781529359969,0.5506559922462904,5.451216491972594,-0.008311463084320788,0.054,0.9999999999999771,989.4503355149785,0.48678104481533646,98,2026-10-07 21:46:33.159244,25.0,0.020149576972380154,0.2024288054282913,0.21483577597748973
0314,cdot_cos,T,S-T,99,19,17325,-0.3180899519964551,0.03896596009515155,-0.31681673621451084,0.0003631184059444258,858.0,2.02304270844344,0.5506564385331321,5.4789626723131555,-0.0073915122238265435,0.25,0.9999999999999759,2061.344351944195,0.4917482478852777,99,2026-10-07 21:46:33.409244,25.0,0.8829731914710361,0.14024348935627629,0.04104471633388407
0314,cdot_cos,P,T-P,100,20,17781,0.07582752276709301,-0.005949855371038335,0.3939174747635481,0.9999471466639062,845.0,2.0829032740381073,0.5518851012374411,5.518851315844214,-0.04384667239681118,0.456,0.9999999999999757,-29.670600438293008,0.4967155142372247,100,2026-10-07 21:46:33.865243,25.0,0.4354289487325023,0.08155005016500949,0.13127317016374368
0314,cdot_cos,Q,P-Q,101,20,17850,-0.020462953273191167,-0.009473283756018969,-0.09629047604028418,0.08262061379716694,845.0,2.097416354193929,0.5519865913540831,5.547396922160467,-0.010822638819798627,0.069,0.999999999999974,325.39162107263144,0.5016826635886172,101,2026-10-07 21:46:33.934243,25.0,0.047293395940302414,0.5353374872508866,0.21033449501190626
0314,cdot_cos,R,Q-R,102,20,17877,0.12928264510557708,0.11628267552480542,0.14974559837876825,0.9768794169207641,845.0,2.1567798472787296,0.5531862471131924,5.586907572439318,-0.04502766311792149,0.027,0.9999999999999739,-28.512366183711656,0.5066498002423687,102,2026-10-07 21:46:33.961244,25.0,0.4678326323650429,1.3254117985658438,2.19864789202966
0314,cdot_cos,S,R-S,103,20,17934,-0.005861734503596016,-0.046924046691875824,-0.13514437960917308,0.032970700522278164,845.0,2.1689885913164844,0.5532267260253037,5.61463839165602,-0.009416058257103106,0.057,0.9999999999999726,879.756964884894,0.5116169469949003,103,2026-10-07 21:46:34.018244,25.0,0.022776916204600314,0.2068972091113084,0.21418849189043399
0314,cdot_cos,T,S-T,104,20,18184,-0.16755906276857552,0.05151206829053178,-0.1616973282649795,0.017251854935364314,845.0,2.180366129117419,0.5532479062561523,5.6420440809348085,-0.00882275124013731,0.25,0.9999999999999711,28.012301716921208,0.516584156453277,104,2026-10-07 21:46:34.268243,25.0,0.9349638695266234,0.14518240047119324,0.04551015120373769
0314,cdot_cos,P,T-P,105,21,18626,0.06762425606497482,-0.0003692068928989423,0.23518331883355034,0.9972118445211142,856.0,2.241579791552081,0.5544718597591394,5.681646207519105,-0.04823485517051342,0.442,0.9999999999999712,-32.200654546263124,0.5215514310692572,105,2026-10-07 21:46:34.710243,25.0,0.44171622011660466,0.08655958324325976,0.13849244894719953
0314,cdot_cos,Q,P-Q,106,21,18701,-0.024413834561324413,-0.012731836926115903,-0.09203809062629924,0.09104412548676752,856.0,2.2568848007044604,0.5545835724229293,5.709787737438245,-0.012268053819030657,0.075,0.9999999999999694,321.958139133706,0.5265185833078925,106,2026-10-07 21:46:34.785243,25.0,0.053303959344347326,0.5052171724861942,0.20406678869839232
0314,cdot_cos,R,Q-R,107,21,18729,0.1151080967393861,0.11291989070427101,0.1395219313007105,0.9703457869860038,856.0,2.31736236742501,0.5557738581036705,5.748969888484682,-0.04926752000923098,0.028,0.9999999999999688,-31.084525999809145,0.5314857198204355,107,2026-10-07 21:46:34.813244,25.0,0.4718986495256117,1.3145647806583258,2.1599130971624896
0314,cdot_cos,S,R-S,108,21,18774,-0.006886067243189247,-0.04627128523908889,-0.12199416398257534,0.0452237728394007,856.0,2.3305004284213267,0.5558293168579463,5.776348101210245,-0.01087477937510182,0.045,0.9999999999999678,692.2755683113255,0.5364528627952955,108,2026-10-07 21:46:34.858243,25.0,0.029292066190870644,0.26851488994613526,0.29195691102925636
0314,cdot_cos,T,S-T,109,21,19043,-0.2179278013320949,0.040952976038132805,-0.21104173408890567,0.005086613740042082,856.0,2.3415287075201623,0.555835554580039,5.803093959004817,-0.009175884717495366,0.269,0.9999999999999661,272.3581833846509,0.5414200858382198,109,2026-10-07 21:46:35.127244,25.0,0.8309814748148301,0.137212688998543,0.04099732007002095
0314,cdot_cos,P,T-P,110,22,19482,0.09628076234328167,-0.0038048625809513114,0.3142085636753766,0.999612425217926,856.0,2.404320855102543,0.5570610368087863,5.842505866788445,-0.05304085410140385,0.439,0.999999999999966,-35.794047726622466,0.546387372435803,110,2026-10-07 21:46:35.566243,25.0,0.43735788905730016,0.08799908828495384,0.14303450474346355
0314,cdot_cos,Q,P-Q,111,22,19553,-0.008332033530188642,-0.004728490307432562,-0.10461279587347032,0.06815894229081089,856.0,2.4187919070343518,0.5571445716499059,5.869882758408417,-0.01242229775341997,0.071,0.9999999999999637,486.2468857730231,0.5513545242137278,111,2026-10-07 21:46:35.637243,25.0,0.038013640013570986,0.5391823891359211,0.20381763284237997
0314,cdot_cos,R,Q-R,112,22,19581,0.13724461292973383,0.12757278189362736,0.14557664645992247,0.974404654657542,856.0,2.4808847543598436,0.5583384355281548,5.908899056925765,-0.054117866129888885,0.028,0.9999999999999638,-34.92489314412338,0.5563216602321518,112,2026-10-07 21:46:35.665244,25.0,0.46280083903569097,1.3346461388499422,2.217601690196136
0314,cdot_cos,S,R-S,113,22,19632,-0.0014743160321674552,-0.0028567620655717955,-0.1387189289619013,0.030237356204474708,856.0,2.4935320908099485,0.5583754723469231,5.935613155609473,-0.0111909075593459,0.051,0.9999999999999618,1159.034711892151,0.5612888056357757,113,2026-10-07 21:46:35.716243,25.0,0.02158237606738859,0.23471388101510587,0.24798698921774437
0314,cdot_cos,T,S-T,114,22,19881,-0.21038484494773885,0.0677187826543875,-0.20891052891557138,0.00536348599011753,856.0,2.5048255702233844,0.5583820418501236,5.961889224730072,-0.010041019364899968,0.249,0.9999999999999599,175.0342696156851,0.5662560284103103,114,2026-10-07 21:46:35.965244,25.0,0.891794932177303,0.15157091624771404,0.045355339009782475
0314,cdot_cos,P,T-P,115,23,20338,0.07735581992577482,-0.005363920316840555,0.2877406648735137,0.9992491223094482,842.0,2.56901440710131,0.5596056201258653,6.0011022042040105,-0.05789814412137611,0.457,0.9999999999999598,-39.11243416565732,0.5712233355779038,115,2026-10-07 21:46:36.422244,25.0,0.43754557044719944,0.08706769137532556,0.14045697347467342
0314,cdot_cos,Q,P-Q,116,23,20409,-0.02068890526527103,-0.009991268671915675,-0.09804472519104586,0.07935682095639689,842.0,2.584405440140432,0.5597027615402321,6.028183764050301,-0.01409974465968737,0.071,0.9999999999999574,450.8725732190292,0.5761904882765163,116,2026-10-07 21:46:36.493243,25.0,0.04476513323533136,0.5563182518449629,0.21677511322706783
0314,cdot_cos,R,Q-R,117,23,20436,0.12921329869982137,0.12013094671908492,0.1499022039650924,0.9769676794468587,842.0,2.648011598863295,0.5608982998135549,6.067043282022599,-0.05912828690042805,0.027,0.9999999999999571,-37.66382327149865,0.581157623348368,117,2026-10-07 21:46:36.520243,25.0,0.46694688053568123,1.419306312097762,2.35578365640233
0314,cdot_cos,S,R-S,118,23,20490,-0.006748478689173353,-0.0378049753313218,-0.13596177738899473,0.032325341821783676,842.0,2.661047980993711,0.5609378450936005,6.093345222190675,-0.012295890010342097,0.054,0.9999999999999548,1184.2727333354642,0.5861247703235833,118,2026-10-07 21:46:36.574244,25.0,0.022175113541964716,0.23226794100892098,0.24141448389659717
0314,cdot_cos,T,S-T,119,23,20740,-0.17494275453633276,0.04673601174854129,-0.1681942758471594,0.014703502234564764,842.0,2.6730965364922583,0.5609558324003006,6.1193062301319925,-0.011417767176812796,0.25,0.999999999999953,48.81902822750476,0.5910920007682474,119,2026-10-07 21:46:36.824243,25.0,0.925974618039641,0.15515975350588107,0.04819422199418888
0314,cdot_cos,P,T-P,120,24,21180,0.0815823383347738,-0.00279813327114574,0.2565250928711066,0.9983627968128607,838.0,2.7386278577466516,0.5621767873928306,6.158338725984117,-0.0629652340223857,0.44,0.9999999999999533,-42.218973804068405,0.5960593152707897,120,2026-10-07 21:46:37.264243,25.0,0.44101978853095747,0.09179580399383723,0.14893482103271208
0314,cdot_cos,Q,P-Q,121,24,21253,-0.021472892859364084,-0.0109837632467805,-0.10305523119413788,0.07067406949923427,838.0,2.753876844006835,0.5622631903970101,6.184895712267477,-0.014869921350099,0.073,0.9999999999999506,556.6393568025529,0.6010264698824217,121,2026-10-07 21:46:37.337244,25.0,0.039383724703391035,0.5484808632680951,0.20889022274223906
0314,cdot_cos,R,Q-R,122,24,21280,0.12449591221810534,0.12285648656534483,0.14596880507746943,0.9746480338307818,838.0,2.8187060637837935,0.5634543647362326,6.223557498739926,-0.06410032981009146,0.027,0.9999999999999502,-41.3293057438832,0.6059936044081139,122,2026-10-07 21:46:37.364243,25.0,0.46393021288901515,1.4531772892769634,2.4010822139614234
0314,cdot_cos,S,R-S,123,24,21329,-0.004355753172752643,-0.03877663977711003,-0.128851665390858,0.03837229592718111,838.0,2.832348417627791,0.5635012468801477,6.249531774111861,-0.013678586910692975,0.049,0.9999999999999483,1075.4999385411732,0.6109607495330261,123,2026-10-07 21:46:37.413243,25.0,0.025067560294728862,0.2598264730513525,0.2784153845713794
0314,cdot_cos,T,S-T,124,24,21579,-0.20894182679532347,0.04701982100102008,-0.20458607362257084,0.005972187917824139,838.0,2.844169058142826,0.5635085434218655,6.274966200101987,-0.01190539432850992,0.25,0.9999999999999455,243.01822024133884,0.6159279875956027,124,2026-10-07 21:46:37.663244,25.0,0.8616205825592242,0.15750636155327769,0.04728256206013981
0314,cdot_cos,P,T-P,125,25,22018,0.07376257476112316,-0.0018318473555392284,0.2827044015564466,0.9991484581780948,839.0,2.91110159840443,0.5647288671505973,6.313861334615426,-0.06830420582141951,0.439,0.9999999999999457,-46.21627045761056,0.6208953162697118,125,2026-10-07 21:46:38.102243,25.0,0.4379281510084776,0.09486282752114947,0.15246592314716148
0314,cdot_cos,Q,P-Q,126,25,22090,-0.021322020540971952,-0.010888481224113055,-0.09508459530209512,0.08493453059560496,839.0,2.9274586207063953,0.5648325671642113,6.340230549036746,-0.016932873512776996,0.072,0.9999999999999428,495.3840459452261,0.6258624715532988,126,2026-10-07 21:46:38.174243,25.0,0.04813130511015004,0.5722113834973681,0.2271808653050742
0314,cdot_cos,R,Q-R,127,25,22118,0.12157289974958617,0.11716513048749021,0.14289492029055811,0.9726783229853441,839.0,2.993500037628051,0.566019742945626,6.37871926610177,-0.0692874366973855,0.028,0.9999999999999419,-44.10009368808072,0.6308296060280723,127,2026-10-07 21:46:38.202244,25.0,0.46972207616964234,1.4297643691919548,2.3586220329162737
0314,cdot_cos,S,R-S,128,25,22168,-0.00526842477573865,-0.05215219618747786,-0.12684132452532482,0.04027046791431401,839.0,3.0075254253811448,0.5660688777268116,6.404338987244142,-0.014913341573947423,0.05,0.99999999999994,1106.6314698344227,0.6357967519605502,128,2026-10-07 21:46:38.252243,25.0,0.026095210957698317,0.2635263659292564,0.2805077550618762
0314,cdot_cos,T,S-T,129,25,22417,-0.18645232800576378,0.042453966090629146,-0.18118390323002512,0.010669939833030152,839.0,3.0198526742209766,0.5660818961103437,6.429455126751542,-0.013165161078676959,0.249,0.9999999999999376,134.28552715195607,0.6407639974916696,129,2026-10-07 21:46:38.501244,25.0,0.8756503721024829,0.16181948288451942,0.04950702345313987
0314,cdot_cos,P,T-P,130,26,22857,0.08910742675048616,-0.005059372545291052,0.27555975475624994,0.9989820986677166,836.0,3.0881115278576354,0.5673003469237199,6.468219891085669,-0.07382434455709264,0.44,0.9999999999999376,-49.783858989213975,0.6457313419960379,130,2026-10-07 21:46:38.941243,25.0,0.439697138851852,0.09545414170205854,0.15513375826513373
0314,cdot_cos,Q,P-Q,131,26,22928,-0.015383341021201799,-0.007897137189016227,-0.10449076777168796,0.06835295792874943,836.0,3.103852318918788,0.5673836869275983,6.494003925610536,-0.017257554046697574,0.071,0.9999999999999339,678.747154762595,0.6506984979125534,131,2026-10-07 21:46:39.012243,25.0,0.037711174117668896,0.5868746390779902,0.22170128255144608
0314,cdot_cos,R,Q-R,132,26,22956,0.13506594675100994,0.13119556037769675,0.15044928777221173,0.9772734397516456,836.0,3.17144772660671,0.5685748178003258,6.5324281330090965,-0.07505667628868476,0.028,0.9999999999999342,-48.52457741241907,0.6556656318503075,132,2026-10-07 21:46:39.040244,25.0,0.46297925501911874,1.451800578416881,2.414121703140069
0314,cdot_cos,S,R-S,133,26,23007,-0.004061497076530637,-0.010499190908011451,-0.13912744382754058,0.029939316047562968,836.0,3.1851531513101334,0.5686112963104084,6.5575461805108155,-0.015415096029416457,0.051,0.9999999999999313,1634.9785154116582,0.6606327786623063,133,2026-10-07 21:46:39.091244,25.0,0.020878461155007275,0.2531889435042911,0.26873381771418425
0314,cdot_cos,T,S-T,134,26,23257,-0.23736539075979723,0.057269290562786485,-0.2333038936832666,0.002921893212482472,836.0,3.1972729988441477,0.5686148563488996,6.582193655881602,-0.013687082494315772,0.25,0.9999999999999284,485.39181229657885,0.6656000328378261,134,2026-10-07 21:46:39.341243,25.0,0.8813932232562365,0.16343700692055485,0.04847939013605718
0314,cdot_cos,P,T-P,135,27,23693,0.07680713374316293,-0.00520760884533998,0.3141725245029602,0.9996120759992323,824.0,3.266871654770411,0.569832366498074,6.620854648578065,-0.07955020280727215,0.436,0.9999999999999284,-54.096567784358925,0.6705673908115551,135,2026-10-07 21:46:39.777244,25.0,0.4369466863590058,0.0984521470969469,0.1596299447850072
0314,cdot_cos,Q,P-Q,136,27,23763,-0.02541153739455387,-0.012354527774185053,-0.10221867113771681,0.072060079689927,824.0,3.2831232711126854,0.5699201019781275,6.646354310836135,-0.018821107819792668,0.07,0.999999999999925,692.1839938695861,0.6755345473068022,136,2026-10-07 21:46:39.847244,25.0,0.03969030728593672,0.606527350878881,0.23216594774677948
0314,cdot_cos,R,Q-R,137,27,23791,0.11916144557615775,0.11384219171836647,0.1445729829707116,0.9737713596172731,824.0,3.351785483893454,0.5711052673504086,6.684616692367845,-0.08049411971445342,0.028,0.9999999999999247,-52.03747370374057,0.6805016806901877,137,2026-10-07 21:46:39.875243,25.0,0.46478500341765416,1.5001975316002367,2.4522218850274564
0314,cdot_cos,S,R-S,138,27,23845,0.0044612750536362775,-0.09744685763405465,-0.11470017052252147,0.053783520838642074,824.0,3.3671343328822987,0.5711707029957365,6.709737438846456,-0.018220914991806163,0.054,0.9999999999999222,951.6709800994514,0.6854688296414166,138,2026-10-07 21:46:39.929244,25.0,0.032788509513467526,0.2873122126849195,0.2842379442378607
0314,cdot_cos,T,S-T,139,27,24095,-0.10572849015708181,0.019456060128250387,-0.11018976521071809,0.059819278021191934,824.0,3.3828152028634255,0.571243479113722,6.734862219391353,-0.018700241380359812,0.25,0.9999999999999191,-6.5863143270311015,0.6904360924943521,139,2026-10-07 21:46:40.179244,25.0,0.9746936170066471,0.17188717288910382,0.06272347992450733
0314,cdot_cos,P,T-P,140,28,24517,0.07363131311658987,-0.0022005957828747295,0.17935980327367168,0.9888377761350748,835.0,3.4530779193268506,0.5724460502069366,6.773273972747764,-0.08479889873448103,0.422,0.9999999999999186,-54.964448860507765,0.6954034589032531,140,2026-10-07 21:46:40.601243,25.0,0.4586465442168001,0.10332157172234464,0.16649932811238172
0314,cdot_cos,Q,P-Q,141,28,24589,-0.024885737541641383,-0.012634772144770632,-0.09851705065823124,0.07849840032819479,835.0,3.4700186093970844,0.5725414792467636,6.798554413397151,-0.02070508203623529,0.072,0.999999999999915,671.6384951003304,0.7003706178779122,141,2026-10-07 21:46:40.673243,25.0,0.045249680958068465,0.602366185252211,0.23528736208658058
0314,cdot_cos,R,Q-R,142,28,24617,0.11659839521275896,0.11546313602880368,0.14148413275440033,0.9717252334927295,835.0,3.539818650003169,0.5737223383207751,6.836691732151864,-0.08631821877360282,0.028,0.9999999999999144,-55.563901045761526,0.7053377507559129,142,2026-10-07 21:46:40.701244,25.0,0.4676052599902162,1.5184510896794148,2.492858593074449
0314,cdot_cos,S,R-S,143,28,24666,-0.0037919715984830065,-0.0550934930848166,-0.12039036681124196,0.04698692865366024,835.0,3.5550518704191316,0.5737794165449337,6.861404910978516,-0.01906602346273861,0.049,0.9999999999999116,1178.2461052753001,0.7103048972271343,143,2026-10-07 21:46:40.750243,25.0,0.02938320479163715,0.2886680620890254,0.31088204930536006
0314,cdot_cos,T,S-T,144,28,24915,-0.18424134878445636,0.0371866776010363,-0.18044937718597334,0.010865535001296254,835.0,3.5681081200878935,0.5737926153709503,6.885512428477452,-0.01640633640257088,0.249,0.9999999999999083,201.50936581985405,0.7152721684417626,144,2026-10-07 21:46:40.999244,25.0,0.8503447656009413,0.17105500931162582,0.05243473762554957
0314,cdot_cos,P,T-P,145,29,25352,0.09829892876879807,-0.006437257693443538,0.28254027755325445,0.999144960032541,837.0,3.6402372650563213,0.5750058674663407,6.923988620675609,-0.09165287771267215,0.437,0.9999999999999079,-62.02053274499727,0.7202395606427712,145,2026-10-07 21:46:41.436243,25.0,0.43999370549770433,0.10152933869199451,0.1650552516439996
0314,cdot_cos,Q,P-Q,146,29,25422,-0.00646675055574785,-0.0037013123111939907,-0.10476567932454592,0.06791658928198956,837.0,3.6568447621046967,0.575088305309362,6.9488195910227555,-0.021361471665624535,0.07,0.9999999999999039,852.6594519093852,0.7252067196073968,146,2026-10-07 21:46:41.506243,25.0,0.03723264127065435,0.6284965672741885,0.23724995783393407
0314,cdot_cos,R,Q-R,147,29,25450,0.1447433641661619,0.13627586462379432,0.15121011472190976,0.9776920770900016,837.0,3.7282267844747077,0.5762745728829131,6.986959042680238,-0.09285430859603823,0.028,0.9999999999999033,-60.26704136942608,0.7301738518934289,147,2026-10-07 21:46:41.534244,25.0,0.46303790491565977,1.5287271013561927,2.5493579417861074
0314,cdot_cos,S,R-S,148,29,25501,-0.0002931007232457314,-0.0006128909351970486,-0.14503646488940763,0.02593431808853891,837.0,3.7424534797806435,0.5763060279838917,7.011066594589812,-0.018720358773959278,0.051,0.9999999999999,2356.818052255443,0.7351410000279295,148,2026-10-07 21:46:41.585243,25.0,0.0190617609280622,0.2632785883673186,0.2789548099203096
0314,cdot_cos,T,S-T,149,29,25753,-0.3720674805323403,-0.00959750065876435,-0.37177437980909456,9.193291493693271e-05,837.0,3.755081200488174,0.5763061394859791,7.034714117804603,-0.01667605856243644,0.252,0.9999999999998963,18334.18781902007,0.7401082821739968,149,2026-10-07 21:46:41.837244,25.0,0.8846272296498854,0.1707182491657824,0.05011000280766154
0314,cdot_cos,P,T-P,150,30,26189,0.09080704176617158,-0.004605296677147168,0.4628745222985119,0.9999905724328503,844.0,3.828495477360198,0.5775185296095857,7.073129791111967,-0.09798796022210635,0.436,0.9999999999998959,-67.06743982521262,0.7450756908068875,150,2026-10-07 21:46:42.273243,25.0,0.4361298629892979,0.10425877477935819,0.16838136897253125
0314,cdot_cos,Q,P-Q,151,30,26260,-0.008007355290082374,-0.004695930949134935,-0.09881439705625394,0.07796235816669822,844.0,3.8459948520957745,0.5776130122558191,7.097828824290693,-0.023635462705223844,0.071,0.9999999999998918,786.9434280370186,0.750042851642822,151,2026-10-07 21:46:42.344243,25.0,0.043032376977117724,0.6315633442033624,0.2464700666982637
0314,cdot_cos,R,Q-R,152,30,26288,0.1325599690495092,0.12691355765649875,0.14056732433959157,0.9710886387225616,844.0,3.9181774722370752,0.5787893973391751,7.135796239243187,-0.09855806956410415,0.028,0.9999999999998912,-63.688844680976054,0.7550099832816615,152,2026-10-07 21:46:42.372243,25.0,0.4675787745696876,1.5562375023221204,2.5779507193321685
0314,cdot_cos,S,R-S,153,30,26339,-0.001112143641991339,-0.002362018175554376,-0.13367211269150053,0.034164619427399276,844.0,3.9331441522258133,0.578830768449398,7.159742502190723,-0.020664315557030313,0.051,0.9999999999998871,1882.8055033452954,0.7599771318098411,153,2026-10-07 21:46:42.423244,25.0,0.023064020215383375,0.27354836152573675,0.29346431350466706
0314,cdot_cos,T,S-T,154,30,26591,-0.2569102595127871,0.07415585853438682,-0.25579811587079576,0.0016671803904307384,844.0,3.9460794051127004,0.5788327872670314,7.183127301109295,-0.01792299433313992,0.252,0.999999999999884,1357.8845253478237,0.7649444233277041,154,2026-10-07 21:46:42.675244,25.0,0.8581726657293157,0.17371565556550772,0.05133036859875844
0314,cdot_cos,P,T-P,155,31,27033,0.07776254002268193,-0.0036270099426526157,0.334672799535469,0.9997676004373699,844.0,4.020696842630829,0.5800429461507266,7.221477804963022,-0.10445578517102579,0.442,0.999999999999883,-71.50531389205376,0.7699118540050452,155,2026-10-07 21:46:43.117243,25.0,0.43674075685620417,0.10477242270965319,0.16881773194146782
0314,cdot_cos,Q,P-Q,156,31,27104,-0.019160267444233894,-0.00981069013747611,-0.09692280746691583,0.0814303119738521,844.0,4.038698226788034,0.5801414705050023,7.245966095210747,-0.02549117010664435,0.071,0.9999999999998783,801.473053488972,0.774879016086343,156,2026-10-07 21:46:43.188244,25.0,0.045151841163599826,0.640911515205802,0.25354062193245985
0314,cdot_cos,R,Q-R,157,31,27132,0.11397751601029521,0.10841805006935683,0.1331377834545291,0.965391840268487,844.0,4.111706277790053,0.5813090308928446,7.28378274065138,-0.10447084249494223,0.028,0.9999999999998777,-67.64504278383203,0.7798461470330667,157,2026-10-07 21:46:43.216243,25.0,0.46954211789087724,1.5955740395372984,2.6074303929292584
0314,cdot_cos,S,R-S,158,31,27181,-0.0018410600332757485,-0.09128083238016488,-0.11581857604357096,0.05237822988955993,844.0,4.1280503730021225,0.5813723520475766,7.3077386120119945,-0.02364297308473481,0.049,0.9999999999998738,1276.4749751045922,0.7848132944380649,158,2026-10-07 21:46:43.265243,25.0,0.032755491211853144,0.3207641395050442,0.33355296351162195
0314,cdot_cos,T,S-T,159,31,27432,-0.13732984982107366,0.032968327133244886,-0.1354887897877979,0.03269727552224247,844.0,4.143141163461547,0.5814118791194208,7.33132631025115,-0.021912675407988323,0.251,0.9999999999998698,43.77500270112262,0.7897805950119752,159,2026-10-07 21:46:43.516243,25.0,0.924073815627208,0.18074095836158593,0.06012267115308706
0314,cdot_cos,P,T-P,160,32,27877,0.09308847653903103,-0.002691962172586263,0.23041832636010467,0.9968602210430241,853.0,4.218782334099639,0.5826164592042924,7.369581572949798,-0.11094992519459831,0.445,0.9999999999998693,-73.91559175254284,0.79474804694679,160,2026-10-07 21:46:43.961244,25.0,0.44820730800811664,0.10485347741096071,0.16998015873728378
0314,cdot_cos,Q,P-Q,161,32,27951,-0.00938496133735464,-0.005201957388260897,-0.10247343787638567,0.07163534888887446,853.0,4.236460758357302,0.5827029837269931,7.3936736080820245,-0.0262184314226662,0.074,0.999999999999864,979.2772167606461,0.7997152127079602,161,2026-10-07 21:46:44.035244,25.0,0.03948821619202275,0.6240805514051916,0.2388976251035642
0314,cdot_cos,R,Q-R,162,32,27977,0.13484125359515706,0.13034144760118194,0.1442262149325117,0.973549030404423,853.0,4.311146255707607,0.5838783747928362,7.431560074730119,-0.1118840071559845,0.026,0.9999999999998633,-72.8826160269242,0.8046823413607801,162,2026-10-07 21:46:44.061243,25.0,0.46502497167697615,1.7314233395520073,2.8725191288578698
0314,cdot_cos,S,R-S,163,32,28036,-0.0008582831924547617,-0.0021676728414093426,-0.13569953678761182,0.0325310466580229,853.0,4.326494772014007,0.5839176339851506,7.454962924836614,-0.023234695783170743,0.059,0.999999999999859,2258.0523476611884,0.8096494971316638,163,2026-10-07 21:46:44.120243,25.0,0.022029230047622365,0.2424699493356274,0.26014434417626736
0314,cdot_cos,T,S-T,164,32,28289,-0.3446971401023381,-0.017006032829331406,-0.34383885690988336,0.00018481481122651817,853.0,4.339757709729211,0.5839178570207437,7.4777988034721385,-0.02014403397674625,0.253,0.9999999999998538,13857.258222293865,0.8146168091469616,164,2026-10-07 21:46:44.373244,25.0,0.8577623947746016,0.1784134274192355,0.052422678716222366
0314,cdot_cos,P,T-P,165,33,28730,0.10182679311405045,-0.004886612793809788,0.44652393321638856,0.9999858119786822,859.0,4.41677196628814,0.5851241403532856,7.516057363067036,-0.11809019578074624,0.441,0.999999999999854,-81.1966468919082,0.8195842768277305,165,2026-10-07 21:46:44.814244,25.0,0.43630303815941984,0.10698723075370696,0.17463550240119932
0314,cdot_cos,Q,P-Q,166,33,28803,-0.006662801871520149,-0.0038253576259399845,-0.10848959498557059,0.06225496082706213,859.0,4.434120447253981,0.5851992049654412,7.539766126964598,-0.026886629137252767,0.073,0.999999999999848,1215.0008376048818,0.8245514431536264,166,2026-10-07 21:46:44.887244,25.0,0.03363617148711326,0.6384044746270412,0.23765042418959767
0314,cdot_cos,R,Q-R,167,33,28831,0.13832212910735164,0.13496312116490752,0.1449849309788718,0.9740331161336857,859.0,4.509979019583688,0.5863731391128472,7.577612745069572,-0.11870488582171115,0.028,0.9999999999998476,-78.21414590192194,0.8295185726070403,167,2026-10-07 21:46:44.915244,25.0,0.4613952483261093,1.630461135361995,2.709234726060978
0314,cdot_cos,S,R-S,168,33,28880,-2.2108619939645103e-05,-4.320729267389796e-05,-0.1383442377272913,0.030513245534903827,859.0,4.525426270834252,0.5864098988209362,7.60074280296251,-0.024418265684417184,0.049,0.9999999999998428,2564.944746267817,0.8344857205686936,168,2026-10-07 21:46:44.964243,25.0,0.021040309368314327,0.2949152208012253,0.31525002552172127
0314,cdot_cos,T,S-T,169,33,29126,-0.37214581909782546,0.016198065289534637,-0.37212371047788584,9.113360879643161e-05,859.0,4.538880711222208,0.586410008609351,7.623331927744543,-0.021336156200248712,0.246,0.9999999999998378,28073.175932782837,0.8394530367313591,169,2026-10-07 21:46:45.210243,25.0,0.865494059940564,0.18623237360972156,0.054692847105511117
0314,cdot_cos,P,T-P,170,34,29589,0.08150163435764618,-0.00333194521854261,0.45364745345547164,0.9999881264605583,855.0,4.617052598650235,0.5876141722743199,7.6615533232529875,-0.12511048794008045,0.463,0.9999999999998375,-86.17959066429103,0.8444205427794251,170,2026-10-07 21:46:45.673243,25.0,0.43628416646517837,0.1049592081130016,0.16883776982295307
0314,cdot_cos,Q,P-Q,171,34,29660,-0.014033447087977735,-0.007243392049786133,-0.09553508144562392,0.08406331038397771,855.0,4.6360729379348475,0.5877153519125572,7.685377467470964,-0.030762061937993683,0.071,0.9999999999998315,932.4843184436507,0.8493877087118902,171,2026-10-07 21:46:45.744244,25.0,0.046558838359389274,0.6742637879384857,0.26789210260017216
0314,cdot_cos,R,Q-R,172,34,29688,0.12500908193289909,0.11852228625596027,0.13904252902087683,0.9699989679712794,855.0,4.7127980565375,0.588882316458357,7.723121175799527,-0.125266778663945,0.028,0.9999999999998301,-80.98336583240572,0.8543548373470833,172,2026-10-07 21:46:45.772243,25.0,0.47027972004172824,1.659507240458491,2.740182807237598
0314,cdot_cos,S,R-S,173,34,29738,-0.0035086397917845854,-0.008256496934063867,-0.12851772172468368,0.03868154785661242,855.0,4.729005343400523,0.5889288319517192,7.746151383549407,-0.026723272571047726,0.05,0.9999999999998255,2118.509317434382,0.8593219864609345,173,2026-10-07 21:46:45.822243,25.0,0.025033162603470153,0.30007790651535693,0.32414573726045504
0314,cdot_cos,T,S-T,174,34,29989,-0.24592274812424336,0.06290587671379191,-0.24241410833245877,0.0023281447634872668,855.0,4.742805847189036,0.5889316315511892,7.76854377688851,-0.022827137557879466,0.251,0.9999999999998197,1391.6758646660114,0.8642893172656488,174,2026-10-07 21:46:46.073244,25.0,0.8430913500103044,0.1854472102382411,0.05498208680682447
0314,cdot_cos,P,T-P,175,35,30444,0.06970663164143252,-0.0035918730548104003,0.3156293797656759,0.9996259453389835,844.0,4.82209984294012,0.5901331498054921,7.806729845637368,-0.13232999681901275,0.455,0.999999999999819,-91.1370750040437,0.869256837109455,175,2026-10-07 21:46:46.528243,25.0,0.4371414773075211,0.1079527298918625,0.17427251813425074
0314,cdot_cos,Q,P-Q,176,35,30514,-0.028710385520462803,-0.012579154056136051,-0.09841701716189533,0.07867949270334251,844.0,4.841042831390631,0.5902276745664513,7.830257142432442,-0.031935491764755734,0.07,0.9999999999998126,1062.097423315603,0.8742240034565152,176,2026-10-07 21:46:46.598243,25.0,0.04312443337566363,0.693795945097943,0.2706141207215827
0314,cdot_cos,R,Q-R,177,35,30540,0.1184196723879708,0.10733143787720532,0.1471300579084336,0.9753555764294853,844.0,4.919231275253832,0.591398901494861,7.868052849046986,-0.1330237314204718,0.026,0.999999999999812,-86.3096955881799,0.879191129389655,177,2026-10-07 21:46:46.624243,25.0,0.46770086848625203,1.8235119764186383,3.0072478408923553
0314,cdot_cos,S,R-S,178,35,30598,-0.007054695185088224,-0.05051467589842057,-0.12547436757305902,0.041612196606217476,844.0,4.9358654541644,0.5914488472994632,7.890914037766233,-0.02857395942724611,0.058,0.9999999999998063,2091.262175571796,0.884158286477253,178,2026-10-07 21:46:46.682244,25.0,0.025850683871866873,0.2697144334730002,0.2867961881132406
0314,cdot_cos,T,S-T,179,35,30828,-0.18298954192700131,0.05374565494225042,-0.1759348467419131,0.012147966077541239,844.0,4.9505181495367,0.5914634277632451,7.913243560636037,-0.025249823996384733,0.23,0.9999999999998003,227.985575807996,0.88912560792258,179,2026-10-07 21:46:46.912243,25.0,0.8766479034534574,0.2065649003433336,0.06370737118391336
0314,cdot_cos,P,T-P,180,36,31288,0.08435804830223981,-0.002104820857760421,0.26734759022924115,0.9987504104313784,853.0,5.0308853083223335,0.5926616143067385,7.9513922208231875,-0.13969371255093976,0.46,0.9999999999998,-95.51424957660616,0.8940931541092587,180,2026-10-07 21:46:47.372243,25.0,0.4407626872909899,0.10864251312378534,0.1747112147513769
0314,cdot_cos,Q,P-Q,181,36,31361,-0.011095553305214872,-0.0063653530747199965,-0.09545360160745468,0.08422028523417349,853.0,5.050469261610583,0.5927626020202524,7.97480760529271,-0.0343789200373332,0.073,0.9999999999997928,1042.8475786714505,0.8990603248100087,181,2026-10-07 21:46:47.445244,25.0,0.046730710505799196,0.675036295622218,0.26827333271574155
0314,cdot_cos,R,Q-R,182,36,31390,0.1287531202896806,0.12614475553975446,0.13984867359489547,0.9705799350127612,853.0,5.129440607483177,0.5939258472365807,8.01250015926961,-0.1398606487386281,0.029,0.9999999999997924,-90.67884158960335,0.904027452827395,182,2026-10-07 21:46:47.474244,25.0,0.47039071735698024,1.6446165225395968,2.7231498576756787
0314,cdot_cos,S,R-S,183,36,31435,-0.0040581546814640644,-0.012505311811791904,-0.13281127497114467,0.03488191794210184,853.0,5.145857019917879,0.5939676338711153,8.03504764317006,-0.02934544053720379,0.045,0.9999999999997858,2644.7501559372963,0.90899459761647,183,2026-10-07 21:46:47.519244,25.0,0.023144236050458337,0.3415827982947977,0.36480916521559853
0314,cdot_cos,T,S-T,184,36,31706,-0.22244537630365122,0.0665929259142453,-0.21838722162218716,0.004236887206361866,853.0,5.160183059329709,0.593972709338163,8.057040263614345,-0.025685275436727016,0.271,0.9999999999997797,721.1484314721056,0.9139619702829572,184,2026-10-07 21:46:47.790244,25.0,0.8671871035439132,0.17686114218799226,0.05286361406579284
0314,cdot_cos,P,T-P,185,37,32141,0.08466188248714979,-0.0054849614937926405,0.30710725879080103,0.9995371670693108,844.0,5.241715758983771,0.595169515261862,8.095183119201668,-0.14740181302525993,0.435,0.9999999999997792,-101.70114901532492,0.9189295128783354,185,2026-10-07 21:46:48.225244,25.0,0.4379079531370726,0.11532710727412604,0.1874314934576137
0314,cdot_cos,Q,P-Q,186,37,32212,-0.019613924396683195,-0.009332396532883137,-0.10427580688383298,0.06869597499297155,844.0,5.260517642658199,0.5952517277147744,8.118153859785098,-0.03431730876603951,0.071,0.9999999999997714,1375.5155119835106,0.9238966830252313,186,2026-10-07 21:46:48.296243,25.0,0.03705835528965351,0.6985288570253431,0.2648152630201085
0314,cdot_cos,R,Q-R,187,37,32239,0.1279168989042271,0.11939599393151537,0.1475308233009103,0.9755952635825419,844.0,5.34090685668137,0.5964187002101734,8.155905716108142,-0.14797514746620827,0.027,0.9999999999997703,-97.3954734565609,0.9288638081460503,187,2026-10-07 21:46:48.323244,25.0,0.4638994982744235,1.7966528731068023,2.9773782971544818
0314,cdot_cos,S,R-S,188,37,32296,-0.005017799101248888,-0.027104653796543567,-0.132934698005476,0.034778190454618434,844.0,5.357536897805966,0.5964602806010926,8.178253990564505,-0.030890595515783117,0.057,0.9999999999997641,2815.859816662789,0.9338309657453447,188,2026-10-07 21:46:48.380243,25.0,0.022588877007922968,0.2733183644196523,0.2917551074490582
0314,cdot_cos,T,S-T,189,37,32543,-0.22216950065840577,0.06098344960498153,-0.21715170155715688,0.004369217579777004,844.0,5.37206515022521,0.5964655042877032,8.200047637910908,-0.027064968824159576,0.247,0.9999999999997572,732.3614483036275,0.9387983250942248,189,2026-10-07 21:46:48.627244,25.0,0.8681856069985311,0.19666318730286933,0.05881883570544149
0314,cdot_cos,P,T-P,190,38,32985,0.07840152522840865,-0.004519161354578853,0.3005710258868144,0.9994550523066447,838.0,5.4546885123335835,0.597659841533718,8.238175136204974,-0.15516474851629136,0.442,0.9999999999997569,-107.25595314017646,0.9437658964040679,190,2026-10-07 21:46:49.069243,25.0,0.4379840890727158,0.11593015797174266,0.18693068350310724
0314,cdot_cos,Q,P-Q,191,38,33055,-0.019047974564253466,-0.009171623456112325,-0.09744949979266213,0.08045081758347906,838.0,5.474547409872231,0.5977559291678686,8.261154186575355,-0.037644627367279165,0.07,0.9999999999997486,1223.0514590965524,0.9487330669585617,191,2026-10-07 21:46:49.139244,25.0,0.04407644160925574,0.7226663740486876,0.2836985362663873
0314,cdot_cos,R,Q-R,192,38,33082,0.12507886181257885,0.11717533996224548,0.14412683637683232,0.9734849768631051,838.0,5.5558618047004,0.5989180284878729,8.298854539192934,-0.1554189847165527,0.027,0.9999999999997479,-101.34620623376225,0.9537001912022638,192,2026-10-07 21:46:49.166244,25.0,0.4687029073192351,1.8195439576551236,3.011644252895154
0314,cdot_cos,S,R-S,193,38,33134,-0.006304011923856458,-0.03709233659020465,-0.1313828737364353,0.03610427489147664,838.0,5.572802783585607,0.5989611067310878,8.321036528917471,-0.032667146663636314,0.052,0.9999999999997411,2849.5089142909833,0.9586673440153634,193,2026-10-07 21:46:49.218244,25.0,0.023338425493159464,0.30922407524262946,0.3257880554847599
0314,cdot_cos,T,S-T,194,38,33384,-0.18425319431460974,0.047505126059439635,-0.17794918239075327,0.011558257834299899,838.0,5.588021108525633,0.5989748972802547,8.342757850533776,-0.029429835059273685,0.25,0.9999999999997334,234.7485633239088,0.9636347180384204,194,2026-10-07 21:46:49.468243,25.0,0.8958332297828119,0.1977920174775889,0.060873299760103805
0314,cdot_cos,P,T-P,195,39,33823,0.09246563473824723,-0.001497113167235362,0.27671882905285694,0.9990111422544196,840.0,5.671698792324402,0.6001662569964036,8.380868671311063,-0.16309202812927778,0.439,0.9999999999997332,-112.19297686350193,0.9686023082001677,195,2026-10-07 21:46:49.907244,25.0,0.44062956531657077,0.11761369154391169,0.19060975808375513
0314,cdot_cos,Q,P-Q,196,39,33895,-0.009314120343655146,-0.005478300575131136,-0.10177975508190237,0.0727972635757411,840.0,5.691285929701188,0.6002530244539527,8.403545485394762,-0.038523652603325624,0.072,0.9999999999997246,1435.6577805159868,0.973569482560348,196,2026-10-07 21:46:49.979244,25.0,0.03941709491263596,0.7079893928399658,0.2720435746775829
0314,cdot_cos,R,Q-R,197,39,33924,0.13469228512228767,0.13535386788917053,0.14400640546594282,0.9734071519815913,840.0,5.773649264893357,0.6014126273771978,8.441231637210578,-0.1632849216381922,0.029,0.9999999999997239,-107.58964688164488,0.978536608235677,197,2026-10-07 21:46:50.008243,25.0,0.46576643939975293,1.7114198819255149,2.8401150066265206
0314,cdot_cos,S,R-S,198,39,33973,-0.0011906523926189603,-0.002467412475986156,-0.13588293751490663,0.03238705228332336,840.0,5.790548282852868,0.6014511900341768,8.463171582816836,-0.03379118382534906,0.049,0.9999999999997164,3358.0087047267416,0.9835037580563436,198,2026-10-07 21:46:50.057244,25.0,0.02166244344055475,0.32194386952734155,0.344877917541036
0314,cdot_cos,T,S-T,199,39,34222,-0.29320203245080945,0.030135194730407613,-0.2920113800581905,0.0006748908255347166,840.0,5.805199764107036,0.6014519936006647,8.48452765015587,-0.029376933287847344,0.249,0.9999999999997083,5493.323332840585,0.9884711425449934,199,2026-10-07 21:46:50.306243,25.0,0.8604820966141355,0.1997186053573011,0.05884129017738437
0314,cdot_cos,P,T-P,200,40,34663,0.08437728706738733,-0.003311846935320685,0.3775793195181968,0.9999204848116645,839.0,5.8900081483208035,0.6026419579155693,8.522647557078292,-0.17132967088702286,0.441,0.9999999999997079,-119.29159204287323,0.9934387573873907,200,2026-10-07 21:46:50.747243,25.0,0.43668828954933875,0.1191020313268511,0.19230926125570802
0314,cdot_cos,Q,P-Q,201,40,34735,-0.014105650763022665,-0.007669034395428035,-0.09848293783041,0.07856011248805116,839.0,5.910247755737319,0.6027353978669634,8.545252500928166,-0.04125196075079666,0.072,0.9999999999996984,1392.099505570112,0.9984059333685003,201,2026-10-07 21:46:50.819244,25.0,0.042713119867049884,0.7193460435369491,0.28110565856271424
0314,cdot_cos,R,Q-R,202,40,34763,0.12867797829130967,0.12842492001354616,0.14278362905433234,0.9726042859854644,839.0,5.993593978590124,0.603891597801695,8.582915671002429,-0.17119480319129207,0.028,0.999999999999698,-112.38786522735876,1.0033730570274382,202,2026-10-07 21:46:50.847244,25.0,0.46811795660492456,1.7998123192955382,2.976650816171616
0314,cdot_cos,S,R-S,203,40,34813,-0.0015693271785210028,-0.003218774510208566,-0.13024730546983068,0.03710535740595238,839.0,6.011037245617869,0.6039356845307872,8.604762416729429,-0.03613080090563862,0.05,0.9999999999996905,3063.597709942795,1.0083402084458886,203,2026-10-07 21:46:50.897243,25.0,0.0237970028616954,0.32264706354994566,0.34886534055489804
0314,cdot_cos,T,S-T,204,40,35061,-0.30716000145855465,0.023454625245938162,-0.30559067428003367,0.0004807093742756779,839.0,6.025858684945119,0.603936255674532,8.625938536749329,-0.030782622773909876,0.248,0.9999999999996816,9363.979173219814,1.013307603557344,204,2026-10-07 21:46:51.145243,25.0,0.840515259878761,0.20299528934610594,0.05976386825503897
0314,cdot_cos,P,T-P,205,41,35502,0.06822685143111067,-0.003056061201913566,0.37538685288966533,0.9999160051710049,834.0,6.111722909133538,0.6051236670863147,8.664055920655557,-0.17963630846514192,0.441,0.9999999999996809,-125.35982407963745,1.0182752414014413,205,2026-10-07 21:46:51.586244,25.0,0.4366430691358303,0.12067089824698961,0.1947034562095666
0314,cdot_cos,Q,P-Q,206,41,35574,-0.02965817869648724,-0.014639527362537234,-0.0978850301275979,0.07964899153194342,834.0,6.132290417198964,0.6052181980297864,8.686518991533985,-0.04340293406560973,0.072,0.9999999999996716,1441.1511130253157,1.0232424190527065,206,2026-10-07 21:46:51.658243,25.0,0.04333452386653404,0.7289361323201806,0.2856598342420272
0314,cdot_cos,R,Q-R,207,41,35602,0.11367879468254605,0.11056450902423946,0.14333697337903328,0.9729704851017642,834.0,6.216689712187644,0.606372325221887,8.724182257037544,-0.17944830812547985,0.028,0.999999999999671,-117.87727989690198,1.0282095418412338,207,2026-10-07 21:46:51.686244,25.0,0.4685411855429856,1.8499478343072053,3.0142605353100014
0314,cdot_cos,S,R-S,208,41,35650,0.002631741292212633,-0.09650478673575168,-0.11104705339033341,0.05862522135419969,834.0,6.235887495920167,0.6064418280651701,8.746232149776667,-0.041157874851163234,0.048,0.9999999999996625,1989.7090067382128,1.0331766911334912,208,2026-10-07 21:46:51.734244,25.0,0.03473528107787875,0.3897117150927128,0.3999538277609053
0314,cdot_cos,T,S-T,209,41,35897,-0.11942814033300712,0.02318310472080623,-0.12205988162521976,0.045152885952407976,834.0,6.254102036836544,0.6064953559104369,8.768005382429353,-0.039165364382290374,0.247,0.9999999999996537,37.223812371702934,1.038144097329021,209,2026-10-07 21:46:51.981244,25.0,0.9503981287563097,0.211757041660147,0.07374308063310517
0314,cdot_cos,P,T-P,210,42,36336,0.07659355748644585,-0.004324553188580164,0.19602169781945297,0.9926124374642233,839.0,6.34049547450028,0.607671430143118,8.805999459326944,-0.1871234687401414,0.439,0.9999999999996535,-125.80677328552171,1.0431117568440245,210,2026-10-07 21:46:52.420243,25.0,0.4535282387941997,0.12297577801575747,0.196795985566596
0314,cdot_cos,Q,P-Q,211,42,36407,-0.015908411634042975,-0.008528178355317207,-0.09250196912048883,0.09008895851572389,839.0,6.362074769934379,0.6077781084029531,8.828490985550724,-0.04713573240802059,0.071,0.9999999999996433,1312.242405795495,1.0480789350337991,211,2026-10-07 21:46:52.491244,25.0,0.05130917605650371,0.7539452256550526,0.3039337385084426
0314,cdot_cos,R,Q-R,212,42,36435,0.12859839230645856,0.12112421275812547,0.14450680394050153,0.9737290700115512,839.0,6.447555696543297,0.6089304848544603,8.866165713991315,-0.18809270617757234,0.028,0.9999999999996425,-122.31851283075898,1.0530460570159914,212,2026-10-07 21:46:52.519244,25.0,0.47264930446205883,1.8416633067319506,3.052890236032787
0314,cdot_cos,S,R-S,213,42,36489,-0.005292680833387116,-0.01383351059870804,-0.13389107313984566,0.03398445117654639,839.0,6.465207915111368,0.6089706824881452,8.887638539816795,-0.03915333225091372,0.054,0.9999999999996336,3705.177650360043,1.0580132148312977,213,2026-10-07 21:46:52.573244,25.0,0.02228141170139562,0.30410237190189354,0.32689293644576295
0314,cdot_cos,T,S-T,214,42,36738,-0.31433837221603383,0.015519574683261364,-0.3090456913826467,0.00044094812054157025,839.0,6.480398752708702,0.6089712040425671,8.908484746638527,-0.03377957405524002,0.249,0.999999999999624,10303.350849518392,1.0629806361002947,214,2026-10-07 21:46:52.822243,25.0,0.8529255072498134,0.20711673228713548,0.0610073799089691
0314,cdot_cos,P,T-P,215,43,37175,0.08740938362818058,-0.005592603244203906,0.4017477558442144,0.9999565429452266,842.0,6.568352047790362,0.6101533123441107,8.946607904462072,-0.1969238521469921,0.437,0.9999999999996235,-138.01127855942858,1.0679483167542971,215,2026-10-07 21:46:53.259244,25.0,0.4367196705927099,0.12495788581330045,0.2012661214683299
0314,cdot_cos,Q,P-Q,216,43,37247,-0.009097207084696853,-0.005358736979308012,-0.09650659071287744,0.08221202886089443,842.0,6.589611944909526,0.6102504427450538,8.968817531465877,-0.047994126912718066,0.072,0.999999999999613,1533.296720576537,1.0729154979950328,216,2026-10-07 21:46:53.331244,25.0,0.04491056147483695,0.7478521252709537,0.29527634887728377
0314,cdot_cos,R,Q-R,217,43,37275,0.13427794177957605,0.12916642184415827,0.1433751488642729,0.9729955731262219,842.0,6.676042753829379,0.6113993340416096,9.00647894400485,-0.19650346471297278,0.028,0.9999999999996118,-129.26317593793274,1.0778826190480157,217,2026-10-07 21:46:53.359244,25.0,0.46965383082643847,1.8611815124941795,3.0868146042804603
0314,cdot_cos,S,R-S,218,43,37328,-0.0006541356975662648,-0.0013794410915620393,-0.1349320774771423,0.0331403447190193,842.0,6.6938381096092,0.611438443706359,9.027784786748,-0.04077475033661393,0.053,0.9999999999996023,3981.8473355421133,1.0828497761215545,218,2026-10-07 21:46:53.412243,25.0,0.021944387915391207,0.3126643826084902,0.3357614298079465
0314,cdot_cos,T,S-T,219,43,37574,-0.3502228908298537,-0.0042094373728107,-0.3495687551322874,0.0001601533051250672,842.0,6.709185178385879,0.6114386327033862,9.04846982647157,-0.035252120734764074,0.246,0.9999999999995924,29220.722068664414,1.0878172057156863,219,2026-10-07 21:46:53.658243,25.0,0.8549939225725723,0.2120347796908562,0.062386458441783726
0314,cdot_cos,P,T-P,220,44,38017,0.08717021343330239,-0.0038561263529188912,0.4373931042631561,0.9999821738741588,841.0,6.798159221217102,0.612618056998497,9.08659868667775,-0.20573439551259426,0.443,0.9999999999995915,-144.5470264471744,1.0927849190740146,220,2026-10-07 21:46:54.101243,25.0,0.43663735726798136,0.12398442521583582,0.2008443404768001
0314,cdot_cos,Q,P-Q,221,44,38089,-0.01407477140489468,-0.007185071716625829,-0.10124498483819708,0.07370482918029055,841.0,6.81903537912711,0.6127049357827592,9.108518371176787,-0.04866044405148598,0.072,0.9999999999995807,1807.9667296807224,1.097752102033285,221,2026-10-07 21:46:54.173243,25.0,0.03963829109505044,0.7524278336951561,0.2899466376390011
0314,cdot_cos,R,Q-R,222,44,38116,0.13040368271609204,0.12631708881904663,0.14447845412098673,0.9737109336689163,841.0,6.906508829269204,0.6138520123424075,9.146193684594206,-0.20528996659300147,0.027,0.9999999999995797,-136.5467032030882,1.102719220656266,222,2026-10-07 21:46:54.200243,25.0,0.46628079766951,1.956838741272792,3.239757412670163
0314,cdot_cos,S,R-S,223,44,38166,-0.0012885256220722353,-0.0026071024563642927,-0.13169220833816428,0.03583611130641103,841.0,6.92470467115584,0.6138942049210777,9.167400135990816,-0.043030542101813424,0.05,0.9999999999995693,3845.686364879975,1.1076863739093157,223,2026-10-07 21:46:54.250243,25.0,0.02303370591393357,0.3408298742086391,0.3639168377327273
0314,cdot_cos,T,S-T,224,44,38417,-0.212319010770827,0.05263649525573186,-0.21103048514875475,0.005088037137205739,841.0,6.940591816690068,0.6139001953153957,9.188021513058368,-0.03766317500866304,0.251,0.9999999999995587,895.9956236924249,1.1126538234528285,224,2026-10-07 21:46:54.501244,25.0,0.867179158233235,0.21079069147708177,0.06329540053477109
0314,cdot_cos,P,T-P,225,45,38858,0.07764198510015431,-0.0010069645177914583,0.2899609958709813,0.9992896377533196,854.0,7.0305215982773355,0.6150760371810512,9.226145379182613,-0.21457678970997093,0.441,0.9999999999995581,-150.4569788410207,1.1176215587384104,225,2026-10-07 21:46:54.942244,25.0,0.43846427617876876,0.12685860261507845,0.20392240722736393
0314,cdot_cos,Q,P-Q,226,45,38932,-0.017371531861412944,-0.008997316627016775,-0.09501351696156726,0.08507273887684765,854.0,7.052481104196567,0.6151760785396182,9.248129346594697,-0.052810931712337764,0.074,0.9999999999995464,1616.989816159758,1.122588746479616,226,2026-10-07 21:46:55.016243,25.0,0.0467419550007866,0.7447794755867729,0.29675007998961733
0314,cdot_cos,R,Q-R,227,45,38959,0.12335406823569435,0.12048925900428296,0.1407256000971073,0.9711995236369639,854.0,7.140748960664178,0.6163174694730329,9.285764025112387,-0.2137001128434451,0.027,0.9999999999995455,-140.95887431817533,1.1275558640535372,227,2026-10-07 21:46:55.043243,25.0,0.47101109133848035,1.9781903667451435,3.2691798691707668
0314,cdot_cos,S,R-S,228,45,39007,-0.006003309762646158,-0.031858193539901276,-0.12935737799834052,0.03790849085224245,854.0,7.159303384000805,0.6163619950976472,9.30686708756739,-0.04525713794572851,0.048,0.9999999999995346,3783.056978015642,1.1325230146586316,228,2026-10-07 21:46:55.091244,25.0,0.024187735508021547,0.3592248050545514,0.38655048617973015
0314,cdot_cos,T,S-T,229,45,39273,-0.23441705359348,0.06309788626345025,-0.22841374383083385,0.0033006044545561045,854.0,7.175234541949415,0.616365871748279,9.327313221225795,-0.03895214709084062,0.266,0.9999999999995235,1626.4016167162222,1.1374905004339404,229,2026-10-07 21:46:55.357243,25.0,0.8505559876571552,0.20092904098528164,0.05989157123537551
0314,cdot_cos,P,T-P,230,46,39712,0.10089784703543322,-0.0054496564115065396,0.3353149006289132,0.9997713004081227,858.0,7.266197633804975,0.6175394477835126,9.365454624344112,-0.22380575609384035,0.439,0.9999999999995226,-157.51310818664098,1.1424582578621696,230,2026-10-07 21:46:55.796243,25.0,0.4378164318697189,0.12708429848146724,0.2072052206276992
0314,cdot_cos,Q,P-Q,231,46,39784,-0.006363153243225555,-0.0036549190022045243,-0.10726100027865879,0.06407236534581695,858.0,7.286814556016143,0.6176146122181568,9.386934837135714,-0.05111402523707821,0.072,0.99999999999951,2297.5191880845287,1.1474254442920606,231,2026-10-07 21:46:55.868243,25.0,0.03409656524712412,0.7653099823847765,0.2863461418217818
0314,cdot_cos,R,Q-R,232,46,39812,0.14164794986060017,0.13289323709748044,0.14801110310382573,0.9758795132581356,858.0,7.3764022712683825,0.618758736514032,9.424657727586354,-0.22353389015297048,0.028,0.999999999999509,-150.70029151334657,1.1523925623043272,232,2026-10-07 21:46:55.896243,25.0,0.46239463064969044,1.9209192722823287,3.1995612590085543
0314,cdot_cos,S,R-S,233,46,39865,-0.0006175938798296142,-0.0012630044278701099,-0.1422655437404298,0.027742946678484325,858.0,7.394386035263953,0.6187912432420815,9.445443834686749,-0.04519972796544589,0.053,0.9999999999994972,5486.069281297202,1.1573597211051834,233,2026-10-07 21:46:55.949243,25.0,0.019342127075912496,0.31928024117296355,0.33931630180322436
0314,cdot_cos,T,S-T,234,46,40114,-0.3617074723780904,0.018702307283450813,-0.3610898784982608,0.00012007823756695413,858.0,7.410245976832717,0.6187913839368133,9.4656934842007,-0.0399531208567308,0.249,0.9999999999994856,37290.71472093954,1.162327193714432,234,2026-10-07 21:46:56.198244,25.0,0.8769379156333041,0.21650863578549645,0.06369454445286445
0314,cdot_cos,P,T-P,235,47,40570,0.09019965568385561,-0.008168046436497978,0.45190712806194605,0.9999875984687261,844.0,7.502207335885131,0.6199623681604172,9.503848718742065,-0.23307238456522794,0.456,0.999999999999485,-164.9204658916322,1.1672950038700747,235,2026-10-07 21:46:56.654243,25.0,0.43666864015957796,0.12462966067173065,0.2016696470447675
0314,cdot_cos,Q,P-Q,236,47,40637,-0.010053515745300017,-0.004865403657445456,-0.10025317142915563,0.07541566298934284,844.0,7.523908227365335,0.6200506234001038,9.525404239279506,-0.055414278532960354,0.067,0.999999999999471,2013.0034960323285,1.1722621838091845,236,2026-10-07 21:46:56.721244,25.0,0.040518414882794035,0.8386867241788559,0.32389390268961754
0314,cdot_cos,R,Q-R,237,47,40663,0.14108744107172053,0.12297921989158572,0.15114095681702056,0.9776543370989148,844.0,7.614591356925097,0.6211940039099298,9.563165973213163,-0.2330224885489776,0.026,0.9999999999994705,-155.33604822687647,1.1772292974155678,237,2026-10-07 21:46:56.747243,25.0,0.4666417572160321,2.0941961287671647,3.487812675375474
0314,cdot_cos,S,R-S,238,47,40722,-0.0003813917839350233,-0.0008297920829552883,-0.14146883285565556,0.02828527763796707,844.0,7.632806426061228,0.6212270639735435,9.583830207403821,-0.04714117309939061,0.059,0.9999999999994585,5622.5335081498015,1.1821964667515878,238,2026-10-07 21:46:56.806243,25.0,0.01938844809012508,0.2901718232177888,0.3087299853581398
0314,cdot_cos,T,S-T,239,47,40972,-0.3744521613392261,0.004191037697063348,-0.37407076955529106,8.680415690736163e-05,844.0,7.648831632064796,0.6212271654292182,9.603944777691776,-0.04156687124470485,0.25,0.9999999999994452,54943.22396954036,1.187163954289518,239,2026-10-07 21:46:57.056243,25.0,0.8744987300508191,0.21792118534242988,0.0641008240142753
0314,cdot_cos,P,T-P,240,48,41414,0.08508362827610137,-0.003461199786040148,0.4595357896153275,0.9999897517642452,854.0,7.7417670187324426,0.6223952358436069,9.642111522079249,-0.24248492614497583,0.442,0.9999999999994452,-172.00851286471277,1.192131767747085,240,2026-10-07 21:46:57.498244,25.0,0.4366691055951445,0.12992466416341805,0.2102610558091541
0314,cdot_cos,Q,P-Q,241,48,41486,-0.0152458324774033,-0.007736942595050213,-0.10032946075350467,0.07528278281482638,854.0,7.763685035185258,0.6224831150329592,9.663542856549977,-0.05760950352547587,0.072,0.999999999999431,2103.7451981767344,1.1970989576583386,241,2026-10-07 21:46:57.570244,25.0,0.04039241429753137,0.785475193495243,0.3044168951779922
0314,cdot_cos,R,Q-R,242,48,41514,0.1265029608105708,0.12084982129960482,0.1417487932879741,0.9719064579142093,854.0,7.8548754465957575,0.6236169174902643,9.70120878246307,-0.24114738308560857,0.028,0.9999999999994299,-161.8781811395772,1.2020660734635018,242,2026-10-07 21:46:57.598243,25.0,0.4671511022601006,1.9654438727987016,3.256800407517841
0314,cdot_cos,S,R-S,243,48,41561,-0.006907490288095699,-0.02613729308750697,-0.1334104510986665,0.034381132224941456,854.0,7.873749892061985,0.6236570009798168,9.721856768947356,-0.05026192630914415,0.047,0.9999999999994169,4762.196577877496,1.207033222980165,243,2026-10-07 21:46:57.645243,25.0,0.022419723672118193,0.3813940729259437,0.4015839460899519
0314,cdot_cos,T,S-T,244,48,41812,-0.18987751456901006,0.05731574292368892,-0.18297002428091436,0.010208732414045787,854.0,7.890726489450796,0.6236689025777664,9.74202596323979,-0.04531050794511655,0.251,0.9999999999994041,416.0297117235201,1.2120007259593006,244,2026-10-07 21:46:57.896243,25.0,0.8964816225465936,0.22063962950804275,0.06763584617056162
0314,cdot_cos,P,T-P,245,49,42268,0.06999200482365497,-0.0031200218487733044,0.259869519392665,0.9984939202555423,861.0,7.984510986075023,0.6248322487657489,9.780178085971162,-0.2517587682198742,0.456,0.9999999999994033,-177.46072700232054,1.216968590492882,245,2026-10-07 21:46:58.352243,25.0,0.4404210350736077,0.12840567191523986,0.20566775575488266
0314,cdot_cos,Q,P-Q,246,49,42340,-0.022362652226253017,-0.010459367323772749,-0.09235465704990799,0.09039130468311686,861.0,8.007832462237495,0.6249374928704416,9.801768247684054,-0.06305983950896674,0.072,0.9999999999993886,1792.9643590192488,1.2219357822076262,246,2026-10-07 21:46:58.424243,25.0,0.05016795367869307,0.8035702249712766,0.32390939114544814
0314,cdot_cos,R,Q-R,247,49,42367,0.12459912679215772,0.11328639022334765,0.14696177901841073,0.9752542506352861,861.0,8.100225098470887,0.6260722449944153,9.839504374691158,-0.2513257944236552,0.027,0.9999999999993879,-165.90932146081994,1.226902895098038,247,2026-10-07 21:46:58.451244,25.0,0.472796008293888,2.06790172066653,3.421949490125613
0314,cdot_cos,S,R-S,248,49,42421,-0.005777648865662458,-0.06873800680786968,-0.1303767756578202,0.036989885963236345,861.0,8.119499155153488,0.6261152571907241,9.860079626833953,-0.052790179882806196,0.054,0.9999999999993743,4615.798112590702,1.2318700573889532,248,2026-10-07 21:46:58.505243,25.0,0.02326410456149635,0.3460153341576048,0.35692697560372355
0314,cdot_cos,T,S-T,249,49,42672,-0.15713825910578375,0.047749764464947095,-0.1513606102401213,0.022226011490143416,861.0,8.137594754559908,0.626141100852701,9.880346633747019,-0.04967528269384179,0.251,0.9999999999993605,120.5284758696391,1.2368375744524,249,2026-10-07 21:46:58.756243,25.0,0.9392203405053212,0.2245255091480672,0.0720940215395229
0314,cdot_cos,P,T-P,250,50,43129,0.07338526618227899,-0.003913084269298151,0.23052352528806275,0.9968684419035228,856.0,8.232210960745817,0.6272994840671833,9.91848257872982,-0.2612091301756069,0.457,0.9999999999993595,-182.6112851404809,1.2418054690796227,250,2026-10-07 21:46:59.213243,25.0,0.4449356444619494,0.12862755279023388,0.20703765029739493
0314,cdot_cos,Q,P-Q,251,50,43200,-0.022915403361895844,-0.011463799980239957,-0.09630066954417484,0.08260130057649455,856.0,8.255160337810182,0.6273954032909791,9.939819657035411,-0.0638052395731076,0.071,0.9999999999993442,2058.022185654008,1.2467726607815004,251,2026-10-07 21:46:59.284243,25.0,0.04532707304826437,0.8180234864849207,0.3232306628783702
0314,cdot_cos,R,Q-R,252,50,43227,0.12163595027547655,0.11182075248107315,0.1445513536373724,0.9737575453714163,856.0,8.348370295826676,0.6285254035469726,9.977538619227088,-0.26065081117386785,0.027,0.9999999999993426,-174.19958142194292,1.25173977241146,252,2026-10-07 21:46:59.311244,25.0,0.4699128738745078,2.0935634075346994,3.4522206672775724
0314,cdot_cos,S,R-S,253,50,43279,-0.003749380760171128,-0.08133145522933352,-0.12538533103564767,0.041701058049312276,856.0,8.368212761817055,0.6285737644053445,9.998084937699486,-0.05586200118825087,0.052,0.9999999999993294,4234.598327655305,1.2567069315910007,253,2026-10-07 21:46:59.363244,25.0,0.025579168931569588,0.38168934316753844,0.38158588443037134
0314,cdot_cos,T,S-T,254,50,43529,-0.12875266131207064,0.039863998477940345,-0.12500328055189952,0.04208442154273946,856.0,8.3880659875161,0.6286225672401906,10.018602307823377,-0.0560220041063427,0.25,0.9999999999993148,-3.278557866493116,1.261674461175901,254,2026-10-07 21:46:59.613244,25.0,0.9971480019676565,0.22997358148051816,0.07941290279617874
0314,cdot_cos,P,T-P,255,51,43985,0.06117127413164583,-0.003375953271382729,0.18992393544371647,0.991406328307531,840.0,8.483199552557315,0.6297714820525138,10.05665142084927,-0.26994709094193076,0.456,0.9999999999993137,-186.19751833734526,1.2666423828804325,255,2026-10-07 21:47:00.069243,25.0,0.45272498792946086,0.12968264612611885,0.20862623912547015
0314,cdot_cos,Q,P-Q,256,51,44055,-0.03543796981082914,-0.01623768003800395,-0.09660924394247497,0.08201859846441119,840.0,8.50633656078312,0.6298664656843792,10.077871065852818,-0.06610588464684634,0.07,0.9999999999992977,2146.0666674007084,1.2716095745200224,256,2026-10-07 21:47:00.139244,25.0,0.045796109494391814,0.8382762439199505,0.3305286889400857
0314,cdot_cos,R,Q-R,257,51,44082,0.11080139490170944,0.10110827642760822,0.14623936471253857,0.9748146314323686,840.0,8.600558226706108,0.6309946021569773,10.115620635232167,-0.27072270297902346,0.027,0.9999999999992967,-181.37594457959415,1.276576684918185,257,2026-10-07 21:47:00.166244,25.0,0.4696267778495634,2.156064047569328,3.489691330481003
0314,cdot_cos,S,R-S,258,51,44140,0.006593204182932103,-0.14644655888676428,-0.10420819071877734,0.0688042005830788,840.0,8.622764019351864,0.6310741741808941,10.136559828268373,-0.06423136609642557,0.058,0.999999999999282,2595.024315313211,1.28154385630921,258,2026-10-07 21:47:00.224244,25.0,0.0401631523720838,0.42659242607177705,0.38285849389235543
0314,cdot_cos,T,S-T,259,51,44388,-0.06860121539919727,0.01567274204817704,-0.07519441958212937,0.1324048988211711,840.0,8.650042948130434,0.6312272803190107,10.15864934541067,-0.0791187159550414,0.248,0.9999999999992687,-97.23548671366373,1.286511397177365,259,2026-10-07 21:47:00.472243,25.0,0.8284782413711989,0.24618770961124598,0.10999568055874807
0314,cdot_cos,P,T-P,260,52,44825,0.0791105389817208,-0.0035413087460056387,0.14771175438091805,0.9757027275766322,838.0,8.744873123319042,0.6323547156294695,10.196421227384716,-0.27663236999777213,0.437,0.9999999999992677,-175.18845845118898,1.291479312529555,260,2026-10-07 21:47:00.909244,25.0,0.4896848377807514,0.1360845763445064,0.2170026892187837
0314,cdot_cos,Q,P-Q,261,52,44895,-0.012929820005070857,-0.00679878403559417,-0.09204035898679165,0.0910394326360322,838.0,8.768980867855532,0.6324598391359505,10.217709514757866,-0.07079792475154117,0.07,0.9999999999992504,1958.024918846532,1.2964465063243333,261,2026-10-07 21:47:00.979244,25.0,0.05462020583846412,0.8536264647190197,0.34439635052128736
0314,cdot_cos,R,Q-R,262,52,44923,0.13851988829137063,0.12887713175029367,0.1514497082964415,0.9778223440384457,838.0,8.864380828379705,0.6335881378082047,10.255528076368746,-0.28171126230827126,0.028,0.9999999999992495,-186.93041367792924,1.301413617669892,262,2026-10-07 21:47:01.007244,25.0,0.47298755059104053,2.0482079499506103,3.4071414472918806
0314,cdot_cos,S,R-S,263,52,44977,-0.0008241004256109147,-0.0017686198231713877,-0.13934398871698153,0.029782487937591008,838.0,8.883680513052767,0.6336224805914334,10.275637990756902,-0.057359458374904464,0.054,0.9999999999992337,6532.720497311182,1.3063807822647724,263,2026-10-07 21:47:01.061243,25.0,0.020013853185787987,0.33496968388012927,0.35740156801965806
0314,cdot_cos,T,S-T,264,52,45228,-0.3983371167479718,-0.023056812380926474,-0.39751301632236086,4.830991595304157e-05,838.0,8.900557554238759,0.633622536297462,10.295155803939126,-0.050261504487927586,0.251,0.9999999999992174,127418.05634814843,1.3113483439735274,264,2026-10-07 21:47:01.312243,25.0,0.8682978465946262,0.2282425424943819,0.06723920791232042
0314,cdot_cos,P,T-P,265,53,45663,0.09613310469582426,-0.009542462309819057,0.49447022144379604,0.9999957208656146,840.0,8.998258269384946,0.6347748613326272,10.333394412926193,-0.2924467188910303,0.435,0.9999999999992164,-210.17092140881175,1.3163162830449036,265,2026-10-07 21:47:01.747243,25.0,0.4368634998481257,0.13795054505610774,0.2245993451636489
0314,cdot_cos,Q,P-Q,266,53,45732,-0.009808764825091581,-0.0049948747846217095,-0.10594186952091583,0.06607863702373606,840.0,9.020574528437573,0.6348509515418039,10.354114310355532,-0.06724104847560136,0.069,0.9999999999991983,2959.7194284519387,1.3212834766180332,266,2026-10-07 21:47:01.816243,25.0,0.035111414113755096,0.8596945928714622,0.3234240442409632
0314,cdot_cos,R,Q-R,267,53,45758,0.14204534483502151,0.1293733476022132,0.1518541096601131,0.97804053240907,840.0,9.116896123201208,0.6359763856239201,10.391948426430647,-0.2917529493747884,0.026,0.9999999999991975,-199.48916108621074,1.3262505826893152,267,2026-10-07 21:47:01.842243,25.0,0.46323192043438444,2.222931946987237,3.704676721678282
0314,cdot_cos,S,R-S,268,53,45812,-0.0009912551622739646,-0.002161690857221225,-0.14303659999729548,0.027227705268458018,840.0,9.136166989680909,0.636007695412561,10.411903366985701,-0.0587402894895869,0.054,0.9999999999991805,7442.166491700864,1.3312177480145315,268,2026-10-07 21:47:01.896243,25.0,0.018933383493818984,0.33619377852220667,0.3568678977722407
0314,cdot_cos,T,S-T,269,53,46047,-0.3662960944283194,0.01813406274156979,-0.36530483926604546,0.00010807025233355568,840.0,9.153205051281606,0.6360078196828307,10.43131252058882,-0.05203769252793329,0.235,0.9999999999991637,53935.643461694846,1.3361852910331193,269,2026-10-07 21:47:02.131244,25.0,0.8791473761347661,0.24607117261656214,0.07250238979020136
0314,cdot_cos,P,T-P,270,54,46503,0.07471822717477714,-0.00458890659647564,0.4410143216030965,0.9999837167620103,837.0,9.251820440810693,0.6371569248753098,10.469565453471462,-0.3026848456736936,0.456,0.999999999999163,-218.12376689814073,1.3411533022111082,270,2026-10-07 21:47:02.587244,25.0,0.4368874695340784,0.13401305684127152,0.21626181914273437
0314,cdot_cos,Q,P-Q,271,54,46573,-0.023346561673753315,-0.010866680864927378,-0.09806478884853045,0.07932018276022629,837.0,9.275424959120846,0.6372480067610314,10.490435334652762,-0.07292370972649555,0.07,0.9999999999991445,2522.5777236264476,1.3461204996468887,271,2026-10-07 21:47:02.657243,25.0,0.04282190380815666,0.8613671529754388,0.33720740443075364
0314,cdot_cos,R,Q-R,272,54,46601,0.12353838962558938,0.11536559117727231,0.1468849512993427,0.9752078554526064,837.0,9.372411842227255,0.6383670130687791,10.528227692764702,-0.30117869125979857,0.028,0.9999999999991429,-203.98006691556535,1.3510876086745018,272,2026-10-07 21:47:02.685244,25.0,0.4686625494222493,2.0915588849336673,3.4638172538003102
0314,cdot_cos,S,R-S,273,54,46656,-0.00834495738015319,-0.05211959532574879,-0.13188334700574258,0.03567137198151063,837.0,9.392552256677131,0.6384079159758326,10.54823911199772,-0.06293291087805407,0.055,0.9999999999991256,5824.666204535076,1.3560547768520332,273,2026-10-07 21:47:02.740243,25.0,0.022692734265816725,0.3495045668302055,0.3661893536341216
0314,cdot_cos,T,S-T,274,54,46905,-0.17970147871679515,0.04185586485990981,-0.17135652133664195,0.013601061515177976,837.0,9.410857344578577,0.6384235112299649,10.567798729722691,-0.0573141698313549,0.249,0.9999999999991078,360.2853149446222,1.361022363930748,274,2026-10-07 21:47:02.989243,25.0,0.9066180193478391,0.23634484946115838,0.07351440924275468
0314,cdot_cos,P,T-P,275,55,47340,0.07700323426518255,-0.0051680881022367715,0.2567047129819777,0.9983701202404116,842.0,9.510251991708788,0.6395674644283986,10.60603594195004,-0.3127261782241699,0.435,0.999999999999107,-223.2713792334468,1.3659903593761125,275,2026-10-07 21:47:03.424243,25.0,0.44187541467964514,0.1415482351975871,0.22849344167864588
0314,cdot_cos,Q,P-Q,276,55,47411,-0.02153020407414144,-0.010140533518233958,-0.09853343833932399,0.07846876979841344,842.0,9.534004309200478,0.6396573086392351,10.626795063845393,-0.07521033980836306,0.071,0.9999999999990877,2643.6409892690217,1.3709575609168894,276,2026-10-07 21:47:03.495244,25.0,0.04250978143026896,0.8557435194807069,0.33453968298154685
0314,cdot_cos,R,Q-R,277,55,47437,0.12314968063266653,0.11465334757077263,0.14467988470680798,0.9738395318847961,842.0,9.631767571475049,0.6407715079471259,10.664573079654359,-0.31111450104915184,0.026,0.9999999999990862,-211.72528071962134,1.3759246643545906,277,2026-10-07 21:47:03.521244,25.0,0.46848316429049264,2.276551240407641,3.7601254720988675
0314,cdot_cos,S,R-S,278,55,47491,-0.0048040793949263244,-0.03326762182911442,-0.12795376002759284,0.039209248277942685,842.0,9.652384973701675,0.6408163367468012,10.684553300263183,-0.06601295084484722,0.054,0.9999999999990681,5467.501962572762,1.380891831156833,278,2026-10-07 21:47:03.575244,25.0,0.024405877807836002,0.3564708707099688,0.38180374493753294
0314,cdot_cos,T,S-T,279,55,47743,-0.20618357168809168,0.05313260328539613,-0.20137949229316535,0.006467434662055699,842.0,9.670266425511725,0.6408237308714968,10.703876388568794,-0.05736675052480249,0.252,0.9999999999990498,1169.3338530180588,1.3858594400640023,279,2026-10-07 21:47:03.827244,25.0,0.8600902336746318,0.2346587772148679,0.07095814210337244
0314,cdot_cos,P,T-P,280,56,48182,0.09456636786375278,-0.0043701671077660134,0.3007499395518445,0.9994574830088797,856.0,9.770652997417969,0.6419655903832845,10.742148930609122,-0.3235737038807183,0.439,0.9999999999990489,-233.13459371122048,1.3908274733715578,280,2026-10-07 21:47:04.266243,25.0,0.439240200861799,0.14098326857089913,0.22867100662014478
0314,cdot_cos,Q,P-Q,281,56,48254,-0.007917393832579696,-0.004508434163001049,-0.10248376169633247,0.07161818647418654,856.0,9.794049735316975,0.6420473510520108,10.762685132131207,-0.07588669896358298,0.072,0.9999999999990282,3029.4151060110585,1.3957946791203042,281,2026-10-07 21:47:04.338243,25.0,0.038238769155425394,0.8482445857302463,0.32495469304174823
0314,cdot_cos,R,Q-R,282,56,48281,0.13885271558145348,0.13111661187540383,0.14677010941403318,0.9751383459402976,856.0,9.892800217763124,0.643159763541556,10.800499402222792,-0.3218491827137326,0.027,0.9999999999990266,-221.10726557080602,1.400761783464733,282,2026-10-07 21:47:04.365243,25.0,0.46569862273647994,2.1997044421780676,3.6574252757833183
0314,cdot_cos,S,R-S,283,56,48330,-0.00015989993163557193,-0.0003095510720454453,-0.13901261551308905,0.030022802482046366,856.0,9.91283377519459,0.6431939883618606,10.82020801371485,-0.06568488826685896,0.049,0.9999999999990079,7484.752064940458,1.4057289394337824,283,2026-10-07 21:47:04.414243,25.0,0.0202439977800233,0.38306031298635984,0.4088481108462462
0314,cdot_cos,T,S-T,284,56,48582,-0.37072649453758133,0.033552555492517046,-0.37056659460594576,9.47508616132638e-05,856.0,9.930340128435788,0.6431940963718225,10.83930995707398,-0.05750762737766125,0.252,0.999999999998988,75708.39530102498,1.4106965636590298,284,2026-10-07 21:47:04.666244,25.0,0.867452632666212,0.2357711174691157,0.06946965571903652
0314,cdot_cos,P,T-P,285,57,49038,0.07773296796811875,-0.005359548988820827,0.44845946250570007,0.9999864821575282,851.0,10.031662418399025,0.6443332048074155,10.877607010675117,-0.3343545190237823,0.456,0.9999999999989874,-243.03822445313074,1.4156646656546956,285,2026-10-07 21:47:05.122243,25.0,0.43692049358532964,0.13703291760047892,0.22219800430534453
0314,cdot_cos,Q,P-Q,286,57,49107,-0.0243933589108009,-0.01122912682103712,-0.10212632687891965,0.07221460285073175,851.0,10.055314149287424,0.6444154031210275,10.898064278062149,-0.0785291337593893,0.069,0.9999999999989657,3112.2948150974726,1.4206318662521795,286,2026-10-07 21:47:05.191243,25.0,0.03847629013787213,0.8929773972827759,0.3427787085275314
0314,cdot_cos,R,Q-R,287,57,49135,0.12157144538549232,0.11004208922997609,0.14596480429629322,0.9746455623064955,851.0,10.154893299224048,0.645523959335702,10.935880353103936,-0.3321870415892988,0.028,0.999999999998964,-228.81826331595317,1.4255989715364896,287,2026-10-07 21:47:05.219244,25.0,0.4659860190223937,2.154132774174216,3.5563982120222652
0314,cdot_cos,S,R-S,288,57,49191,-0.005495526281693546,-0.06482050403754887,-0.12706697166718586,0.04005300791463122,851.0,10.17594558464118,0.6455694820709202,10.955688374924028,-0.07064365082131062,0.056,0.9999999999989447,5745.335589212928,1.430566144389722,288,2026-10-07 21:47:05.275244,25.0,0.024666936392321755,0.37285366173384865,0.3759336681630833
0314,cdot_cos,T,S-T,289,57,49442,-0.1367789786296343,0.03995873071105734,-0.13128345234794075,0.03619087318484749,851.0,10.196652909338239,0.6456106129821965,10.975391422281223,-0.06962517158922742,0.251,0.9999999999989249,24.761893196176366,1.435533781794856,289,2026-10-07 21:47:05.526243,25.0,0.9854784379635292,0.24400171833346784,0.08249930158190591
0314,cdot_cos,P,T-P,290,58,49889,0.07403683270479712,-0.0030012248589712637,0.21081581133443145,0.9948847228044786,863.0,10.298434447244581,0.6467404541359022,11.013604263936411,-0.3437850255277879,0.447,0.9999999999989236,-242.65345003530012,1.4405018935018719,290,2026-10-07 21:47:05.973243,25.0,0.45046509654377176,0.1417571857357468,0.2276991899470749
0314,cdot_cos,Q,P-Q,291,58,49964,-0.020984730650773456,-0.01039919364493292,-0.09502156335557058,0.08505708283270552,863.0,10.323383833385996,0.6468369734043687,11.03422375373439,-0.08478154377750158,0.075,0.9999999999989017,2683.4380934006317,1.4454691104401665,291,2026-10-07 21:47:06.048243,25.0,0.04712501883142517,0.8330553453042219,0.3326584818855357
0314,cdot_cos,R,Q-R,292,58,49988,0.11732123887841124,0.10875163138787645,0.1383059695291847,0.969458440324489,863.0,10.423392749040215,0.6479362272261766,11.071950711126444,-0.3414186008377593,0.024,0.9999999999988997,-233.4647849012566,1.4504362046149284,292,2026-10-07 21:47:06.072243,25.0,0.4715743017524549,2.5286531820112312,4.167038152259088
0314,cdot_cos,S,R-S,293,58,50046,-0.008206625327229312,-0.049072988723588826,-0.12552786420564055,0.04155889231847321,863.0,10.444759186122536,0.6479833152902548,11.091699326297128,-0.07336478519547465,0.058,0.9999999999988795,5692.606415021646,1.455403383232865,293,2026-10-07 21:47:06.130244,25.0,0.02589482163586784,0.34392347205946316,0.36838684624691376
0314,cdot_cos,T,S-T,294,58,50300,-0.19879354975690122,0.061157817419276256,-0.1905869244296719,0.008453602076754465,863.0,10.463287871799112,0.6479928932434181,11.1107752604942,-0.06374179448240021,0.254,0.9999999999988582,1004.7022102678793,1.460371043759087,294,2026-10-07 21:47:06.384243,25.0,0.8598749513918245,0.23933558519034387,0.07294758140384539
0314,cdot_cos,P,T-P,295,59,50752,0.10766017890082352,-0.009169926476245706,0.30645372865772474,0.9995295466626003,862.0,10.56634166339923,0.6491245219896669,11.149091638814722,-0.3560580826498131,0.452,0.9999999999988569,-258.31465410932884,1.4653391985397979,295,2026-10-07 21:47:06.836244,25.0,0.44000058462960123,0.13943078149799648,0.227995114159553
0314,cdot_cos,Q,P-Q,296,59,50823,-0.0026627944580468713,-0.0015055265556978366,-0.1103229733588704,0.05963225858418454,862.0,10.589333298273301,0.6491919825028207,11.169133433992496,-0.0799068206408816,0.071,0.9999999999988333,4093.524479706418,1.4703064076090993,296,2026-10-07 21:47:06.907244,25.0,0.031558382824580684,0.8280017192391714,0.3238258432967726
0314,cdot_cos,R,Q-R,297,59,50849,0.08354264910861701,0.25671621545063655,0.08620544356666389,0.8961477505755427,862.0,10.683917907531193,0.65020505325444,11.2054432604396,-0.33011284678147906,0.026,0.9999999999988299,-246.9778401367064,1.4752735050342363,297,2026-10-07 21:47:06.933243,25.0,0.4686303939692897,2.21307339488525,3.6378695868419797
0314,cdot_cos,S,R-S,298,59,50908,-0.05628409050458537,0.31354435688735627,-0.13982673961320238,0.0294357268888648,862.0,10.704413114807334,0.6502383066219855,11.224865815731139,-0.07191483670518471,0.059,0.9999999999988082,7764.5672945273745,1.480240686854691,298,2026-10-07 21:47:06.992243,25.0,0.027589218949107507,0.3258344515190269,0.34737639451087315
0314,cdot_cos,T,S-T,299,59,51156,-0.42851508939733723,0.01198258579836762,-0.37223099889275185,9.088951899913149e-05,862.0,10.722366372810438,0.6502384092970781,11.24368550072892,-0.06310873141491674,0.248,0.9999999999987854,85766.71384425159,1.4852083471377875,299,2026-10-07 21:47:07.240243,25.0,0.8697594324646785,0.2457715754031395,0.07239216936735345
0314,cdot_cos,P,T-P,300,60,51614,0.08064599412761274,-0.0041176210155844896,0.5091610835249499,0.9999970361754678,860.0,10.826315816207291,0.6513672303936161,11.2820238901921,-0.36692828656128335,0.458,0.9999999999987842,-269.14765863089843,1.4901765466918862,300,2026-10-07 21:47:07.698244,25.0,0.4369187640591974,0.14025461634155542,0.22696385021147056
0314,cdot_cos,Q,P-Q,301,60,51684,-0.019646459091401607,-0.009157988110315816,-0.10029245321901434,0.07534721538049534,860.0,10.850839601379302,0.6514522155828412,11.302286456922637,-0.08707211929130053,0.07,0.9999999999987602,3292.9992840147006,1.4951437547806752,301,2026-10-07 21:47:07.768243,25.0,0.040192566027953604,0.906557162220954,0.3503397881715894
0314,cdot_cos,R,Q-R,302,60,51711,0.13135800252803054,0.11792488601952832,0.15100446161943215,0.9775796674717498,860.0,10.953233818918225,0.6525539666081583,11.34019184949114,-0.36514137187000034,0.027,0.999999999998758,-252.3884672570629,1.50011085314636,302,2026-10-07 21:47:07.795244,25.0,0.46694742430992164,2.283318302700471,3.7923784273674928
0314,cdot_cos,S,R-S,303,60,51767,-0.0047429314441587165,-0.014257627992987286,-0.13610093397218925,0.032216696808148024,860.0,10.974138789725128,0.6525902477321834,11.359583009748437,-0.07496580901002656,0.056,0.9999999999987357,7997.976100720189,1.5050780280829943,303,2026-10-07 21:47:07.851244,25.0,0.02084227064636866,0.3488467835787157,0.37330305012327003
0314,cdot_cos,T,S-T,304,60,52014,-0.288637102062448,0.03414574246483853,-0.2838941706182893,0.0008266069778755214,860.0,10.992304658679041,0.6525911785997839,11.37832899865296,-0.06525931426055358,0.247,0.999999999998712,10427.363402509747,1.5100457013253692,304,2026-10-07 21:47:08.098243,25.0,0.861795471620035,0.2489288856196258,0.07354602815349406
0314,cdot_cos,P,T-P,305,61,52474,0.08351044620467617,-0.004836518239040871,0.3721475482671242,0.9999089206806727,858.0,11.097109659221223,0.6537163511042736,11.416678467455357,-0.37803474067486587,0.46,0.9999999999987109,-277.97997655137834,1.5150139380418985,305,2026-10-07 21:47:08.558244,25.0,0.4371966534971366,0.14118806346562435,0.2278369577003959
0314,cdot_cos,Q,P-Q,306,61,52544,-0.014447337105752803,-0.007351944732910289,-0.09795778331042897,0.07951576407163727,858.0,11.122197677067415,0.6538057546477262,11.436943355642738,-0.09101434873050687,0.07,0.9999999999986858,3210.391678677663,1.519981147918918,306,2026-10-07 21:47:08.628243,25.0,0.04269928981136462,0.9124568252695728,0.3584002549456043
0314,cdot_cos,R,Q-R,307,61,52572,0.12582574391509613,0.11427383010171313,0.14027308102084893,0.9708813958176612,858.0,11.224853614758963,0.6548964876320369,11.474727120444152,-0.3739990520424041,0.028,0.9999999999986839,-259.44452710461053,1.5249482474080918,307,2026-10-07 21:47:08.656243,25.0,0.4692378437406738,2.2147475211670944,3.666283488983854
0314,cdot_cos,S,R-S,308,61,52626,-0.006140966538017897,-0.023646239875664242,-0.13196671045311403,0.03559975099036125,858.0,11.246223538252773,0.6549364511433042,11.494101747315497,-0.07828338218551495,0.054,0.9999999999986603,7399.641835240245,1.5299154176935343,308,2026-10-07 21:47:08.710243,25.0,0.022879762935858545,0.3677841946683109,0.39573932395943323
0314,cdot_cos,T,S-T,309,61,52877,-0.2736537668479212,0.029049765990933847,-0.2675128003099033,0.001244445501976822,858.0,11.26457430778314,0.6549378480913285,11.512770449818722,-0.06734217270652945,0.251,0.999999999998636,7832.223739895011,1.5348831173290582,309,2026-10-07 21:47:08.961244,25.0,0.850039992053706,0.24703286960338205,0.0731106355791561
0314,cdot_cos,P,T-P,310,62,53332,0.09138711466094016,-0.006528464568015437,0.3650408815088614,0.9998912143177666,856.0,11.37023403879367,0.6560594061042837,11.551131740295704,-0.389275503708561,0.455,0.9999999999986341,-287.04117600993567,1.5398513728660737,310,2026-10-07 21:47:09.416243,25.0,0.4373566014411195,0.14318893572725314,0.232219189034131
0314,cdot_cos,Q,P-Q,311,62,53401,-0.010805712160142615,-0.005656556215927561,-0.10219282682108277,0.07210329520966462,856.0,11.394876239294941,0.6561402158933709,11.571173116718205,-0.09130019524477599,0.069,0.9999999999986086,3687.366491480983,1.5448185818239775,311,2026-10-07 21:47:09.485244,25.0,0.03824710042991901,0.9312836345670109,0.3571333405981268
0314,cdot_cos,R,Q-R,312,62,53429,0.1362260668744487,0.12221322770228478,0.1470317790345913,0.9752964489833114,856.0,11.498751180363918,0.6572323902896907,11.609053008981912,-0.3864455150611998,0.028,0.9999999999986059,-270.2364391721183,1.5497856798497829,312,2026-10-07 21:47:09.513243,25.0,0.465918906650832,2.2322221815098366,3.7098193238920274
0314,cdot_cos,S,R-S,313,62,53485,-0.0015769732896416752,-0.0032882805017606033,-0.13780304016409037,0.030916043205432973,856.0,11.519880681459492,0.6572669841229505,11.628254387281473,-0.07903345896620423,0.056,0.999999999998582,8886.32531083297,1.5547528562518467,313,2026-10-07 21:47:09.569243,25.0,0.020452616398146998,0.35450288938917596,0.37731251956382317
0314,cdot_cos,T,S-T,314,62,53732,-0.24764402236659638,0.0841096425937601,-0.2460670490769547,0.002125381697356905,856.0,11.538455503975506,0.6572693622798823,11.646857215124623,-0.0695974769121407,0.247,0.9999999999985568,3967.7709775100907,1.559720560875915,314,2026-10-07 21:47:09.816243,25.0,0.8732098537537215,0.2531684697926483,0.07520171059114823
0314,cdot_cos,P,T-P,315,63,54188,0.07552745697545589,-0.00496852697645314,0.32317147934205226,0.9996902040885517,847.0,11.64494590553706,0.6583870703145497,11.685225967616281,-0.4005413320355431,0.456,0.9999999999985548,-296.0915058840834,1.5646888514076667,315,2026-10-07 21:47:10.272243,25.0,0.4376912786542969,0.14461766046657024,0.23353158237183036
0314,cdot_cos,Q,P-Q,316,63,54259,-0.02300013180568795,-0.01091192826336353,-0.09852758878114384,0.0784793451970543,847.0,11.670346810321018,0.6584747402485958,11.705318140425565,-0.09607190665385242,0.071,0.9999999999985274,3472.9058336199505,1.5696560677305391,316,2026-10-07 21:47:10.343244,25.0,0.04203794110104313,0.9158471746742362,0.3577592223092592
0314,cdot_cos,R,Q-R,317,63,54286,0.12301876745465062,0.11399252211273607,0.14601889926033856,0.9746789601779273,847.0,11.774996204340802,0.659562658218322,11.743194418163498,-0.39740256846366945,0.027,0.9999999999985258,-276.9792118477721,1.5746231614435164,317,2026-10-07 21:47:10.370244,25.0,0.46848536613390174,2.3471375925579485,3.875903482214227
0314,cdot_cos,S,R-S,318,63,54344,-0.004160816107279295,-0.05556345429022269,-0.12717958356192993,0.039944903263957436,847.0,11.797092240319147,0.6596072081875339,11.762496642703448,-0.08435729347257868,0.058,0.9999999999984996,7026.834822314448,1.5795903442996762,318,2026-10-07 21:47:10.428244,25.0,0.02445440335408968,0.3605044153212056,0.3809661375576739
0314,cdot_cos,T,S-T,319,63,54593,-0.17614569138749456,0.04683147769175586,-0.17198487528021525,0.013391912818829777,847.0,11.816814716518062,0.6596221433614713,11.781243383952503,-0.07542760629285392,0.249,0.9999999999984748,597.8964300769491,1.584558070681068,319,2026-10-07 21:47:10.677243,25.0,0.8883517326507714,0.2548862867931086,0.07920673172254925
0314,cdot_cos,P,T-P,320,64,55035,0.07856739433301246,-0.004727999111078095,0.254713085720507,0.998287055665555,847.0,11.924025611142115,0.6607345767095092,11.8195948482766,-0.4115719233967571,0.442,0.9999999999984728,-302.17029873905835,1.589526354057758,320,2026-10-07 21:47:11.119244,25.0,0.4418729563382066,0.15027675748093064,0.24255858512229256
0314,cdot_cos,Q,P-Q,321,64,55106,-0.01976866137873649,-0.009876848982331527,-0.09833605571174896,0.07882633830341462,847.0,11.949659370131204,0.660822340866444,11.83962142053801,-0.09894369007349253,0.071,0.9999999999984449,3562.1402203584826,1.594493572445121,321,2026-10-07 21:47:11.190243,25.0,0.042440248261376455,0.9211255753807915,0.3610388590012588
0314,cdot_cos,R,Q-R,322,64,55133,0.12099092281473686,0.11403181772596402,0.14075958419347334,0.9712232783623208,847.0,12.054825442846187,0.6619027790382999,11.877436632958812,-0.40751906900104956,0.027,0.9999999999984426,-285.6020704984108,1.5994606646853318,322,2026-10-07 21:47:11.217243,25.0,0.46897549553884776,2.3603201429126734,3.895039730184556
0314,cdot_cos,S,R-S,323,64,55183,-0.005941227216423661,-0.0415219582053107,-0.1269321500311605,0.04018280214109869,847.0,12.077116657848489,0.6619474441602164,11.89666827098061,-0.08683167973974469,0.05,0.999999999998416,7179.816722770695,1.604427825190838,323,2026-10-07 21:47:11.267244,25.0,0.02489203885470027,0.4105457182064498,0.44582430004602713
0314,cdot_cos,T,S-T,324,64,55432,-0.28541007499842785,0.009906743376132707,-0.2794688477820042,0.0009232183007114046,847.0,12.095880014666832,0.6619484703279395,11.915088412933468,-0.0732137511858111,0.249,0.9999999999983886,13270.665456026063,1.6093955680556724,324,2026-10-07 21:47:11.516243,25.0,0.830271657664547,0.25493157626980223,0.07535484666001456
0314,cdot_cos,P,T-P,325,65,55882,0.09287551346678101,-0.004832077931373129,0.3782855884652089,0.9999218763584582,845.0,12.20407258283085,0.6630589985838162,11.95348226978935,-0.42369463409644137,0.45,0.9999999999983878,-315.59834795371785,1.6143639070506728,325,2026-10-07 21:47:11.966244,25.0,0.43727123180599076,0.14834711937807732,0.2404279292533731
0314,cdot_cos,Q,P-Q,326,65,55955,-0.008719984271038048,-0.0048614268694037585,-0.10159549773781906,0.07310880032741694,845.0,12.229392422107102,0.6631401239196459,11.973323334294577,-0.09968848296599636,0.073,0.9999999999983591,3993.895961312939,1.6193311333930445,326,2026-10-07 21:47:12.039244,25.0,0.038766981164934225,0.9009860090847863,0.346847113373311
0314,cdot_cos,R,Q-R,327,65,55981,0.13613236342040505,0.13010817395040983,0.1448523476914431,0.9739491498636036,845.0,12.335616540157229,0.6642199503138698,12.011199925756015,-0.4198082048437648,0.026,0.9999999999983563,-296.45480383710424,1.6242982211147754,327,2026-10-07 21:47:12.065243,25.0,0.46648098015338846,2.4599876946813137,4.085543001927966
0314,cdot_cos,S,R-S,328,65,56036,-0.0006911167323457865,-0.0016906881100458824,-0.13682348015275084,0.031658228250840414,845.0,12.35731178223053,0.6642550213607261,12.03018679716606,-0.08618385855705077,0.055,0.9999999999983284,9512.814021599072,1.6292653969846633,328,2026-10-07 21:47:12.120243,25.0,0.020835918588027788,0.36859579840043855,0.3944589467872946
0314,cdot_cos,T,S-T,329,65,56291,-0.32488716636390197,0.017282453230606287,-0.3241960496315562,0.0003019638498496208,845.0,12.376162077981277,0.6642553558681444,12.048517621042384,-0.07500530599763178,0.255,0.9999999999983004,33417.951134091134,1.6342331742152891,329,2026-10-07 21:47:12.375243,25.0,0.861537389402193,0.25073693736170194,0.0739227284343021
0314,cdot_cos,P,T-P,330,66,56727,0.0923462318894053,-0.007562974909980867,0.4172333982533073,0.9999704924520405,824.0,12.485187620284998,0.6653621906761674,12.086921418098456,-0.4353415593856029,0.436,0.9999999999982992,-325.5555849671914,1.6392015034103515,330,2026-10-07 21:47:12.811244,25.0,0.43704929334554454,0.15298403912305011,0.2500585832654151
0314,cdot_cos,Q,P-Q,331,66,56796,-0.01732693700517264,-0.008794219764495006,-0.10967316889457794,0.06054976707737672,824.0,12.509564160096577,0.6654291530030091,12.106439812867507,-0.09784873387245391,0.069,0.999999999998268,5040.040294763737,1.6441687197415205,331,2026-10-07 21:47:12.880243,25.0,0.03177332488246189,0.9528319663177087,0.35328318567505396
0314,cdot_cos,R,Q-R,332,66,56824,0.12901265022084246,0.12202575819192235,0.1463395872260151,0.9748760725431134,824.0,12.616678431636842,0.6665063552691508,12.144341255010085,-0.43152978052212665,0.028,0.9999999999982665,-309.76638012918266,1.6491358120197523,332,2026-10-07 21:47:12.908243,25.0,0.46151002988680306,2.3066814989488753,3.8255096978666105
0314,cdot_cos,S,R-S,333,66,56880,-0.004974895668753468,-0.028120647546219877,-0.13398754588959594,0.03390536128421899,824.0,12.638738324037714,0.6665437882652344,12.163300241751061,-0.08932435378618513,0.056,0.9999999999982377,9141.812372475055,1.6541029917323633,333,2026-10-07 21:47:12.964243,25.0,0.021686987598747636,0.37034619103402744,0.3939266500155699
0314,cdot_cos,T,S-T,334,66,57127,-0.21652448756089124,0.050805232818167664,-0.21154959189213776,0.005022762407842915,824.0,12.658157205032653,0.6665493334352057,12.181651121110926,-0.07875893673503083,0.247,0.9999999999982088,1905.336915877687,1.6590707612329245,334,2026-10-07 21:47:13.211244,25.0,0.874459933075486,0.26155294385616373,0.07861895139651481
0314,cdot_cos,P,T-P,335,67,57551,0.07531510411142017,-0.0012466751304264514,0.29183959167231144,0.9993222064501665,837.0,12.767945478302659,0.667651674995672,12.220049875190153,-0.4468103283678675,0.424,0.9999999999982075,-333.88144367626916,1.6640390849436495,335,2026-10-07 21:47:13.635243,25.0,0.4387915903633268,0.16107178363668914,0.25893460676888147
0314,cdot_cos,Q,P-Q,336,67,57627,-0.01964032997193133,-0.010542585655450548,-0.0949554340833515,0.08518582954956325,837.0,12.794746077556566,0.6677455578997716,12.239996521795657,-0.10964207395484749,0.076,0.9999999999981767,3591.3700971079315,1.6690063252565166,336,2026-10-07 21:47:13.711244,25.0,0.0461816766290834,0.8829249487887098,0.3526394638671928
0314,cdot_cos,R,Q-R,337,67,57652,0.11834809593905637,0.12081548832653186,0.1379884259109877,0.9692225103695501,837.0,12.902150070518543,0.6688127937608185,12.277789125029594,-0.44098439394376027,0.025,0.9999999999981745,-310.4677532704919,1.6739734067662602,337,2026-10-07 21:47:13.736243,25.0,0.47171998639106427,2.6082362714448593,4.296159718479089
0314,cdot_cos,S,R-S,338,67,57701,-0.006262428476207732,-0.02905516810598126,-0.1246105244152641,0.04248203875112245,837.0,12.925157891128809,0.6688595322357637,12.29685118737948,-0.09493934570518044,0.049,0.9999999999981455,7403.8583553362205,1.6789405653372556,338,2026-10-07 21:47:13.785243,25.0,0.026123849575986124,0.4315935575206781,0.4695473593931783
