record_id,input,event,transition,event_index,k,peak,value_cos,value_sin,value_return,x_input,rr,knowledge,decision,decision_norm,entropy,delta_t,cosine_similarity,delta_h_over_delta_d,frobenius_norm,matrix_size,timestamp,scale,P,zdot,zdot_back
0897,cdot_cos,Q,P-Q,1,0,1546,-0.0035541871515718357,-0.005947068740050779,-0.029001411231636257,0.03595880554596435,778.0,0.00017861247640059297,0.5000446531189814,0.5000446531189814,,,1.0,,0.004967141530112327,1,2026-10-07 21:01:17.630244,113.4,,,
0897,cdot_cos,R,Q-R,2,0,1564,0.025036264911980737,0.06295887087741352,0.028590452063552572,0.9623902701105229,778.0,0.007013001836754177,0.5012397327482794,0.7088600280528823,-8.863555886900299e-06,,1.0000000000000002,,0.009934283060224654,2,2026-10-07 21:01:17.648243,113.4,,,
0897,cdot_cos,S,R-S,3,0,1588,-0.005965503784085498,-0.07018935739751994,-0.031001768696066235,0.02887159190355363,778.0,0.008837530197377227,0.5012755848422288,0.8682347815405436,-5.215262684303626e-06,0.024,0.9999999999999999,0.10175955713339994,0.014901424593173654,3,2026-10-07 21:01:17.672243,113.4,0.4968129906766461,0.06649891733739502,0.07602201502596043
0897,cdot_cos,T,S-T,4,0,1857,-0.09938752434595524,-0.04149692118348397,-0.09342202056186974,2.5063894941689786e-05,778.0,0.010204949868949138,0.5012756159660046,1.0025512319320762,-4.695772608953147e-06,0.269,1.0000000000000002,16.691100689122205,0.019868566159380804,4,2026-10-07 21:01:17.941243,113.4,0.8952705568501802,0.025425296183020207,0.005083344503984798
0897,cdot_cos,P,T-P,5,1,2196,0.026044339261146923,0.0019065132173361745,0.12543186360710218,0.9999993353292275,739.0,0.0225163395438421,0.5025173820194991,1.1236630260719265,-7.264588681131429e-05,0.339,1.0,-0.05472054418876736,0.024835707781090722,5,2026-10-07 21:01:18.280244,113.4,0.392444249353981,0.02187677733822527,0.03631678370174915
0897,cdot_cos,Q,P-Q,6,1,2306,-0.004436786136482241,-0.006090126396787116,-0.030481125397629164,0.030573838439797198,739.0,0.025037404904265873,0.5025553471881763,1.2310041681208668,-2.161932016752822e-05,0.11,0.9999999999999999,1.344036347571625,0.02980284935675809,6,2026-10-07 21:01:18.390244,113.4,0.09439851513426946,0.07864581908067737,0.022918776003852486
0897,cdot_cos,R,Q-R,7,1,2339,0.026869906747573176,0.0744998405361542,0.031306692884055416,0.9720822836538179,739.0,0.03981841974159112,0.5037624159912258,1.3328300725780042,-0.00017286743933775443,0.033,1.0000000000000002,-0.12530198675345736,0.03476999089293515,7,2026-10-07 21:01:18.423244,113.4,0.41688828185231797,0.27186918820735173,0.44790954052500753
0897,cdot_cos,S,R-S,8,1,2367,-0.0039661678006874534,-0.05837979185561233,-0.03083607454826063,0.029403107943129496,739.0,0.042980771325951087,0.503798926253301,1.4249585484375185,-4.721671043644109e-05,0.028,1.0000000000000002,3.4415181310548957,0.039737132440483755,8,2026-10-07 21:01:18.451244,113.4,0.06986785723310521,0.10322177819859553,0.11294112801285586
0897,cdot_cos,T,S-T,9,1,2615,-0.06767510563338763,-0.032437302288090115,-0.06370893783270018,0.0007279183056377537,739.0,0.04559883932071247,0.5037998301194193,1.511399490364008,-4.181904946558556e-05,0.248,1.0000000000000002,5.971748317216044,0.04470427431377085,9,2026-10-07 21:01:18.699244,113.4,0.8789108368408609,0.04191577491156293,0.01055672578532817
0897,cdot_cos,P,T-P,10,2,2935,0.011949403092201978,6.132596418356312e-05,0.07962450872558961,0.9998801822972935,739.0,0.0637709956820863,0.505041369021153,1.5970810387349077,-0.00035838054089200376,0.32,1.0,-0.2549750885649739,0.049671416424890515,10,2026-10-07 21:01:19.019244,113.4,0.4134118163752175,0.0332963085954894,0.05678798862929321
0897,cdot_cos,Q,P-Q,11,2,3046,-0.04531232238022271,-0.043473517363277044,-0.05726172547242469,0.0015109876050466869,739.0,0.06690847682182569,0.5050432451526533,1.675038947110523,-7.393138843682362e-05,0.111,0.9999999999999999,151.61472019137048,0.0546385581482622,11,2026-10-07 21:01:19.130244,113.4,0.021333540360900852,0.10500213861998398,0.028265595853507967
0897,cdot_cos,R,Q-R,12,2,3082,0.021473786631760545,0.06533630086281403,0.06678610901198326,0.9994863962466299,739.0,0.08708147045572275,0.5062842328582472,1.7538200288061494,-0.000560116884367177,0.036,1.0,-0.391773015750937,0.05960569968926499,12,2026-10-07 21:01:19.166244,113.4,0.41978726273934397,0.5773910314313603,0.5603609342749184
0897,cdot_cos,S,R-S,13,2,3106,0.0708647680666842,-0.1577449656824965,0.04939098143492365,0.9963191989966784,739.0,0.10848063108488362,0.507521211043303,1.8298937498467287,-0.0007545146999702939,0.024,0.9999999999999999,-0.15715541143058911,0.0645728412381555,13,2026-10-07 21:01:19.190243,113.4,0.7728686550708919,0.531133476118233,0.8916316928817032
0897,cdot_cos,T,S-T,14,2,3374,-0.029747580249244288,-0.01941276613949401,-0.10061234831592848,1.1090170425152085e-05,739.0,0.11257587730939793,0.5075212248117983,1.8989705398245946,-0.00016321858006974446,0.268,1.0,42945.58772776348,0.06953998429775819,14,2026-10-07 21:01:19.458244,113.4,0.02670977841534669,0.05082744051059548,0.015280769494456368
0897,cdot_cos,P,T-P,15,3,3674,0.02455755723031327,0.0014484836756656191,0.05430513747955756,0.9978884149558822,759.0,0.1357241391985628,0.5087600589466509,1.9704192358574297,-0.0010362066101426602,0.3,1.0,-0.7046851596293716,0.07450712776839084,15,2026-10-07 21:01:19.758244,113.4,0.43063926071061526,0.04668586624979573,0.07716087296388291
0897,cdot_cos,Q,P-Q,16,3,3784,-0.009434063671635904,-0.013520075101676483,-0.033991620901949175,0.020741689264328553,759.0,0.14058739705927537,0.5087858077437828,2.035143231633495,-0.00024225723309623536,0.11,1.0,30.83442589489183,0.07947426991478541,16,2026-10-07 21:01:19.868243,113.4,0.03773002977906609,0.13285571025198403,0.04421143509738697
0897,cdot_cos,R,Q-R,17,3,3818,0.024203330838098502,0.06186947870790721,0.03363739450973441,0.9784265122004766,759.0,0.16495239545399928,0.5100003740891653,2.1027854122608436,-0.0013419766301628595,0.034,0.9999999999999999,-0.9054420133140335,0.08444141145047329,17,2026-10-07 21:01:19.902244,113.4,0.4406619245265944,0.44516642786690946,0.7166175998448211
0897,cdot_cos,S,R-S,18,3,3845,-0.001160264184516046,-0.09144106273347188,-0.02536359502261455,0.05334110109577052,759.0,0.1708587141542252,0.5100665856157086,2.1640292500861413,-0.0003575365248101538,0.027,0.9999999999999999,14.86810766565004,0.0894085529753219,18,2026-10-07 21:01:19.929244,113.4,0.06371104699673456,0.19680822942080897,0.2187525444528121
0897,cdot_cos,T,S-T,19,3,4113,-0.0567800088120531,-0.02534053052945933,-0.05561974462753705,0.0018196695361776545,759.0,0.17558003984272297,0.5100688443386018,2.223338547559004,-0.00029484843462666176,0.268,1.0000000000000002,27.75377642522431,0.09437569719562146,19,2026-10-07 21:01:20.197243,113.4,0.8084703801304359,0.05876075446990016,0.01761688689737969
0897,cdot_cos,P,T-P,20,4,4433,0.03635174575685451,-0.0009118899311729954,0.0931317545689076,0.9999740973912673,760.0,0.2023544785500917,0.5113100293657679,2.286647967782575,-0.0018238924088682744,0.32,0.9999999999999999,-1.2319226712980755,0.09934284232531014,20,2026-10-07 21:01:20.517244,113.4,0.4324272809666782,0.049977271045833355,0.08367012096052728
0897,cdot_cos,Q,P-Q,21,4,4543,-0.004725251011548546,-0.0060826178908291425,-0.041076996768403054,0.009395063297031233,760.0,0.20756549331205632,0.5113216900424398,2.343170350964712,-0.00038501992399584767,0.11,0.9999999999999998,123.39528188262412,0.10430998484927011,21,2026-10-07 21:01:20.627244,113.4,0.023822191178239402,0.15026123361724716,0.0473728614724056
0897,cdot_cos,R,Q-R,22,4,4569,0.032525950942402564,0.06579976613689825,0.03725120195395111,0.985575339592407,760.0,0.23541194994588607,0.5125448653474186,2.4040485161112928,-0.0022231186015258856,0.026,0.9999999999999998,-1.5027270989270296,0.10927712620935003,22,2026-10-07 21:01:20.653243,113.4,0.437442113643411,0.6406703938318835,1.0710175628396061
0897,cdot_cos,S,R-S,23,4,4601,-0.010608108938800282,-0.059462401301873316,-0.04313405988120285,0.007454889104473622,760.0,0.24088035379131426,0.5125541168879725,2.4581231932574856,-0.0004694018751652288,0.032,1.0,189.55942701105766,0.11424426775188516,23,2026-10-07 21:01:20.685244,113.4,0.023847718543093362,0.16639406447434496,0.1708876201696307
0897,cdot_cos,T,S-T,24,4,4853,-0.1611238909733024,-0.05678033791200634,-0.1505157820345021,3.8658865028448266e-08,760.0,0.24606117007224415,0.5125541169359483,2.510992106232997,-0.0004546588808742466,0.252,0.9999999999999998,307300.353576685,0.11921141316403003,24,2026-10-07 21:01:20.937243,113.4,0.9680936061624293,0.06962398065067704,0.020558794765594822
0897,cdot_cos,P,T-P,25,5,5193,0.02734597016705203,0.002074238431512419,0.18846986114035444,0.999999999477545,758.0,0.2759708400392555,0.5137950395343227,2.5689752004165465,-0.002813601524388739,0.34,1.0,-1.900958727486084,0.12417856058145398,25,2026-10-07 21:01:21.277244,113.4,0.43239887390790255,0.0530441781985531,0.08796961755003332
0897,cdot_cos,Q,P-Q,26,5,5303,-0.004116209891737469,-0.005352470409663006,-0.0314621800587895,0.027443169230524454,758.0,0.28213121124726026,0.5138290920556373,2.620024570655584,-0.0006195447790608047,0.11,1.0,64.43155045869214,0.12914570358886557,26,2026-10-07 21:01:21.387244,113.4,0.028972696403895166,0.1656951808206267,0.05600337461822525
0897,cdot_cos,R,Q-R,27,5,5339,0.02524917315143051,0.06817546865532552,0.029365383043167978,0.9654449185890287,758.0,0.31242377981979336,0.51502696859759,2.6761586345235204,-0.003245041324456192,0.036,0.9999999999999994,-2.191792270274776,0.13411284507157675,27,2026-10-07 21:01:21.423244,113.4,0.4452677283326385,0.5132187355185794,0.8414602381259194
0897,cdot_cos,S,R-S,28,5,5364,-0.0039376587883279066,-0.06558723090401578,-0.029186831939758417,0.03523696826335115,758.0,0.319082960204598,0.5150706857117997,2.72549788795854,-0.0007576848167153362,0.025,0.9999999999999999,56.89663082082372,0.1390799863853776,28,2026-10-07 21:01:21.448243,113.4,0.03752161923416849,0.24616177778480686,0.2663672153921848
0897,cdot_cos,T,S-T,29,5,5632,-0.09397416594518153,-0.04333677180309967,-0.09003650715685363,3.679396553621805e-05,758.0,0.3247318687090337,0.5150707313604985,2.773740779664112,-0.0006552625215777027,0.268,0.9999999999999997,2243.706782078466,0.14404713390935153,29,2026-10-07 21:01:21.716243,113.4,0.8552963440536658,0.07165377892815962,0.02107801680759598
0897,cdot_cos,P,T-P,30,6,5951,0.032887596820020355,0.0005701422035784259,0.1268617627652019,0.9999994348216336,701.0,0.35748938571009153,0.5163112924530833,2.8279534206124866,-0.004025856920733478,0.319,0.9999999999999998,-2.7169918670696336,0.14901428323542507,30,2026-10-07 21:01:22.035244,113.4,0.4329052010068022,0.06122359450753064,0.10268814106914681
0897,cdot_cos,Q,P-Q,31,6,6062,-0.0044789534245445,-0.006910305010358341,-0.03736655024456485,0.014239876663156478,701.0,0.36379252200483825,0.5163289564846906,2.874797969459668,-0.0008189980155648735,0.111,0.9999999999999996,181.54739396204346,0.15398142687499056,31,2026-10-07 21:01:22.146244,113.4,0.019928824533507375,0.17429625984013836,0.05678501166438481
0897,cdot_cos,R,Q-R,32,6,6093,0.020699839973538074,0.06913906338193156,0.025178793398082575,0.9455907234039805,701.0,0.39618315539460225,0.5175018327601442,2.9274324481951286,-0.004433750364821226,0.031,0.9999999999999998,-3.0819553817459537,0.15894856816682304,32,2026-10-07 21:01:22.177243,113.4,0.4425149713610018,0.6787048957211956,1.0448591416052904
0897,cdot_cos,S,R-S,33,6,6122,0.0034822773314455682,-0.07231957520409868,-0.017217562642092506,0.12428410496842233,701.0,0.4058722255395524,0.5176559761756543,2.973707190959861,-0.0013996812160255757,0.029,0.9999999999999997,19.68341715249212,0.16391570951557496,33,2026-10-07 21:01:22.206244,113.4,0.11444214845281468,0.2722924263474637,0.3341058670672458
0897,cdot_cos,T,S-T,34,6,6371,-0.10102526968271937,-0.07834341194168232,-0.10450754701416494,7.130259264683326e-06,701.0,0.41197611612275514,0.5176559850188653,3.018427153242919,-0.0008991293911886083,0.249,0.9999999999999997,56602.94907306156,0.16888285862501184,34,2026-10-07 21:01:22.455244,113.4,0.5730930290023158,0.08334230327898066,0.024513616800011104
0897,cdot_cos,P,T-P,35,7,6652,0.0458450630916891,0.0013591795366821675,0.14687033277440847,0.9999999415500963,678.0,0.44737669257248475,0.5188961105944853,3.069830797169562,-0.005478298108910919,0.281,0.9999999999999996,-3.6925040558358355,0.17385000937550626,35,2026-10-07 21:01:22.736243,113.4,0.43349530119798607,0.07449266183040971,0.125980699109358
0897,cdot_cos,Q,P-Q,36,7,6781,-0.002884514202687077,-0.007188639469360118,-0.04872957729437618,0.003966352767971225,678.0,0.4538409920714454,0.5189010289168898,3.1134061826682653,-0.0010490946642126462,0.129,0.9999999999999996,900.551667898923,0.1788171545443076,36,2026-10-07 21:01:22.865243,113.4,0.014670314539799363,0.15391965535342267,0.05011084882915238
0897,cdot_cos,R,Q-R,37,7,6801,0.015843441271383173,0.0864528150836956,0.01872795547407025,0.8931902272138939,678.0,0.4870879636536678,0.5200084998285704,3.163088227995972,-0.005632451466826495,0.02,0.9999999999999991,-4.138579852773264,0.18378429532010754,37,2026-10-07 21:01:22.885243,113.4,0.4431969522967659,1.2450888928565926,1.6623485791111197
0897,cdot_cos,S,R-S,38,7,6838,0.009485842020513125,-0.06753129320503218,-0.006357599250870047,0.32718343442214604,678.0,0.5036445477857091,0.520414127536477,3.2080481449205593,-0.0029531612240891883,0.037,0.9999999999999993,6.6052939444528755,0.1887514370103112,38,2026-10-07 21:01:22.922244,113.4,0.4036279433539668,0.3127093700221942,0.44747524681192724
0897,cdot_cos,T,S-T,39,7,7090,-0.10992113055374893,-0.12311970696889293,-0.11940697257426205,1.3162128393163904e-06,678.0,0.5102284570353102,0.5204141291682063,3.2499852049439224,-0.0012017867126606267,0.252,0.9999999999999994,1073324.1743412593,0.19371858888647053,39,2026-10-07 21:01:23.174243,113.4,0.23286207986428992,0.08829139888068183,0.026126624006353415
0897,cdot_cos,P,T-P,40,8,7330,0.0546740645237719,0.0013087610647652297,0.16459519507752082,0.9999999921683697,678.0,0.5481434128215728,0.5216537163083926,3.2992277986808856,-0.00722300799101327,0.24,0.9999999999999993,-4.8574409036281745,0.19868574067299463,40,2026-10-07 21:01:23.414243,113.4,0.4344750035587523,0.09327266857913746,0.15797898244276076
0897,cdot_cos,Q,P-Q,41,8,7459,-0.002893314289841992,-0.007313158947360653,-0.057567378813613894,0.00145958750907923,678.0,0.5549993379532961,0.5216555254031475,3.3402251519205812,-0.0013613409187419687,0.129,0.9999999999999993,3240.110589247764,0.20365288710282825,41,2026-10-07 21:01:23.543243,113.4,0.01349003619321277,0.164108694292206,0.053146706447468176
0897,cdot_cos,R,Q-R,42,8,7479,0.015846522595795907,0.08080819540812524,0.0187398368856379,0.8933186984696702,678.0,0.5904834559489619,0.5227626464080545,3.387889172758779,-0.007314861449886185,0.02,0.9999999999999991,-5.377479520989287,0.20862002773946658,42,2026-10-07 21:01:23.563244,113.4,0.4431292368694522,1.3693454922352521,1.7742058997832877
0897,cdot_cos,S,R-S,43,8,7501,0.01144234911191156,-0.08251141417974389,-0.004404173483884347,0.37767386097002115,678.0,0.6097731576427062,0.5232306441603252,3.431052797691219,-0.004166253268561211,0.022,0.9999999999999989,6.727827571923536,0.2135871686450246,43,2026-10-07 21:01:23.585243,113.4,0.469662491810531,0.5986889536500264,0.8768046224429242
0897,cdot_cos,T,S-T,44,8,7769,-0.0706690379235038,-0.07918149986156482,-0.08211138703541537,9.037691657298123e-05,678.0,0.6168257699095631,0.5232307561467953,3.470720208482506,-0.0015566774277167188,0.268,0.9999999999999992,23302.599310264573,0.2185543246699777,44,2026-10-07 21:01:23.853244,113.4,0.18705072144904106,0.08832686904274457,0.026315717413644878
0897,cdot_cos,P,T-P,45,9,8008,0.05414160330968104,-0.0007483500610461445,0.12481064123318485,0.9999992868167443,681.0,0.6571163594496173,0.5244697145269123,3.518249819031677,-0.009234140147116217,0.239,0.9999999999999987,-6.196707526748758,0.2235214794321394,45,2026-10-07 21:01:24.092243,113.4,0.4354298794436937,0.09957248976390111,0.16857987255252832
0897,cdot_cos,Q,P-Q,46,9,8120,-0.004431966501341899,-0.007356661039746169,-0.05857356981102294,0.0013024006468219263,681.0,0.6644214200167078,0.5244713279551941,3.5571376330297326,-0.0017367863862397138,0.112,0.9999999999999987,4646.8466216584775,0.22848862616075052,46,2026-10-07 21:01:24.204243,113.4,0.013342555213422593,0.2084220776888596,0.06522375506330767
0897,cdot_cos,R,Q-R,47,9,8149,0.02073742286855508,0.07415811947275745,0.02516938936989698,0.9455358313464726,681.0,0.7038029048519219,0.5256425312214803,3.603623658651325,-0.00969148165262993,0.029,0.9999999999999984,-6.791899831029485,0.23345576729167508,47,2026-10-07 21:01:24.233243,113.4,0.44008275922704854,0.8753344163645363,1.3579822356970375
0897,cdot_cos,S,R-S,48,9,8178,0.0026981219577614114,-0.06423661986709646,-0.01803930091079367,0.11449198142492559,681.0,0.7151908161658509,0.5257843296775184,3.6427407127559808,-0.0029063815815548767,0.029,0.9999999999999984,47.85030994449531,0.2384229085936704,48,2026-10-07 21:01:24.262244,113.4,0.09685382544610309,0.3241304247156736,0.39268659703203523
0897,cdot_cos,T,S-T,49,9,8428,-0.10613949745074507,-0.09656484410775086,-0.10883761940850648,4.363699266873737e-06,681.0,0.7226024694854309,0.525784335081886,3.6804903672135727,-0.0019166359520926472,0.25,0.9999999999999983,183138.10218672245,0.24339006664015472,49,2026-10-07 21:01:24.512243,113.4,0.5966662904588954,0.09974182599831494,0.02964661327832019
0897,cdot_cos,P,T-P,50,10,8689,0.04592367919479471,0.0004892496144681617,0.15206317664553978,0.9999999675629406,719.0,0.7650617291650084,0.5270226569665051,3.7266129707607445,-0.01135772883226633,0.261,0.9999999999999983,-7.624102422350572,0.24835722619142894,50,2026-10-07 21:01:24.773243,113.4,0.43550530189372855,0.09606660767584452,0.1626791558604499
0897,cdot_cos,Q,P-Q,51,10,8818,-0.008399017131080112,-0.014224765049878102,-0.054322696325874824,0.00210739354761173,719.0,0.7727492386922218,0.5270252662524878,3.763713247430626,-0.0021257027875319664,0.129,0.9999999999999983,3538.1426588953545,0.25332437548877346,51,2026-10-07 21:01:24.902244,113.4,0.012996872896888632,0.19239970591976652,0.059593097110181556
0897,cdot_cos,R,Q-R,52,10,8835,0.01979815568211759,0.06837634656845677,0.028197172813197703,0.9607423296266141,719.0,0.8147008532923081,0.5282146609758162,3.8090101193311376,-0.011971489682912236,0.017,0.9999999999999984,-8.277980978281319,0.2582915154643294,52,2026-10-07 21:01:24.919244,113.4,0.4393599657160786,1.669508798644199,2.4677420352991963
0897,cdot_cos,S,R-S,53,10,8860,0.007238891695129214,-0.09108424440273813,-0.012559263986988376,0.19400078922017863,719.0,0.8295125378461246,0.5284547946589799,3.8472090067391873,-0.0043776229670490375,0.025,0.9999999999999983,31.623496611610012,0.26325865633483214,53,2026-10-07 21:01:24.944243,113.4,0.1764529608087559,0.45205832631117104,0.5924673821526572
0897,cdot_cos,T,S-T,54,10,9128,-0.07840016955253018,-0.05447657705385725,-0.0856390612476594,6.058094651531114e-05,719.0,0.8373037696078667,0.5284548696438703,3.883334378412123,-0.002334369368604128,0.268,0.999999999999998,27248.87090354713,0.26822581966793996,54,2026-10-07 21:01:25.212243,113.4,0.41674053420472196,0.09765997216796692,0.02907176030500792
0897,cdot_cos,P,T-P,55,11,9408,0.03916924501956478,0.0007031113563877523,0.11756941457209497,0.9999983788474867,738.0,0.8818582829281548,0.5296924537630112,3.9283044089825823,-0.013764447902163175,0.28,0.999999999999998,-9.235799293783545,0.273192984896898,55,2026-10-07 21:01:25.492243,113.4,0.4358723366288673,0.09428983769106708,0.15912326185817194
0897,cdot_cos,Q,P-Q,56,11,9519,-0.004294843755580905,-0.0058960830281850314,-0.04346408877514568,0.0071830111737590865,738.0,0.8901060787148642,0.5297013420557448,3.963921918065973,-0.0026262873288714086,0.111,0.9999999999999978,1253.1271085601097,0.2781601339823333,56,2026-10-07 21:01:25.603244,113.4,0.01439277488250457,0.2338865899134344,0.07430446654693174
0897,cdot_cos,R,Q-R,57,11,9555,0.022371910955992853,0.06983948383641819,0.02666675471157376,0.9536471068472021,738.0,0.9337811058889373,0.5308812201372921,4.008065358075841,-0.01431053532498552,0.036,0.9999999999999979,-9.902928259156564,0.2831272756175148,57,2026-10-07 21:01:25.639244,113.4,0.44198525811153966,0.7557341429092896,1.213195199279806
0897,cdot_cos,S,R-S,58,11,9579,-0.0006761163180162733,-0.06941510123333715,-0.023048027274009127,0.06826531525713406,738.0,0.9445189370043331,0.5309656667559555,4.0437140865973715,-0.00362324043617769,0.024,0.9999999999999978,126.55681255175055,0.2880944161677815,58,2026-10-07 21:01:25.663244,113.4,0.05235797406083611,0.39262256604520596,0.4474096298081598
0897,cdot_cos,T,S-T,59,11,9847,-0.10083375841735363,-0.05667471677112349,-0.10015764209933736,1.1677013682228934e-05,738.0,0.9526269890591071,0.5309656812006843,4.078424826143019,-0.0027633308236609784,0.268,0.9999999999999972,59531.03176953127,0.2930615834519516,59,2026-10-07 21:01:25.931243,113.4,0.7325776708805337,0.10190771177519554,0.030253925577515113
0897,cdot_cos,P,T-P,60,12,10146,0.020651535402102142,0.0013631593869244754,0.12148529381945578,0.9999989601492439,720.0,0.9991414705158379,0.5322025096564554,4.122422960403424,-0.016304062362636648,0.299,0.999999999999997,-10.947946318500241,0.29802875507068305,60,2026-10-07 21:01:26.230243,113.4,0.4358257628363518,0.09171678549629933,0.15556682761448415
0897,cdot_cos,Q,P-Q,61,12,10257,-0.03990511003953245,-0.039754607260825255,-0.06055664544163459,0.0010403849193167892,720.0,1.0074736267858941,0.5322037962320725,4.1566445799649685,-0.0030026221671964515,0.111,0.9999999999999966,10338.638490607216,0.3029959054029462,61,2026-10-07 21:01:26.341243,113.4,0.011915188087029011,0.2505160621527873,0.07506447090140751
0897,cdot_cos,R,Q-R,62,12,10291,0.018265106078674022,0.058237682535515006,0.05817021611820647,0.9986367268067515,720.0,1.0547560363137567,0.5334385446252475,4.200299355626446,-0.01750549608229055,0.034,0.9999999999999968,-11.745610680894373,0.30796304671902563,62,2026-10-07 21:01:26.375243,113.4,0.43671456800085684,0.9439960300467225,1.3906591037606633
0897,cdot_cos,S,R-S,63,12,10318,0.006792877912350144,-0.09477107882957601,-0.011472228166323878,0.21400506354684332,720.0,1.0716653568290713,0.5337030949850907,4.236137045093841,-0.0064547925077359375,0.027,0.9999999999999961,41.77164446536766,0.3129301874033683,63,2026-10-07 21:01:26.402244,113.4,0.18050165962386117,0.47020658701713014,0.6262711301968361
0897,cdot_cos,T,S-T,64,12,10567,-0.06625027221355884,-0.040422530342377055,-0.07304315012590898,0.0002526902957645892,720.0,1.0801471920126817,0.5337034073464717,4.269627314290719,-0.0032764309955150223,0.249,0.9999999999999966,10175.270394241958,0.31789735695404814,64,2026-10-07 21:01:26.651244,113.4,0.3790571862185448,0.11432520628714189,0.03406359511490142
0897,cdot_cos,P,T-P,65,13,10866,0.04049117951553149,-0.0014853763734384957,0.10674145172909033,0.9999944653717675,681.0,1.128599309560068,0.5349393341677057,4.312818853267945,-0.0192051330924222,0.299,0.9999999999999961,-12.888062483346484,0.32286453405265814,65,2026-10-07 21:01:26.950243,113.4,0.4363117961318057,0.09584976961724949,0.16204721587754586
0897,cdot_cos,Q,P-Q,66,13,10977,-0.005516481885943406,-0.008937458431106448,-0.04600766140147489,0.005392876979878412,681.0,1.137465354243797,0.5349459982566283,4.345921903068812,-0.0036054550583042837,0.111,0.9999999999999957,2340.8568245929077,0.32783168597530055,66,2026-10-07 21:01:27.061243,113.4,0.013211234741848146,0.25293072602257644,0.0798742764299908
0897,cdot_cos,R,Q-R,67,13,11004,0.02079665154095304,0.06870857891406894,0.026313133426896444,0.9518418875975388,681.0,1.18474993073708,0.5361220112448409,4.3883478621177225,-0.01969853502372009,0.027,0.9999999999999956,-13.684440670909806,0.3327988262462045,67,2026-10-07 21:01:27.088243,113.4,0.441768908215485,1.1497815399263238,1.751280610862333
0897,cdot_cos,S,R-S,68,13,11035,0.005246096030955103,-0.07966751566439818,-0.015550555509997937,0.14636090259244758,681.0,1.1995535573998184,0.5363028067352353,4.42246631049538,-0.006331676795562285,0.031,0.9999999999999954,73.93358207662244,0.33776596736112874,68,2026-10-07 21:01:27.119244,113.4,0.1211036194237128,0.38051805337324307,0.4775363439593061
0897,cdot_cos,T,S-T,69,13,11286,-0.095762928711794,-0.08568206479178798,-0.1010090247427491,1.0602359277709264e-05,681.0,1.208342050046221,0.5363028198316853,4.454865872903909,-0.003796130438509412,0.251,0.9999999999999953,193605.6237884194,0.3427331416766891,69,2026-10-07 21:01:27.370244,113.4,0.5127693231534075,0.11767173468713298,0.03501391492590669
0897,cdot_cos,P,T-P,70,14,11547,0.06161882656026197,0.002049704543439099,0.15738175527205597,0.9999999822537403,659.0,1.2586247682127591,0.5375378337841712,4.497364261820698,-0.022243946552739098,0.261,0.9999999999999951,-14.937334171080831,0.3477003184503459,70,2026-10-07 21:01:27.631244,113.4,0.4363367524879906,0.11355118229121378,0.19265409259210028
0897,cdot_cos,Q,P-Q,71,14,11657,-0.0014724867132011917,-0.002621851068002026,-0.06309131327346316,0.0007806872649096684,659.0,1.2676157672022346,0.537538797765922,4.5293825053798615,-0.004072980314756619,0.11,0.9999999999999942,18849.90688228076,0.35266747188701664,71,2026-10-07 21:01:27.741244,113.4,0.011546834054937428,0.24723487842700106,0.08173635444977653
0897,cdot_cos,R,Q-R,72,14,11693,0.014992299742778397,0.08919044164983049,0.01646478645597959,0.8661231532057162,659.0,1.3130164414666994,0.5386081000655262,4.570241368899306,-0.021002732673806458,0.036,0.9999999999999948,-15.832522164514153,0.35763461349862885,72,2026-10-07 21:01:27.777244,113.4,0.4466081049870186,0.9647205065855844,1.2611298406795783
0897,cdot_cos,S,R-S,73,14,11721,0.009641642719066295,-0.06146330936305231,-0.005350657023712102,0.35279761053564124,659.0,1.3370756436763966,0.5390435573128833,4.605590262503635,-0.01142800650100762,0.028,0.9999999999999943,21.98775248525289,0.362601754051192,73,2026-10-07 21:01:27.805243,113.4,0.43264837189845196,0.5926090495413491,0.8592572217749022
0897,cdot_cos,T,S-T,74,14,11967,-0.13511331946039729,-0.18579939735606757,-0.14475496217946357,7.429569813788449e-08,659.0,1.346202548241015,0.5390435574045801,4.637028104254694,-0.004389524756005831,0.246,0.9999999999999938,76758237.10223758,0.3675689327160269,74,2026-10-07 21:01:28.051244,113.4,0.20119667061655833,0.12440870698747622,0.03710123806755401
0897,cdot_cos,P,T-P,75,15,12206,0.07455332797869438,-0.00018832014989879665,0.20966664743909166,0.9999999999527798,678.0,1.398284727514235,0.5402775290323774,4.678940751318357,-0.025609880321273558,0.239,0.9999999999999939,-17.196793740831634,0.372536111073235,75,2026-10-07 21:01:28.290244,113.4,0.43666003398162384,0.12840917315561323,0.21791706808878666
0897,cdot_cos,Q,P-Q,76,15,12295,-0.003298102338902831,-0.0036072092268901474,-0.07785143031759721,0.0001464980109462021,678.0,1.407582133009398,0.5402777097709663,4.7100319840264735,-0.004673970720158981,0.089,0.9999999999999931,115835.3051155174,0.3775032625723725,76,2026-10-07 21:01:28.379244,113.4,0.011341852697552569,0.32718140079084534,0.10446523028273162
0897,cdot_cos,R,Q-R,77,15,12355,0.017221117893888076,0.09142802299606838,0.020519220232790906,0.9110788621222862,678.0,1.4565230168550054,0.5414015258003124,4.750779218282242,-0.025104836022680918,0.06,0.9999999999999933,-18.179902020449134,0.38247040896476114,77,2026-10-07 21:01:28.439244,113.4,0.44316110890617605,0.5895935190387632,0.8156813974267892
0897,cdot_cos,S,R-S,78,15,12378,0.008991692201211545,-0.0679886998904981,-0.008229425692676531,0.28227253658496587,678.0,1.4783333552940496,0.5417496241472286,4.784603241647644,-0.011462919640082114,0.023,0.9999999999999929,39.18983386003738,0.38743754848614176,78,2026-10-07 21:01:28.462244,113.4,0.3041936107745482,0.6794926912522308,0.9482755843062709
0897,cdot_cos,T,S-T,79,15,12645,-0.12480829022756794,-0.12195621725129065,-0.1337999824287795,2.573269800676998e-07,678.0,1.487779680652608,0.5417496244645456,4.8151760998118425,-0.005017606383717416,0.267,0.9999999999999927,20311909.736762214,0.39240473677438403,79,2026-10-07 21:01:28.729243,113.4,0.27677802926171996,0.11846544556382634,0.03537949572493776
0897,cdot_cos,P,T-P,80,16,12884,0.04639141134351598,0.00012722225349574593,0.1711997015710839,0.9999999962967172,739.0,1.541593903225133,0.5429824937574362,4.85658318982208,-0.029181869449476407,0.239,0.9999999999999923,-19.600020217148547,0.39737192040195174,80,2026-10-07 21:01:28.968243,113.4,0.43689717712580944,0.13283952243804925,0.2251641111821125
0897,cdot_cos,Q,P-Q,81,16,12995,-0.009600349522968168,-0.014903816063325264,-0.05599176086648415,0.0017446316445729612,739.0,1.5512769723779956,0.5429846442046294,4.88686193115134,-0.005360900000061125,0.111,0.9999999999999916,11077.21664809067,0.40233907799911944,81,2026-10-07 21:01:29.079243,113.4,0.011755140860999921,0.28398777929788904,0.0872348572329969
0897,cdot_cos,R,Q-R,82,16,13029,0.022396896647721362,0.06530678132038968,0.03199724617068953,0.9741306790755487,739.0,1.6046391902292643,0.5441851131522119,4.927805923662735,-0.030132768321384083,0.034,0.9999999999999913,-20.63515959426546,0.4073062194268263,82,2026-10-07 21:01:29.113244,113.4,0.43951181004244255,1.5700403069864113,1.5694769956255503
0897,cdot_cos,S,R-S,83,16,13056,0.05151261173754453,-0.1441219216574972,0.02911571508982317,0.9644878413539154,739.0,1.6580397132530715,0.5453731931978308,4.968586390813048,-0.031161131140535488,0.027,0.9999999999999913,-0.8655669480717758,0.4122733597514741,83,2026-10-07 21:01:29.140243,113.4,0.9675371470998209,1.1733190563704636,1.977797149029899
0897,cdot_cos,T,S-T,84,16,13323,-0.050723854539372074,-0.027747135944434762,-0.1022364662769166,9.224712806973413e-06,739.0,1.6679984192732693,0.5453732045586126,4.998428122964279,-0.005924115333927639,0.267,0.9999999999999908,2221415.421951389,0.41724055685251354,84,2026-10-07 21:01:29.407244,113.4,0.01412162425427668,0.12293252960008419,0.03729852442021637
0897,cdot_cos,P,T-P,85,17,13623,0.02705159569582223,-0.0001437848372507812,0.0777754502351943,0.9998522344753041,780.0,1.7236856840595165,0.5466043020191155,5.039442818371905,-0.03376496193117409,0.3,0.999999999999991,-22.614656832996932,0.422207763095273,85,2026-10-07 21:01:29.707244,113.4,0.43843292770989273,0.11124874256873178,0.18562421595415732
0897,cdot_cos,Q,P-Q,86,17,13734,-0.006970255207559831,-0.008636821721400111,-0.03402185090338206,0.020672174147898795,780.0,1.7347476648145084,0.5466297492805403,5.069235926854329,-0.006839165838001059,0.111,0.9999999999999899,1058.1019168880744,0.42717492369374316,86,2026-10-07 21:01:29.818244,113.4,0.01950664645521127,0.29885414487850015,0.09965748427920607
0897,cdot_cos,R,Q-R,87,17,13764,0.025774987792742402,0.05506647190845617,0.03274524300030223,0.9761843972423098,780.0,1.7900313042225435,0.5478311437974405,5.109828915346667,-0.03481933072117693,0.03,0.9999999999999897,-23.289739123639777,0.4321420642349461,87,2026-10-07 21:01:29.848243,113.4,0.44772263672016405,1.1115393281557306,1.8427879802678386
0897,cdot_cos,S,R-S,88,17,13792,-0.0066434107892098465,-0.08598257257351379,-0.03241839858195225,0.024692665037337636,780.0,1.8014400245038522,0.5478615260042564,5.1393968525982885,-0.007321433903234189,0.028,0.9999999999999892,905.0658164668966,0.43710920456274605,88,2026-10-07 21:01:29.876243,113.4,0.02338156092445964,0.3859883416887089,0.4074542957610243
0897,cdot_cos,T,S-T,89,17,14043,-0.12307123219745064,-0.03201752897585748,-0.11642782140824079,1.8452112416482357e-06,780.0,1.8116466513571112,0.5478615282746172,5.168515502716461,-0.006589423610587326,0.251,0.9999999999999885,322420.24987058726,0.4420764034523888,89,2026-10-07 21:01:30.127244,113.4,0.8948593999012979,0.134419303927888,0.040663852005015995
0897,cdot_cos,P,T-P,90,18,14403,0.027254354042038603,0.0017950520506834415,0.15032558623948925,0.9999999604982759,838.0,1.868918515075652,0.549091640279039,5.209140880872327,-0.03764726982744626,0.36,0.999999999999988,-25.247982383081673,0.44704363282159026,90,2026-10-07 21:01:30.487243,113.4,0.43824839549390693,0.09597095019389626,0.1590885103292799
0897,cdot_cos,Q,P-Q,91,18,14513,-0.0030758348088379115,-0.003333615059595871,-0.030330188850876516,0.031085243520864395,838.0,1.8807457354967165,0.549129869076304,5.238365310741031,-0.007920382365380561,0.11,0.9999999999999868,777.6045700835521,0.4520107948738518,91,2026-10-07 21:01:30.597243,113.4,0.023442288607328905,0.3133114962501147,0.10752018564604131
0897,cdot_cos,R,Q-R,92,18,14548,0.03229789195992592,0.0628247165388776,0.03537372676876383,0.982213703700566,838.0,1.9378470442506772,0.5503374996771516,5.278652088515266,-0.038923306546216646,0.035,0.999999999999987,-25.67252283858642,0.4569779363590285,92,2026-10-07 21:01:30.632244,113.4,0.45089845683745794,0.9704638137379443,1.6314659643988767
0897,cdot_cos,S,R-S,93,18,14574,-0.011595332226581998,-0.054100233999758635,-0.043893224186507915,0.006844161588217033,838.0,1.9486782024583726,0.5503459125015384,5.307344008960371,-0.007514415874068183,0.026,0.9999999999999856,3733.453740155509,0.46194507558466963,93,2026-10-07 21:01:30.658243,113.4,0.01530129226612139,0.40923050138475825,0.41658300798828557
0897,cdot_cos,T,S-T,94,18,14842,-0.12915085870642307,-0.006572587439664184,-0.11755552647984106,1.6237076895859599e-06,838.0,1.9591270303226846,0.5503459144973919,5.335801840460015,-0.007288855131110819,0.268,0.9999999999999847,113014.68015410751,0.4669122851464828,94,2026-10-07 21:01:30.926244,113.4,0.9695279485077207,0.12920881779100785,0.038988163672805984
0897,cdot_cos,P,T-P,95,19,15241,0.020853453223836416,-0.001297859755715643,0.15000431193025948,0.999999959032592,800.0,2.017934128794353,0.5515747997203143,5.376086389813497,-0.04172832841205257,0.399,0.9999999999999842,-28.024971444478055,0.4718795349591643,95,2026-10-07 21:01:31.325243,113.4,0.4380921626280282,0.08836676192992612,0.1473862117084416
0897,cdot_cos,Q,P-Q,96,19,15352,-0.012229053118037571,-0.012425411104486575,-0.033082506341873985,0.022942459630020694,800.0,2.0296437063427657,0.5516029860407309,5.404583706385755,-0.008456103680897055,0.111,0.9999999999999833,1180.4387461514232,0.4768466989530764,96,2026-10-07 21:01:31.436243,113.4,0.019551578765548302,0.3191780357466119,0.10549168962534092
0897,cdot_cos,R,Q-R,97,19,15373,0.032165884506529824,0.053946162935851874,0.04439493762456739,0.9935319138727979,800.0,2.0887916527301007,0.5528232849180444,5.444678210796701,-0.04343921534295786,0.021,0.9999999999999827,-28.667658646932992,0.48181383557262675,97,2026-10-07 21:01:31.457243,113.4,0.4469382679991432,1.667821623562234,2.816568875587381
0897,cdot_cos,S,R-S,98,19,15395,-0.01824953149439982,-0.08262471855395488,-0.05041541600092964,0.003278425553944663,800.0,2.0996922145323795,0.5528273105771497,5.472711450225639,-0.008141698826893702,0.022,0.9999999999999816,8768.133513761724,0.48678097283260174,98,2026-10-07 21:01:31.479244,113.4,0.013096641735569658,0.4939163802482958,0.495480081921765
0897,cdot_cos,T,S-T,99,19,15661,-0.06957195285540116,-0.009919349111279797,-0.05132242136100134,0.002958934908679147,800.0,2.1105239734610257,0.5528309439199129,5.500598729164514,-0.008132274185015857,0.266,0.9999999999999805,2.5939313992825035,0.4917481882101394,99,2026-10-07 21:01:31.745243,113.4,0.9988417529245363,0.1337114957359473,0.04072089822799317
0897,cdot_cos,P,T-P,100,20,16041,0.024420466714810813,0.0018563620751365722,0.09399241957021197,0.9999765059620574,740.0,2.1708267302639035,0.5540585119688403,5.540585429134,-0.04601463902699923,0.38,0.99999999999998,-30.859686251272162,0.4967154422504122,100,2026-10-07 21:01:32.125243,113.4,0.43899481627512893,0.09575624939360174,0.158691465270731
0897,cdot_cos,Q,P-Q,101,20,16151,-0.005379515537337634,-0.007308206782764588,-0.029799982252148447,0.032948118531481156,740.0,2.183298723000163,0.5540989478415864,5.5686258475825605,-0.009678479896329684,0.11,0.9999999999999787,898.6119666261343,0.5016826078451827,101,2026-10-07 21:01:32.235244,113.4,0.023416251018348593,0.3242260841781394,0.113381752147814
0897,cdot_cos,R,Q-R,102,20,16184,0.0222725405695511,0.06193320689570947,0.027652056106888735,0.9583432727749102,740.0,2.242156468783094,0.5552747677507724,5.608000606790684,-0.04639870080920965,0.033,0.9999999999999779,-31.229460078031774,0.5066497478003285,102,2026-10-07 21:01:32.268243,113.4,0.45320703336174206,1.1022864738871074,1.783568054028216
0897,cdot_cos,S,R-S,103,20,16212,-0.0022925954380684397,-0.07650597368317179,-0.02456513600761954,0.05810257345187368,740.0,2.256049630276712,0.555346035768887,5.636147047082452,-0.011131939069291259,0.028,0.9999999999999764,494.84695481845705,0.5116168864022483,103,2026-10-07 21:01:32.296243,113.4,0.04208474489411642,0.4432213498688418,0.49618433905778453
0897,cdot_cos,T,S-T,104,20,16480,-0.0917352798042242,-0.05258884920129478,-0.08944268436615577,3.93568797024042e-05,740.0,2.2669768643757493,0.555346084042859,5.663441388515526,-0.00880379168036942,0.268,0.9999999999999751,48227.798344349045,0.5165841093428142,104,2026-10-07 21:01:32.564243,113.4,0.7676293651887336,0.13563100084458815,0.04077326156357155
0897,cdot_cos,P,T-P,105,21,16781,0.04264859149869972,0.0016153879450476751,0.13438387130292392,0.9999997591595717,680.0,2.3287478467294114,0.5565723142103103,5.703169474168428,-0.050539094429872734,0.301,0.9999999999999746,-34.035455868982986,0.5215513455728137,105,2026-10-07 21:01:32.865243,113.4,0.4378835173530036,0.12147064363443852,0.20521921047728264
0897,cdot_cos,Q,P-Q,106,21,16892,-0.002875484914715249,-0.004764100013236975,-0.045524076413414966,0.005695142349961646,680.0,2.3401021918436813,0.5565792958081368,5.730334972725563,-0.009437556673539559,0.111,0.9999999999999728,5887.124806897694,0.5265185137750558,106,2026-10-07 21:01:32.976243,113.4,0.012841108207310856,0.3154054923707431,0.1022913974258551
0897,cdot_cos,R,Q-R,107,21,16926,0.01959632356977535,0.08809578318677198,0.0224718084844906,0.9274594314406842,680.0,2.3987678660357163,0.5577159556550605,5.769059111415323,-0.049467247387865544,0.034,0.9999999999999729,-35.21694799254545,0.5314856538944447,107,2026-10-07 21:01:33.010243,113.4,0.4452069478308797,1.1774107049485827,1.7254610056480897
0897,cdot_cos,S,R-S,108,21,16955,0.007254789658572435,-0.0657511086424335,-0.012341533911202917,0.19789071258193014,680.0,2.420166119780185,0.5579584053354497,5.7984742481037745,-0.018345891086527004,0.029,0.9999999999999712,128.36212549910178,0.5364527925495699,108,2026-10-07 21:01:33.039244,113.4,0.1833484995351235,0.5616721765315572,0.7378708187747784
0897,cdot_cos,T,S-T,109,21,17221,-0.11076640157999786,-0.11693010017827546,-0.11802119123857029,1.5401902246834694e-06,680.0,2.4313448522745467,0.5579584072223365,5.825257200506086,-0.009648928446315557,0.266,0.9999999999999698,4609159.825602903,0.541420022567979,109,2026-10-07 21:01:33.305243,113.4,0.4060253275282256,0.13985365162899568,0.04202531012917948
0897,cdot_cos,P,T-P,110,22,17461,0.05809516507490243,0.00021371992385406876,0.1688615666549003,0.9999999951723288,659.0,2.4945682624468106,0.5591831519845594,5.864762810678236,-0.05537598488671192,0.24,0.9999999999999688,-37.33598856744842,0.5463872438852629,110,2026-10-07 21:01:33.545243,113.4,0.4379037751282667,0.1553630608504932,0.2634308757177665
0897,cdot_cos,Q,P-Q,111,22,17590,-0.005756714225257058,-0.012731384528121637,-0.06385187930015948,0.0007162225668041965,659.0,2.5059191214827834,0.5591840289181513,5.891369770877159,-0.01009247516143812,0.129,0.999999999999967,51638.4708491209,0.5513544220593185,111,2026-10-07 21:01:33.674243,113.4,0.01125594692437189,0.26783150042325754,0.08799115531761838
0897,cdot_cos,R,Q-R,112,22,17611,0.012180886007986998,0.08687698652560268,0.017937600233244057,0.8843335678034603,659.0,2.563668789556011,0.5602665120482149,5.92930390466113,-0.052029648512149015,0.021,0.9999999999999669,-38.741641496296864,0.5563215568809655,112,2026-10-07 21:01:33.695244,113.4,0.446630103018425,2.3858672724212195,2.749984193963223
0897,cdot_cos,S,R-S,113,22,17634,0.01531071040772312,-0.07745025841106332,0.0031298243997361225,0.5878106611094506,659.0,2.6061255469244746,0.5609857150268762,5.963360419060645,-0.03899375682830388,0.023,0.9999999999999661,18.125469541448258,0.561288692998975,113,2026-10-07 21:01:33.718244,113.4,0.7158338806175755,1.1731101466730036,1.8459459725418934
0897,cdot_cos,T,S-T,114,22,17900,-0.0954580665154162,-0.13149400996869504,-0.11076877692313933,3.5054810203216717e-06,659.0,2.6176318563029692,0.5609857193151707,5.989688893573412,-0.010678101468430908,0.266,0.9999999999999643,6603010.912109867,0.5662559328953344,114,2026-10-07 21:01:33.984244,113.4,0.07052768293984116,0.14328732451754345,0.04325680217479179
0897,cdot_cos,P,T-P,115,23,18120,0.06089837264073686,-0.001189691588371571,0.15635643915615305,0.9999999800656252,698.0,2.6823544035678077,0.5622086576200155,6.02901667975941,-0.06090312508279052,0.22,0.9999999999999641,-41.069139314214944,0.5712231543833155,115,2026-10-07 21:01:34.204243,113.4,0.4383793211079457,0.17358853338683497,0.2941933966583568
0897,cdot_cos,Q,P-Q,116,23,18230,-0.009073721798539028,-0.016388726585937867,-0.06997209443927589,0.00035792270732843616,698.0,2.6940108109931766,0.5622090952030104,6.055177792788306,-0.011126603871695643,0.11,0.9999999999999619,113753.32630737811,0.5761903284611402,116,2026-10-07 21:01:34.314244,113.4,0.011405619763673023,0.3392731803281832,0.10596734023062625
0897,cdot_cos,R,Q-R,117,23,18269,0.01820232175754368,0.07837392676972492,0.027276043556082707,0.9566073664588671,698.0,2.756994503240008,0.5633782598779791,6.0938681470159715,-0.06091927079953438,0.039,0.9999999999999613,-42.588240984251804,0.581157471269061,117,2026-10-07 21:01:34.353244,113.4,0.44159816473256236,1.5782747441541791,1.6149664678674724
0897,cdot_cos,S,R-S,118,23,18292,0.037227018196357084,-0.11882077198094583,0.019024696438813403,0.8963583105181783,698.0,2.8171162410372026,0.5644731495885232,6.131748456104574,-0.059430567240432185,0.023,0.9999999999999614,1.3596835779580954,0.58612460735627,118,2026-10-07 21:01:34.376243,113.4,0.9752616753409287,1.5659560700517554,2.6139885998780237
0897,cdot_cos,T,S-T,119,23,18559,-0.06507382316522481,-0.05644160565926234,-0.10230084136158189,9.157616980768862e-06,698.0,2.829028482462389,0.5644731607712375,6.157675747414813,-0.011927467901986745,0.267,0.9999999999999596,4247904.222635923,0.5910918599209377,119,2026-10-07 21:01:34.643244,113.4,0.01863592342516223,0.14641655031356335,0.044615136423918386
0897,cdot_cos,P,T-P,120,24,18818,0.05489679674246281,-0.005618674499078333,0.11997061990768762,0.9999987652839486,720.0,2.8953026789046454,0.5656939038403186,6.1968668138572855,-0.06723434500875844,0.259,0.9999999999999593,-45.305911217178476,0.5960591102580595,120,2026-10-07 21:01:34.902244,113.4,0.43928864091103703,0.15132013037931163,0.2558849283484812
0897,cdot_cos,Q,P-Q,121,24,18928,-0.0037271670877577307,-0.005294771617018727,-0.05862396383022054,0.0012949886786189136,720.0,2.9074123099988722,0.5656954841774587,6.2226509416388325,-0.012453280007890592,0.11,0.9999999999999564,34664.16349340673,0.6010262885575924,121,2026-10-07 21:01:35.012243,113.4,0.01229052516238296,0.3552893620595036,0.11008755540206185
0897,cdot_cos,R,Q-R,122,24,18953,0.03343538067741672,0.07750662860066278,0.03716254776517445,0.985431714823994,720.0,2.9734663385577362,0.5668976645378411,6.2615899946434075,-0.0687988618044603,0.025,0.9999999999999561,-46.86949117905237,0.605993424936028,122,2026-10-07 21:01:35.037244,113.4,0.44087670258779416,1.5753727905544679,2.64216114235456
0897,cdot_cos,S,R-S,123,24,18985,-0.007049393858414654,-0.06310716674138792,-0.040484774535831373,0.010041133048857724,720.0,2.9861809495265956,0.5669099102204977,6.287335686538539,-0.013420245847356025,0.032,0.999999999999954,4522.297164618815,0.6109605653149693,123,2026-10-07 21:01:35.069243,113.4,0.016139301833928404,0.3879529057101219,0.39733159277685615
0897,cdot_cos,T,S-T,124,24,19238,-0.16733208765212695,-0.09485460606956253,-0.1602826937937123,1.277140066389377e-08,720.0,2.998295324523184,0.5669099102360731,6.312842224300648,-0.012839969758781919,0.253,0.9999999999999521,37256129.10791007,0.6159278191086573,124,2026-10-07 21:01:35.322243,113.4,0.9558130416060673,0.15753848875863533,0.04788290512485536
0897,cdot_cos,P,T-P,125,25,19538,0.02543938223228056,0.0018456289115458312,0.19277146988440752,0.9999999996792261,778.0,3.065895424838465,0.5681290503540095,6.3518765549363385,-0.0725547272445784,0.3,0.9999999999999515,-48.98104541656091,0.6208950990787294,125,2026-10-07 21:01:35.622243,113.4,0.4390989223062116,0.13624838747734014,0.2253336677176036
0897,cdot_cos,Q,P-Q,126,25,19667,-0.004007183908210045,-0.006766301569914296,-0.029446566140490606,0.034249266907078926,778.0,3.080044357009588,0.5681707904812399,6.3777020235756305,-0.015390312022300009,0.129,0.9999999999999485,1369.531408153292,0.6258622900782358,126,2026-10-07 21:01:35.751244,113.4,0.024372211984897463,0.31116808621719305,0.10968164473738766
0897,cdot_cos,R,Q-R,127,25,19687,0.024859510057571206,0.06485896558180669,0.028866693965781252,0.9635078369724718,778.0,3.146176791082501,0.5693446340018884,6.416188908303461,-0.07282637194229542,0.02,0.9999999999999488,-48.9299117894886,0.6308294230848371,127,2026-10-07 21:01:35.771244,113.4,0.4544482790270563,2.0052179891657307,3.3066217036456402
0897,cdot_cos,S,R-S,128,25,19710,-0.005643303332600002,-0.0682657430075589,-0.030502813390171208,0.0305010276431686,778.0,3.1602530765762173,0.5693817808130316,6.441820229579712,-0.015700451632174803,0.023,0.9999999999999459,1537.8418376185164,0.6357965581494106,128,2026-10-07 21:01:35.794244,113.4,0.026292041657431105,0.5739308306709598,0.6120124127702793
0897,cdot_cos,T,S-T,129,25,19976,-0.09030475726786709,-0.03201302545867406,-0.08466145393526708,6.768292933413438e-05,778.0,3.172577609293365,0.5693818632423366,6.466935568172898,-0.013804123274085678,0.266,0.9999999999999436,23005.511898682344,0.6407638273099178,129,2026-10-07 21:01:36.060243,113.4,0.8716441243108196,0.1526911480696373,0.046332829763713265
0897,cdot_cos,P,T-P,130,26,20316,0.02007163663558687,0.0011015455633241887,0.11037639390345397,0.9999963350165328,799.0,3.2414847673492644,0.5705993110521164,6.5058339011700275,-0.07811528593137963,0.34,0.9999999999999429,-52.824574606553234,0.6457311397525177,130,2026-10-07 21:01:36.400243,113.4,0.4389871008510986,0.1238529763440064,0.2026681119291156
0897,cdot_cos,Q,P-Q,131,26,20426,-0.005806609542249483,-0.006911244432070601,-0.025878246177836354,0.05046975599746436,799.0,3.2567976332072894,0.5706607330630503,6.53151146366554,-0.01758645071032165,0.11,0.9999999999999395,985.4583772280583,0.650698323163683,131,2026-10-07 21:01:36.510243,113.4,0.03200740452376121,0.378804055769347,0.13920787143659136
0897,cdot_cos,R,Q-R,132,26,20457,0.02634696099281417,0.052881577084407626,0.03215357053506365,0.9745736708952408,799.0,3.3248216596185207,0.5718463664849044,6.570015405914084,-0.07907125279896869,0.031,0.9999999999999388,-51.85818901132045,0.6556654616293965,132,2026-10-07 21:01:36.541243,113.4,0.4595133421004721,1.3125382950383586,2.1943234326203642
0897,cdot_cos,S,R-S,133,26,20486,-0.01138460266532797,-0.07430833419894017,-0.03773156365814214,0.013670377730171102,799.0,3.3381750074996677,0.5718629915720528,6.595046601263597,-0.015713721929253133,0.029,0.9999999999999363,3810.9593233527066,0.6606325993942038,133,2026-10-07 21:01:36.570244,113.4,0.01773903802193121,0.4463510746687539,0.46046027176368787
0897,cdot_cos,T,S-T,134,26,20736,-0.08866231943383816,-0.018982834353976834,-0.0772777167685102,0.00015634437711582698,799.0,3.3507100219493084,0.5718631817076962,6.619795779724495,-0.014808048458512644,0.25,0.9999999999999337,4763.3018948886365,0.6655998679599855,134,2026-10-07 21:01:36.820243,113.4,0.9406718798612512,0.1654550645016748,0.05014005779856312
0897,cdot_cos,P,T-P,135,27,21115,0.04027954967835191,-4.262960160801996e-05,0.12894186911219008,0.9999995535812408,760.0,3.420902539750505,0.5730788782066689,6.658575754376718,-0.08388600143272801,0.379,0.9999999999999326,-56.82170922807556,0.6705672158372349,135,2026-10-07 21:01:37.199244,113.4,0.4389041876783097,0.10981099285630024,0.18520453245698315
0897,cdot_cos,Q,P-Q,136,27,21226,-0.0035943804330352378,-0.004689653009299844,-0.04387393011138715,0.00685904982808599,760.0,3.433946754534384,0.573087213702817,6.683288917104869,-0.0157804824394598,0.111,0.9999999999999293,8170.541715006268,0.675534402344884,136,2026-10-07 21:01:37.310244,113.4,0.013355764985809475,0.37217174026501915,0.11751544850341406
0897,cdot_cos,R,Q-R,137,27,21252,0.030725402773322856,0.06496491827289022,0.0343197832063581,0.9800008450853211,760.0,3.5035246660893393,0.5742777359778478,6.721749549767187,-0.0851266344636334,0.026,0.9999999999999282,-58.2485128406181,0.6805015370072808,137,2026-10-07 21:01:37.336244,113.4,0.4428060378592905,1.5961917724439925,2.6760735213444344
0897,cdot_cos,S,R-S,138,27,21284,-0.008688097570522023,-0.05405606563227075,-0.03941350034384488,0.011323455541149906,760.0,3.5169487267014716,0.5742914869069236,6.7463984134226695,-0.016620326760872425,0.032,0.999999999999925,4981.94029839218,0.6854686759336576,138,2026-10-07 21:01:37.368243,113.4,0.01621467148349125,0.4084951821187524,0.4195018941291345
0897,cdot_cos,T,S-T,139,27,21535,-0.12922646472803398,-0.0435735021473515,-0.12053836715751196,1.1577269589157736e-06,760.0,3.5296683577449395,0.5742914883128332,6.7707977797181815,-0.015806817637341746,0.251,0.9999999999999221,578635.438006446,0.6904359533458113,139,2026-10-07 21:01:37.619244,113.4,0.9498362174258953,0.16766077362489387,0.050675820890310155
0897,cdot_cos,P,T-P,140,28,21875,0.02538299195266743,0.0018217828157165664,0.15460945668070142,0.9999999756981269,740.0,3.6011144350611684,0.5755054084407506,6.809472857739738,-0.08978043218768368,0.34,0.9999999999999213,-60.937793887023616,0.6954032897281698,140,2026-10-07 21:01:37.959244,113.4,0.43870013308247163,0.12601029159492524,0.2101355215183202
0897,cdot_cos,Q,P-Q,141,28,21986,-0.007376683022926813,-0.011127417443892184,-0.03275967497559425,0.023777584356191227,740.0,3.6153553560294887,0.5755342615063425,6.8340918011021135,-0.018110116265995777,0.111,0.9999999999999173,2483.975773510386,0.7003704790334475,141,2026-10-07 21:01:38.070244,113.4,0.019111326833413673,0.38124352980444115,0.1282965853001829
0897,cdot_cos,R,Q-R,142,28,22019,0.024262279990084807,0.06900150252880527,0.03163896301301162,0.9730868521526376,740.0,3.6857504986777543,0.5767146163568211,6.872348917330648,-0.09050448290153656,0.033,0.9999999999999164,-61.33271414624621,0.7053376176344919,142,2026-10-07 21:01:38.103244,113.4,0.4493747395606149,1.3079179459866308,2.1331861408565342
0897,cdot_cos,S,R-S,143,28,22046,-0.0016955997385633187,-0.07402280626659366,-0.025957879728648124,0.050038746567486664,740.0,3.7016779404646063,0.5767752898367526,6.897230423653006,-0.02071865287890998,0.027,0.9999999999999131,1150.186705976925,0.7103047527372206,143,2026-10-07 21:01:38.130244,113.4,0.034449493687012785,0.5342588598381425,0.5899052513648895
0897,cdot_cos,T,S-T,144,28,22294,-0.09184851417272552,-0.04944563932582845,-0.0901529144341622,3.6311472893167094e-05,740.0,3.714600477109014,0.5767753338646613,6.921305125720949,-0.016875474437567657,0.248,0.9999999999999096,87289.597870766,0.7152720370834064,144,2026-10-07 21:01:38.378243,113.4,0.7963332660336331,0.17260180079803614,0.05210700259841806
0897,cdot_cos,P,T-P,145,29,22615,0.02297853120505388,0.0017151314894508064,0.11482704537777941,0.9999977875037576,738.0,3.787288433660432,0.577987373280756,6.959890787181293,-0.09594479207558007,0.321,0.9999999999999087,-65.23658932873657,0.7202393733202777,145,2026-10-07 21:01:38.699244,113.4,0.43862402927003863,0.13602868144879413,0.22644223224740884
0897,cdot_cos,Q,P-Q,146,29,22704,-0.00871806508463534,-0.008221917134856952,-0.03169659628968922,0.02674251595869835,738.0,3.80193089059914,0.5780197735108886,6.984240726777771,-0.019551964316299977,0.089,0.9999999999999043,2357.7865788786985,0.725206550406916,146,2026-10-07 21:01:38.788243,113.4,0.020097317241271954,0.48344359026147055,0.1645219880753661
0897,cdot_cos,R,Q-R,147,29,22764,0.021913636007234224,0.06976028253493329,0.030631701091869565,0.9699282207443058,738.0,3.873341392726974,0.5791944462074846,7.022360701820279,-0.09636209856522651,0.06,0.9999999999999037,-65.3885413966884,0.7301737079083742,147,2026-10-07 21:01:38.848243,113.4,0.4506343513767598,0.8198211485680156,1.190175035463903
0897,cdot_cos,S,R-S,148,29,22786,0.011190048594543506,-0.10979038818438389,-0.010723587412690718,0.22863147537181705,738.0,3.9003094284273017,0.5794712100180117,7.049572779670923,-0.03685076169143526,0.022,0.9999999999999004,215.02571727297197,0.7351408389017416,148,2026-10-07 21:01:38.870244,113.4,0.1989049371252014,0.9120254327013729,1.2258198045603494
0897,cdot_cos,T,S-T,149,29,23053,-0.06933512005880821,-0.04343685764840775,-0.08052516865335171,0.00010818559681344836,738.0,3.9134705117658344,0.5794713409674255,7.073350404336789,-0.018076940086230824,0.267,0.999999999999897,143366.9771141982,0.7401081471403937,149,2026-10-07 21:01:39.137243,113.4,0.3539672599066393,0.16311950942156958,0.0492924469607967
0897,cdot_cos,P,T-P,150,30,23353,0.029958160605370595,0.0019747715626053874,0.0992932806641788,0.9999871204645686,759.0,3.98741524645842,0.5806812597229573,7.1118652565659914,-0.10261471374156003,0.3,0.9999999999998964,-69.87062004685875,0.7450754816439524,150,2026-10-07 21:01:39.437243,113.4,0.438745060015101,0.1472796199543621,0.24648244897528482
0897,cdot_cos,Q,P-Q,151,30,23463,-0.004870921015469979,-0.006334038494186808,-0.03482908162084057,0.018898045935636917,759.0,4.001838283738452,0.5807041158282583,7.135813015528376,-0.020238716808493592,0.11,0.9999999999998915,3604.1134676274783,0.7500426769057775,151,2026-10-07 21:01:39.547244,113.4,0.01707365973043757,0.39574234315843293,0.13111852072756183
0897,cdot_cos,R,Q-R,152,30,23497,0.02582761304030039,0.06733614944837887,0.03069853405577037,0.9701484912885193,759.0,4.074478561953275,0.5818769876310668,7.173862694725878,-0.10296049365158844,0.034,0.9999999999998905,-70.52925702964033,0.755009815802788,152,2026-10-07 21:01:39.581243,113.4,0.44778941678654427,1.2882764598967742,2.1364787710242186
0897,cdot_cos,S,R-S,153,30,23524,-0.00621420570837257,-0.06022611383360809,-0.032041818748672964,0.02574225105308141,759.0,4.089441083011432,0.5819080964670568,7.197807035434717,-0.021437502751127158,0.027,0.9999999999998864,2620.5734900098305,0.7599769499066775,153,2026-10-07 21:01:39.608243,113.4,0.02230774737479941,0.5242718580539468,0.5541674465984151
0897,cdot_cos,T,S-T,154,30,23792,-0.08804760996318049,-0.033768001082724874,-0.08183340425480792,9.327100054807357e-05,759.0,4.102789242288188,0.5819082091814327,7.22129236684269,-0.019190849598941663,0.268,0.9999999999998825,19932.268030342322,0.7649442690859218,154,2026-10-07 21:01:39.876243,113.4,0.8895238333477307,0.1650890686926027,0.04980656446550717
0897,cdot_cos,P,T-P,155,31,24112,0.021458953364499253,0.0013316514677890713,0.10950656332767975,0.999995955078144,779.0,4.177928823830667,0.5831161714075197,7.259739245947373,-0.10910669978847178,0.32,0.9999999999998817,-74.43597841697326,0.7699116308807932,155,2026-10-07 21:01:40.196243,113.4,0.4386254853696192,0.14219568952396483,0.23481119232024728
0897,cdot_cos,Q,P-Q,156,31,24223,-0.006835459978428689,-0.008513163054083221,-0.02829441334292794,0.038843874138991985,779.0,4.193794483583526,0.5831630735024542,7.2837059841999325,-0.023290228072874477,0.111,0.9999999999998763,1829.6937873543943,0.7748788300191362,156,2026-10-07 21:01:40.307244,113.4,0.02510581706858543,0.40521575622961375,0.14293387164737265
0897,cdot_cos,R,Q-R,157,31,24256,0.02541218760283416,0.05911777991464601,0.03224764758126285,0.9748366963138154,779.0,4.267886721713642,0.5843396465804759,7.321756337780568,-0.10984437998144553,0.033,0.9999999999998758,-73.56462044338714,0.7798459677496316,157,2026-10-07 21:01:40.340243,113.4,0.45476672209427493,1.3499257412972872,2.245219337276239
0897,cdot_cos,S,R-S,158,31,24283,-0.007670251118076824,-0.07193471274212589,-0.03308243872091098,0.022942631522197537,779.0,4.282889582509147,0.5843673255263359,7.345384938126511,-0.022476038684680375,0.027,0.9999999999998715,3156.4909205266295,0.7848131011868564,158,2026-10-07 21:01:40.367244,113.4,0.020503144182657987,0.5284386511896284,0.5556615109446318
0897,cdot_cos,T,S-T,159,31,24552,-0.10739533022536836,-0.03705893913095108,-0.09972507910729153,1.2264075809866836e-05,779.0,4.2964224088778815,0.5843673403220853,7.368593346849231,-0.02034141294804539,0.269,0.9999999999998671,144272.90422603913,0.7897804317194914,159,2026-10-07 21:01:40.636243,113.4,0.9003786383191106,0.16701218016247563,0.050307904716486516
0897,cdot_cos,P,T-P,160,32,24891,0.02269160122572104,0.0016687554716669662,0.1300869314510894,0.999999607942929,760.0,4.3727421354365585,0.5855732620344296,7.406982599502795,-0.11582106880032106,0.339,0.9999999999998662,-79.17566693998756,0.7947478222297466,160,2026-10-07 21:01:40.975244,113.4,0.43851025366166085,0.13627946732732946,0.22513193675125964
0897,cdot_cos,Q,P-Q,161,32,25002,-0.005656443558605337,-0.007398889299240537,-0.028348044784326377,0.03861744551825094,760.0,4.388819887725811,0.5856198112056122,7.430684085281272,-0.024658471587731177,0.111,0.9999999999998608,1958.4150457786589,0.7997150245247627,161,2026-10-07 21:01:41.086244,113.4,0.024797579378313808,0.4096086468781684,0.1448446152184896
0897,cdot_cos,R,Q-R,162,32,25035,0.024629283061018636,0.06352740015732845,0.030285726619623973,0.9687625366474142,760.0,4.463675255043512,0.5867870477710251,7.46858153460885,-0.11590111042039726,0.033,0.99999999999986,-78.16979139990717,0.8046821617465071,162,2026-10-07 21:01:41.119244,113.4,0.45509659006043557,1.3712889245409832,2.268344464172759
0897,cdot_cos,S,R-S,163,32,25063,-0.006064165880087857,-0.05800683030718001,-0.030693448941106493,0.029868213310274176,760.0,4.479324956745516,0.5868230197748934,7.4920565066143965,-0.024478066046188598,0.028,0.9999999999998553,2541.5054637754083,0.8096492952686524,163,2026-10-07 21:01:41.147244,113.4,0.023875640927127,0.5245468794088382,0.5589179179287093
0897,cdot_cos,T,S-T,164,32,25311,-0.08827412939678805,-0.03738672103260096,-0.0822099635167002,8.937234719410062e-05,760.0,4.493049880290407,0.5868231274097511,7.5150045100182465,-0.02153798705097307,0.248,0.9999999999998506,27315.305266541436,0.8146166184970791,164,2026-10-07 21:01:41.395243,113.4,0.8724004971007743,0.18388424979574655,0.055342433648754345
0897,cdot_cos,P,T-P,165,33,25651,0.02535317253221704,0.0016901349485131485,0.1136273019290051,0.9999974650548893,700.0,4.570531544644206,0.5880269445223516,7.553344654786894,-0.12271829932959422,0.34,0.9999999999998501,-84.04957133401038,0.8195840242011643,165,2026-10-07 21:01:41.735244,113.4,0.43845747150206205,0.13603102797502215,0.22788724809940944
0897,cdot_cos,Q,P-Q,166,33,25762,-0.00962195749234375,-0.016607359847601363,-0.03497513002456079,0.01859340775335702,700.0,4.585550979313422,0.5880493177188196,7.576487342273437,-0.02403072098738172,0.111,0.9999999999998439,4410.973572025704,0.8245512298251443,166,2026-10-07 21:01:41.846244,113.4,0.01646158732417706,0.4075449344230734,0.13531022224518782
0897,cdot_cos,R,Q-R,167,33,25794,0.018555634291496027,0.06500556448423572,0.028177591783839776,0.9606584948161272,700.0,4.661006520086128,0.5892047680621426,7.6142055487387355,-0.12181684917266186,0.032,0.9999999999998432,-84.63031643926384,0.8295183657246429,167,2026-10-07 21:01:41.878243,113.4,0.44810364209333725,1.6979976847111138,2.3579856491470763
0897,cdot_cos,S,R-S,168,33,25822,0.011062720486641465,-0.09715694670882821,-0.007492913804854562,0.29949654308871027,700.0,4.694222831134933,0.5895647927530414,7.6416349962231624,-0.0542408519085709,0.028,0.9999999999998398,187.69823007246634,0.8344854986939124,168,2026-10-07 21:01:41.906244,113.4,0.28769609307567423,0.8439470728383025,1.1862968231716016
0897,cdot_cos,T,S-T,169,33,26091,-0.04647517563208563,-0.039619574342796685,-0.05753789611872709,0.0014644684111339043,700.0,4.708267556165073,0.5895665529546288,7.664367093713725,-0.023050283137815417,0.269,0.9999999999998344,17719.884469179615,0.8394528527648432,169,2026-10-07 21:01:42.175244,113.4,0.2584240625456756,0.17233476334743494,0.052210873717992906
0897,cdot_cos,P,T-P,170,34,26351,0.04630274070027786,0.0016452522723524893,0.09277791633236349,0.9999730369372669,698.0,4.786938933815853,0.5907679217561507,7.702673290168943,-0.13027234959327594,0.26,0.9999999999998334,-89.2499175271011,0.844420200821711,170,2026-10-07 21:01:42.435244,113.4,0.4390856349335829,0.178788668824037,0.3025822217337689
0897,cdot_cos,Q,P-Q,171,34,26480,-0.003059047569352613,-0.007095955964364623,-0.049361788269630474,0.003692961430834099,698.0,4.8012376639535725,0.5907723564858877,7.725353050104579,-0.023909096501402452,0.129,0.9999999999998276,23984.156735569177,0.8493874277740663,171,2026-10-07 21:01:42.564243,113.4,0.011694318766655899,0.33767470554160456,0.11084286928464587
0897,cdot_cos,R,Q-R,172,34,26504,0.016581529736854783,0.08227593814430981,0.019640577306207396,0.9026692703324428,698.0,4.874059007845587,0.5918558913106756,7.762119324574857,-0.12277133772524196,0.024,0.9999999999998263,-91.24048342718139,0.8543545559571782,172,2026-10-07 21:01:42.588243,113.4,0.4469739057708152,2.1845741468812796,3.0342226621672777
0897,cdot_cos,S,R-S,173,34,26538,0.007981194290103537,-0.06886544324871582,-0.008600335446751246,0.27382972790783267,698.0,4.906097223003874,0.5921844116881416,7.788971928570819,-0.05458576652224613,0.034,0.9999999999998219,207.55355186468546,0.8593216944374826,173,2026-10-07 21:01:42.622243,113.4,0.2867496852311679,0.6793768906525218,0.9423004458319633
0897,cdot_cos,T,S-T,174,34,26790,-0.09838473477885723,-0.0896254036148526,-0.10636592906896077,5.775405244318107e-06,698.0,4.920256636409959,0.5921844186161721,7.811451060909038,-0.02423834683760683,0.252,0.9999999999998169,4380381.95136567,0.864289044683203,174,2026-10-07 21:01:42.874244,113.4,0.2859204520407905,0.1864825631072497,0.05618814843684417
0897,cdot_cos,P,T-P,175,35,27049,0.053059401456290976,-0.0017575385821279002,0.1514441362351482,0.9999999652040586,699.0,5.000084434809928,0.5933834418623386,7.8497272534728415,-0.13783062868054968,0.259,0.999999999999816,-94.73734742518023,0.8692564040842864,175,2026-10-07 21:01:43.133244,113.4,0.4386102943132605,0.18184400281825686,0.3082154378377186
0897,cdot_cos,Q,P-Q,176,35,27160,-0.004032756364908696,-0.006166448421856961,-0.057092157821199675,0.0015402783029613762,699.0,5.014451829869816,0.5933852878377224,7.872147656946691,-0.025042246307099742,0.111,0.9999999999998096,61099.61344276209,0.8742236183569061,176,2026-10-07 21:01:43.244244,113.4,0.01106548662012124,0.4204469366646375,0.1294359915305219
0897,cdot_cos,R,Q-R,177,35,27186,0.03018141779372976,0.08319401334993642,0.034214174158638457,0.9797647696442603,699.0,5.093423654749477,0.5945589687181666,7.9100948652873555,-0.13880310632721657,0.026,0.9999999999998094,-96.92656829943363,0.8791907481884548,177,2026-10-07 21:01:43.270243,113.4,0.4406147378390786,1.8255588684341628,3.0373778799869844
0897,cdot_cos,S,R-S,178,35,27218,-0.002500745263860195,-0.057587383754664344,-0.032682163057589954,0.023982472569879634,699.0,5.109380891028392,0.5945876843403838,7.932791404105165,-0.028309658288852436,0.032,0.9999999999998035,3847.85143092812,0.8841578847426789,178,2026-10-07 21:01:43.302243,113.4,0.02018066953531316,0.47327068056070287,0.4986636337160899
0897,cdot_cos,T,S-T,179,35,27468,-0.14976245376140054,-0.10757246001724861,-0.14726170849754036,5.591250383860918e-08,699.0,5.123712978305362,0.5945876844073302,7.955043315885267,-0.025501973638882285,0.25,0.9999999999997976,41939262.16709598,0.8891252440409066,179,2026-10-07 21:01:43.552243,113.4,0.8957474593264028,0.19053137773381223,0.05732834910788043
0897,cdot_cos,P,T-P,180,36,27748,0.032685326315614265,-0.0024112077929034064,0.18244778007701482,0.9999999989657387,721.0,5.204646579895298,0.595784464873066,7.993289721768,-0.14521346373371585,0.28,0.9999999999997973,-100.02794457480874,0.8940926366730602,180,2026-10-07 21:01:43.832243,113.4,0.43850552963311756,0.17182656632377866,0.2890485771069143
0897,cdot_cos,Q,P-Q,181,36,27859,-0.0056734606822461215,-0.00818625707697277,-0.038358786997860383,0.012743778055998127,721.0,5.219935855446678,0.5957997090603588,8.015667720778426,-0.027687709150759337,0.111,0.9999999999997906,7709.545436923916,0.8990598548024498,181,2026-10-07 21:01:43.943244,113.4,0.014340172008668276,0.4286744826201068,0.137741221183604
0897,cdot_cos,R,Q-R,182,36,27885,0.027429557068065852,0.06762235649478752,0.03310301775031197,0.9771096222698559,721.0,5.299812315036962,0.5969679811443923,8.053540823426466,-0.14583414830462751,0.026,0.9999999999997897,-101.12921533309796,0.904026984119546,182,2026-10-07 21:01:43.969243,113.4,0.4447946855989891,1.8435374593419938,3.072171522703218
0897,cdot_cos,S,R-S,183,36,27917,-0.006220811947170954,-0.07080710517605807,-0.033650369015236804,0.021542453155492653,721.0,5.315799803332462,0.5969937258407093,8.075983890230154,-0.029454482239394262,0.032,0.9999999999997845,4520.529767849391,0.9089941204820604,183,2026-10-07 21:01:44.001244,113.4,0.019232187290583774,0.4764771033488463,0.49960900923437523
0897,cdot_cos,T,S-T,184,36,28168,-0.09518186421458491,-0.04703012609139798,-0.08896105226741395,4.156613045294683e-05,721.0,5.330306849651288,0.596993775514545,8.098020029320459,-0.026803771722636323,0.251,0.999999999999778,53362.30791915092,0.9139614920164488,184,2026-10-07 21:01:44.252243,113.4,0.9058394546539097,0.1922960820218439,0.05779699728615998
0897,cdot_cos,P,T-P,185,37,28469,0.029408674409121212,0.0018527538287495102,0.12459053862370612,0.9999992687919526,758.0,5.412332436507428,0.5981882522538282,8.136242411681353,-0.15277958921659923,0.301,0.9999999999997776,-105.46527475249243,0.918928920247383,185,2026-10-07 21:01:44.553244,113.4,0.43842820434468627,0.16281636824384196,0.27251025533601153
0897,cdot_cos,Q,P-Q,186,37,28579,-0.004736887516063011,-0.006080154225550187,-0.034145561925184226,0.02039006444445223,758.0,5.428322303334081,0.5982125956587787,8.158534710157795,-0.030053618416081642,0.11,0.9999999999997708,5041.446381476633,0.9238961410995693,186,2026-10-07 21:01:44.663244,113.4,0.016847260564880732,0.43839010306591,0.14536242569684887
0897,cdot_cos,R,Q-R,187,37,28613,0.025899827402343038,0.06868004172894061,0.030636714918406048,0.9699448000006233,758.0,5.508778259181928,0.5993700373904423,8.196264655795424,-0.15242048707696434,0.034,0.9999999999997703,-105.72183921950847,0.928863278668252,187,2026-10-07 21:01:44.697243,113.4,0.44806172112778114,1.4263149826906547,2.3663516425837297
0897,cdot_cos,S,R-S,188,37,28640,-0.005784680239772378,-0.055748053945129855,-0.03168450764211542,0.026778218782428805,758.0,5.525311722157046,0.5994019763625064,8.218588504525922,-0.031598892170064175,0.027,0.9999999999997637,3782.889275972878,0.9338304090359095,188,2026-10-07 21:01:44.724244,113.4,0.021848953774581133,0.5779435836044781,0.6123504805599151
0897,cdot_cos,T,S-T,189,37,28907,-0.13819667435498453,-0.06854881289374212,-0.13241199411521215,3.011912373653623e-07,758.0,5.53998721269657,0.599401976721739,8.24041746377235,-0.02812725134144694,0.267,0.9999999999997575,9664046.09981505,0.9387978099445541,189,2026-10-07 21:01:44.991244,113.4,0.8838868357779233,0.18310836857357227,0.05496438404316144
0897,cdot_cos,P,T-P,190,38,29227,0.032461721147067704,-0.00024413933090999658,0.17065839550205225,0.9999999960622725,739.0,5.623091590975333,0.6005940919507108,8.278621003756179,-0.16052693695768994,0.32,0.9999999999997573,-111.06282547068882,0.9437652738397814,190,2026-10-07 21:01:45.311244,113.4,0.43833065416112965,0.1544324055661947,0.2597011821211359
0897,cdot_cos,Q,P-Q,191,38,29337,-0.005125084869622829,-0.00701663160724684,-0.03758680601669053,0.013893492516546563,739.0,5.638823952258934,0.600610646238139,8.300607143880669,-0.030657746303406286,0.11,0.9999999999997496,7845.048675009586,0.9487324983207296,191,2026-10-07 21:01:45.421243,113.4,0.014463932898596777,0.4432027128078321,0.14302146621455558
0897,cdot_cos,R,Q-R,192,38,29366,0.026790411448219368,0.064645136215027,0.0319154963178422,0.9738960335571117,739.0,5.720596187793056,0.601770481944729,8.338379292113947,-0.16057237930147178,0.029,0.999999999999749,-112.01123767780598,0.9536996295998798,192,2026-10-07 21:01:45.450243,113.4,0.4452710391675193,1.6954055208317287,2.8197322597973082
0897,cdot_cos,S,R-S,193,38,29396,-0.005738328387980307,-0.057338975344183314,-0.03252873983619967,0.024393107997113573,739.0,5.737157472467175,0.6017995176678602,8.360468993484954,-0.03280134527068098,0.03,0.9999999999997425,4400.477076239878,0.9586667627193699,193,2026-10-07 21:01:45.480243,113.4,0.020337300998121265,0.5234200274469785,0.5520428224706109
0897,cdot_cos,T,S-T,194,38,29647,-0.13397247090465192,-0.06164308692942874,-0.12823414251667162,4.837235625698483e-07,739.0,5.752001389439875,0.6017995182436413,8.382100260259369,-0.02948050448993224,0.251,0.9999999999997358,5767540.5487615755,0.9636341569868955,194,2026-10-07 21:01:45.731244,113.4,0.8934675014404193,0.19723564517655373,0.059139111445021424
0897,cdot_cos,P,T-P,195,39,29966,0.02367825881742782,0.0016870162587256578,0.15765072972207975,0.9999999827868596,720.0,5.8361697663458045,0.602989224388997,8.420289261965822,-0.1684302822507787,0.319,0.9999999999997354,-116.79335969076496,0.9686016349900659,195,2026-10-07 21:01:46.050244,113.4,0.43824853569745315,0.1591152666425165,0.2638507113038545
0897,cdot_cos,Q,P-Q,196,39,30077,-0.005693340676304606,-0.00834979280301282,-0.029371599493732428,0.03453157141969095,720.0,5.8535169295578005,0.6030302851552488,8.442427093072475,-0.03501647032322318,0.111,0.9999999999997276,3249.17979147108,0.973568864537099,196,2026-10-07 21:01:46.161243,113.4,0.02214750851175216,0.44555859441542833,0.1562807496576209
0897,cdot_cos,R,Q-R,197,39,30109,0.021465634086159795,0.06635339812240716,0.0271589747624644,0.9560529474650142,720.0,5.93508377430603,0.6041665294745544,8.47988446890913,-0.165878298075399,0.032,0.9999999999997273,-115.17050121064746,0.9785359988704432,197,2026-10-07 21:01:46.193243,113.4,0.45434309844698584,1.6146821869275212,2.5489638983821616
0897,cdot_cos,S,R-S,198,39,30138,0.0017174163675792828,-0.07981030256218596,-0.019748217718580513,0.09626356291981747,720.0,5.956856589521162,0.6042808741651038,8.50298874310259,-0.04466195363432536,0.029,0.9999999999997209,1060.0959594946996,0.9835031302153485,198,2026-10-07 21:01:46.222244,113.4,0.06626554934247102,0.6346539792954535,0.7507867315562824
0897,cdot_cos,T,S-T,199,39,30388,-0.07371008610278017,-0.0451741860737445,-0.07542750247035945,0.00019283577567726296,720.0,5.971893705105166,0.6042811032096684,8.524437120493095,-0.03094067840612255,0.25,0.9999999999997133,59906.574291730205,0.9884705354636603,199,2026-10-07 21:01:46.472243,113.4,0.6418052267565865,0.20053795132309915,0.06014846233601645
0897,cdot_cos,P,T-P,200,40,30686,0.03210166451415995,-0.0023433133932835785,0.10581175061694012,0.9999938500011921,699.0,6.057125565182711,0.6054682485126615,8.562617314034542,-0.1766647860550021,0.298,0.999999999999713,-122.75170299834505,0.9934380033834658,200,2026-10-07 21:01:46.770243,113.4,0.43829537657319617,0.16989087332171462,0.2860129532803539
0897,cdot_cos,Q,P-Q,201,40,30797,-0.00624412932778779,-0.009551033687588787,-0.038345793841947744,0.01276232906822367,699.0,6.073148665604908,0.6054833913376456,8.584211954370847,-0.03349108657359883,0.111,0.999999999999705,9454.887026110904,0.9984052372047759,201,2026-10-07 21:01:46.881243,113.4,0.013912337679703101,0.45021823988841864,0.14435225605582394
0897,cdot_cos,R,Q-R,202,40,30824,0.026089113243443922,0.07427325180782375,0.03233324257123171,0.9750737029324007,699.0,6.15707401443794,0.6066397400886853,8.621974050189932,-0.17668241481214464,0.027,0.9999999999997049,-123.8305728352329,1.003372364848419,202,2026-10-07 21:01:46.908243,113.4,0.4446602778681432,1.8880359988389352,3.1083462530752772
0897,cdot_cos,S,R-S,203,40,30856,-0.0020132106823613437,-0.06805397153204987,-0.028102323925805264,0.039665360424477145,699.0,6.17510260954221,0.606686754407997,8.64395906756674,-0.03826918698954278,0.032,0.9999999999996972,2944.0653368768994,1.0083394996429242,203,2026-10-07 21:01:46.940243,113.4,0.026867653142935936,0.5190568550710456,0.563393597008438
0897,cdot_cos,T,S-T,204,40,31106,-0.1184518323987584,-0.07327811106129888,-0.11643862171639704,1.842952697584381e-06,699.0,6.190293653162487,0.606686756592355,8.665223479408638,-0.0323327971218743,0.25,0.9999999999996899,2717681.713411161,1.01330691702453,204,2026-10-07 21:01:47.190243,113.4,0.8322663713975162,0.20292757614761747,0.0607641744811076
0897,cdot_cos,P,T-P,205,41,31385,0.03681785537026941,-0.00288986748842267,0.1552696877690278,0.9999999774511691,719.0,6.276566397616019,0.6078713754266449,8.703397051736463,-0.18493342022837986,0.279,0.9999999999996899,-128.8183326900938,1.0182743749990075,205,2026-10-07 21:01:47.469243,113.4,0.43816260103564436,0.1829983320112378,0.30922130628506034
0897,cdot_cos,Q,P-Q,206,41,31495,-0.006014343366754611,-0.008618868573425675,-0.04283219873702402,0.007712493554891259,719.0,6.292406722424758,0.6078805068776462,8.724730183911527,-0.034233008622034544,0.11,0.9999999999996811,16503.44634012869,1.0232416118258016,206,2026-10-07 21:01:47.579243,113.4,0.012250409168188222,0.4602777217543753,0.14400295280671702
0897,cdot_cos,R,Q-R,207,41,31522,0.029168443549479325,0.07084315996123693,0.03518278691623394,0.9818314581975157,719.0,6.377827496401982,0.6090423589446253,8.7625972411511,-0.18589589988796557,0.027,0.9999999999996813,-130.5354576338254,1.0282087389794237,207,2026-10-07 21:01:47.606244,113.4,0.44226390674366817,1.898149912623332,3.163732369526804
0897,cdot_cos,S,R-S,208,41,31553,-0.003648847785682668,-0.08873588936734672,-0.032817291335161994,0.023626393812268318,719.0,6.394906817706418,0.6090703021112064,8.784140430004895,-0.03746839660759141,0.031,0.9999999999996739,5311.763892249595,1.0331758722280826,208,2026-10-07 21:01:47.637243,113.4,0.019036344536662884,0.5232152584707196,0.5509458485302011
0897,cdot_cos,T,S-T,209,41,31805,-0.08630367765036764,-0.04807207977643438,-0.08265482986468498,8.497591571256704e-05,719.0,6.410266842427166,0.6090704026117605,8.805232282330921,-0.033782203871999636,0.252,0.999999999999666,36678.332458600846,1.0381433047035444,209,2026-10-07 21:01:47.889244,113.4,0.8966260371184737,0.20368714855183398,0.0609524790505888
0897,cdot_cos,P,T-P,210,42,32104,0.036226414028077795,-0.00031043178592626283,0.12253009167844545,0.9999990763321688,761.0,6.497565140576542,0.6102524532071057,8.843401920590184,-0.193328759131908,0.299,0.9999999999996658,-134.97438763465678,1.0431108041481827,210,2026-10-07 21:01:48.188244,113.4,0.43812092227740107,0.17297979207404263,0.29196755233905003
0897,cdot_cos,Q,P-Q,211,42,32215,-0.00467807306600936,-0.00610212108229989,-0.04090448709408716,0.009578886783602037,761.0,6.513708758087444,0.6102637697095294,8.864597124364499,-0.03603741116763883,0.111,0.9999999999996572,13899.289910891106,1.0480780465376494,211,2026-10-07 21:01:48.299244,113.4,0.012718872681167327,0.46089641456281594,0.1454379955937076
0897,cdot_cos,R,Q-R,212,42,32244,0.02893484315067229,0.0651745391786692,0.03361291621668165,0.9783678417230565,761.0,6.599884144609487,0.6114189866895919,8.90239868759595,-0.19367336092834908,0.029,0.9999999999996572,-136.45570700681972,1.053045175827642,212,2026-10-07 21:01:48.328243,113.4,0.44311459804963377,1.7726745202866212,2.971565052484262
0897,cdot_cos,S,R-S,213,42,32274,-0.007925966704837936,-0.059336975429732305,-0.036860809855510226,0.015067754767219107,761.0,6.616523880264068,0.6114367683353298,8.9236297183567,-0.03768926347050732,0.03,0.9999999999996492,8772.196890968542,1.058012307236252,213,2026-10-07 21:01:48.358243,113.4,0.01594375810966326,0.5358900186639648,0.5546578551526812
0897,cdot_cos,T,S-T,214,42,32524,-0.12483045469758768,-0.04223188041436356,-0.11690448799274974,1.7481181587133998e-06,761.0,6.632037545729325,0.6114367703982886,8.944552702517365,-0.035224184067897124,0.25,0.9999999999996412,1194924.2021165018,1.0629797493883957,214,2026-10-07 21:01:48.608243,113.4,0.9324100590880536,0.20764799370108378,0.062054661861029814
0897,cdot_cos,P,T-P,215,43,32865,0.023477687246514622,0.0015195250252036188,0.1483081419441023,0.9999999503438379,819.0,6.72034787711461,0.6126162177195191,8.98272101327748,-0.20185743500338127,0.341,0.9999999999996412,-141.28079138085806,1.067947324080699,215,2026-10-07 21:01:48.949243,113.4,0.4380160635362723,0.15647354957718768,0.2589745788424763
0897,cdot_cos,Q,P-Q,216,43,32975,-0.00495419748574263,-0.00552101001492352,-0.028431884732257252,0.03826601483305217,819.0,6.738752506540967,0.6126613243512004,9.004249889182589,-0.04240323240338118,0.11,0.9999999999996323,3535.050094781808,1.0729145690803776,216,2026-10-07 21:01:49.059244,113.4,0.023273831854484006,0.4799903083606015,0.16731481296688697
0897,cdot_cos,R,Q-R,217,43,33012,0.028798905957566266,0.061193541358600625,0.033753103443308896,0.9787017477419109,819.0,6.825945744953942,0.6138143250763072,9.042053779017113,-0.2022416369513701,0.037,0.9999999999996321,-138.6281908306521,1.0778817092316513,217,2026-10-07 21:01:49.096244,113.4,0.4536933202213275,1.40149337187624,2.3565740111614804
0897,cdot_cos,S,R-S,218,43,33036,-0.010865918302185968,-0.06367615141323141,-0.039664824259752235,0.011008793572847998,819.0,6.842463016059809,0.6138272872172609,9.063055438228684,-0.03860366752097979,0.024,0.9999999999996239,12624.301032901549,1.0828488310370978,218,2026-10-07 21:01:49.120243,113.4,0.014423118937665224,0.670687726244327,0.6882196294111242
0897,cdot_cos,T,S-T,219,43,33304,-0.1530892533670262,-0.02482407818613365,-0.14222333506484022,9.900194947343557e-08,819.0,6.85813875581367,0.6138272873338284,9.083818472755892,-0.036723156619367175,0.268,0.9999999999996155,16132372.768851606,1.0878163121959388,219,2026-10-07 21:01:49.388243,113.4,0.950081253097268,0.1958783792734179,0.058491566245748944
0897,cdot_cos,P,T-P,220,44,33684,0.022123817676719684,0.001552053169596855,0.1752130710437459,0.9999999976507326,837.0,6.947453827350361,0.6150040474374096,9.12198843549179,-0.21060000836863926,0.38,0.9999999999996154,-147.75896227287632,1.0927839628569092,220,2026-10-07 21:01:49.768243,113.4,0.43796072399346453,0.1422319013041129,0.23503966193866124
0897,cdot_cos,Q,P-Q,221,44,33773,-0.005731573282063007,-0.004527242215423236,-0.027855390958782693,0.04074587840268757,837.0,6.9662350008047955,0.6150519671547124,9.14340925486929,-0.044629646782141236,0.089,0.9999999999996058,3463.508779432732,1.0977511800340438,221,2026-10-07 21:01:49.857243,113.4,0.02426217930745871,0.6018291138051614,0.21102442083634304
0897,cdot_cos,R,Q-R,222,44,33831,0.02904159003160763,0.058105171565641246,0.034773163313670634,0.9809840242559855,837.0,7.05457940960768,0.6162049905637444,9.181252031437419,-0.21131059959699283,0.058,0.9999999999996058,-144.5599035623958,1.1027183515098924,222,2026-10-07 21:01:49.915244,113.4,0.45439155974473133,0.903866366597182,1.523179462118693
0897,cdot_cos,S,R-S,223,44,33855,-0.012887825137433525,-0.06665759782499699,-0.041929415169041154,0.008536799333889072,837.0,7.071083499330069,0.616215018787188,9.202057053236258,-0.03977088057034041,0.024,0.9999999999995969,17105.6937445098,1.1076854718312181,223,2026-10-07 21:01:49.939244,113.4,0.013390645436488711,0.6758397450820075,0.6876704050995386
0897,cdot_cos,T,S-T,224,44,34103,-0.07121683962893732,-0.009008218708025302,-0.058329014491503794,0.0013389760263312592,837.0,7.087019717371616,0.6162165916804594,9.222689921687042,-0.03849058066049125,0.248,0.999999999999588,813.9776125460043,1.1126529358367856,224,2026-10-07 21:01:50.187244,113.4,0.9672844388740891,0.21420169523535662,0.06425894371591707
0897,cdot_cos,P,T-P,225,45,34521,0.025126507648917155,-0.0016186198093549225,0.09634334727785449,0.9999820038655804,727.0,7.1773275401668055,0.617390588130595,9.260863398314196,-0.21950143472016173,0.418,0.9999999999995882,-154.18347648220086,1.1176206659697154,225,2026-10-07 21:01:50.605243,113.4,0.4383904069157378,0.12985130509118206,0.2160474229549987
0897,cdot_cos,Q,P-Q,226,45,34632,-0.005227389583622557,-0.007389960047175757,-0.030353897232539714,0.03100436980816304,727.0,7.195575408427844,0.6174269659987379,9.28196733770069,-0.044689048125893756,0.111,0.9999999999995777,4805.459899614193,1.1225879199253816,226,2026-10-07 21:01:50.716243,113.4,0.020005459695496722,0.4851854507418448,0.16439520955890763
0897,cdot_cos,R,Q-R,227,45,34652,0.030524123980782122,0.06634717299251544,0.03575151356440468,0.9829468755808618,727.0,7.285038710231495,0.6185795875745026,9.319846020076348,-0.2204833748841977,0.02,0.9999999999995777,-152.5169495822404,1.12755503167743,227,2026-10-07 21:01:50.736243,113.4,0.4505378003585751,2.657648448180594,4.47316509018254
0897,cdot_cos,S,R-S,228,45,34674,-0.009268015778979984,-0.07721945097071005,-0.039792139759762105,0.01085270765552194,727.0,7.301881346355068,0.6185923062351215,9.340543792822821,-0.04181308092527598,0.022,0.9999999999995677,14047.88596160808,1.1325221473085754,228,2026-10-07 21:01:50.758244,113.4,0.013938900814846524,0.7468733022978246,0.765574369253316
0897,cdot_cos,T,S-T,229,45,34943,-0.08008226851013191,-0.03730493593642571,-0.07081425273115192,0.0003253328826467089,727.0,7.317901135532599,0.6185926875013832,9.361010789919163,-0.039859885577004914,0.269,0.9999999999995588,5122.916829041786,1.1374896572715927,229,2026-10-07 21:01:51.027244,113.4,0.9521796735941164,0.19946306126811397,0.05955311961907557
0897,cdot_cos,P,T-P,230,46,35248,0.03810970503106507,0.0013009028199862372,0.11819197354119698,0.9999984893511692,675.0,7.409192473317313,0.619763919773891,9.399190136762373,-0.22854443855981899,0.305,0.9999999999995586,-161.0991751267295,1.1424572283232453,230,2026-10-07 21:01:51.332243,113.4,0.4379754561666067,0.1761750939793794,0.2993158615892262
0897,cdot_cos,Q,P-Q,231,46,35368,-0.02170303974250305,-0.023742389401844036,-0.05981274477356811,0.0011318545996911642,675.0,7.425367942860021,0.619765244653745,9.419621263348418,-0.04079013564568592,0.12,0.9999999999995481,141714.21079467188,1.1474245014437583,231,2026-10-07 21:01:51.452243,113.4,0.010022386712614267,0.44631111573409193,0.13479557952256194
0897,cdot_cos,R,Q-R,232,46,35392,0.01862603798304607,0.08458794257277226,0.04032907772554912,0.9897818338133799,675.0,7.516307141093495,0.6209231379125499,9.457624572719999,-0.23070656323619343,0.024,0.999999999999548,-164.0189422870711,1.1523916185659029,232,2026-10-07 21:01:51.476243,113.4,0.4390268384216057,3.1451420107578656,3.7891332597281093
0897,cdot_cos,S,R-S,233,46,35422,0.02141055414892854,-0.08355695474085387,0.0027845161658824717,0.5782915935163033,675.0,7.576334759376398,0.621599014513604,9.488302262369512,-0.15371752721845777,0.03,0.9999999999995439,113.9098999694143,1.1573587466487958,233,2026-10-07 21:01:51.506243,113.4,0.6060168553384067,1.2711453232013468,2.0009206094300978
0897,cdot_cos,T,S-T,234,46,35683,-0.08822184981265609,-0.09052983540794508,-0.10963240396158463,3.987609629812746e-06,675.0,7.592575860485576,0.6215990191724864,9.508641691691572,-0.04180006716862005,0.261,0.9999999999995345,24022383.62282241,1.1623262623021768,234,2026-10-07 21:01:51.767244,113.4,0.06873842673800017,0.208031814964385,0.062226441031332826
0897,cdot_cos,P,T-P,235,47,35923,0.07575191598207295,-0.005789809261255218,0.16397376579472905,0.999999991596563,658.0,7.684927366787807,0.6227666511439124,9.54683721487337,-0.2390981469491718,0.24,0.9999999999995338,-168.97283100221804,1.16729374548431,235,2026-10-07 21:01:52.007244,113.4,0.4381578199131519,0.22643345482888932,0.3847979429259629
0897,cdot_cos,Q,P-Q,236,47,36012,-0.015176477567546543,-0.018203289955221663,-0.0909283935496195,3.325474534757811e-05,658.0,7.701263918803443,0.6227666899496176,9.56712877625514,-0.04259626108091742,0.089,0.9999999999995236,5063737.01576639,1.1722609733159395,236,2026-10-07 21:01:52.096244,113.4,0.009920765328939755,0.5971639173855163,0.1835567642206267
0897,cdot_cos,R,Q-R,237,47,36071,0.013630841179985387,0.08894539154392646,0.02880731874753193,0.9632703559114862,658.0,7.791222544082429,0.6238900895916053,9.604671228262344,-0.23590177646283017,0.059,0.9999999999995237,-172.07190402863552,1.177228150815089,237,2026-10-07 21:01:52.155244,113.4,0.44068179567720767,1.3368776160306803,1.5247224623556972
0897,cdot_cos,S,R-S,238,47,36098,0.019892189722041865,-0.08114445802301617,0.006261348542056478,0.6704093187596347,658.0,7.859015477495063,0.6246711594993013,9.63696268330927,-0.17943749039510187,0.027,0.9999999999995208,72.29095054280975,1.182195273992462,238,2026-10-07 21:01:52.182244,113.4,0.730026933197835,1.560855802083016,2.5108493856531164
0897,cdot_cos,T,S-T,239,47,36362,-0.10184182085057207,-0.1362977467864224,-0.12173401057261393,1.0109320712297432e-06,658.0,7.875508757394912,0.6246711606766141,9.65718719296641,-0.04389030312253895,0.264,0.9999999999995111,115132687.71893062,1.1871628147310804,239,2026-10-07 21:01:52.446244,113.4,0.04557857997532611,0.20815009130200252,0.06247454507518455
0897,cdot_cos,P,T-P,240,48,36581,0.06694870154123783,-0.00048200673593390067,0.16879052239180992,0.9999999951332781,700.0,7.968918725702521,0.6258350191546855,9.695399971825127,-0.24999837195430008,0.219,0.9999999999995113,-177.09031872439647,1.192130278677534,240,2026-10-07 21:01:52.665244,113.4,0.43848150575543954,0.2511908490440885,0.4265295356511809
0897,cdot_cos,Q,P-Q,241,48,36672,-0.003381306980952853,-0.003603854695449168,-0.07033000852219068,0.0003436912898336053,700.0,7.985530349276223,0.6258354189134243,9.71558403992796,-0.044767335746184966,0.091,0.9999999999995002,513387.2416030883,1.197097515557258,241,2026-10-07 21:01:52.756243,113.4,0.01020995091236349,0.5817066458147289,0.18254531399672705
0897,cdot_cos,R,Q-R,242,48,36730,0.021033861852577357,0.0887053796805031,0.02441516883353021,0.9409597053006911,700.0,8.074789335240801,0.6269292348138629,9.752735794300323,-0.2418578996159254,0.058,0.9999999999995003,-180.18623041658003,1.2020646941480797,242,2026-10-07 21:01:52.814244,113.4,0.4426825658193041,0.9971679887472411,1.5389480338720427
0897,cdot_cos,S,R-S,243,48,36755,0.003944175640645971,-0.060380708560988,-0.017089686211931385,0.125870996986172,700.0,8.101201835970903,0.6270754550460284,9.775144660124791,-0.07207185048911688,0.025,0.9999999999994909,1161.1665951580103,1.2070318136181493,243,2026-10-07 21:01:52.839243,113.4,0.09481869595779403,0.8612898533477065,1.0565000292040594
0897,cdot_cos,T,S-T,244,48,37021,-0.16379682316992292,-0.12853842440198948,-0.1677409988105689,5.4818167313912985e-09,700.0,8.117853827908187,0.6270754550523959,9.79523746826733,-0.045559302861230826,0.266,0.9999999999994806,4163681682.797718,1.211999373644815,244,2026-10-07 21:01:53.105243,113.4,0.558816075538566,0.20868158380976706,0.06260147344843547
0897,cdot_cos,P,T-P,245,49,37281,0.055948206954336735,-0.002941763045224985,0.21974503012425967,0.9999999999849416,778.0,8.212220438557699,0.6282362950717132,9.83345930814478,-0.25962166043981916,0.26,0.9999999999994812,-184.40297889151552,1.2169669258283824,245,2026-10-07 21:01:53.365243,113.4,0.4384469053408543,0.21386065209564406,0.362948502498124
0897,cdot_cos,Q,P-Q,246,49,37391,-0.0029531395963702215,-0.0036470235313592852,-0.05890134655070696,0.0012549388586353763,778.0,8.229061366997922,0.6282377509288695,9.853530129185431,-0.046648272189298394,0.11,0.999999999999469,146287.28329061862,1.2219342017367607,246,2026-10-07 21:01:53.475244,113.4,0.010404519087431662,0.5003595997698941,0.15309934945656972
0897,cdot_cos,R,Q-R,247,49,37423,0.03151592658851071,0.06980196171953801,0.03446906618488094,0.9803299515625594,778.0,8.322299550507076,0.6293743208449882,9.891399953358942,-0.2596668017615916,0.032,0.99999999999947,-187.4222839715154,1.2269013329276681,247,2026-10-07 21:01:53.507244,113.4,0.4402760574001355,1.7330012639389936,2.9136932346610633
0897,cdot_cos,S,R-S,248,49,37451,-0.008326283751958178,-0.05055801751058208,-0.03984221034046889,0.010791923685615167,778.0,8.339973447890017,0.629386824785938,9.911599712702532,-0.049550679105481756,0.028,0.999999999999459,16803.991917456202,1.2318684573657344,248,2026-10-07 21:01:53.535244,113.4,0.014401416378588487,0.6155610360618307,0.6312106208193414
0897,cdot_cos,T,S-T,249,49,37720,-0.1616597948266847,-0.03776694950634018,-0.1533335110747265,2.8085281609783935e-08,778.0,8.356770968526538,0.6293868248184784,9.93156266687187,-0.04719109206595584,0.269,0.9999999999994489,72512506.47876926,1.2368360381047359,249,2026-10-07 21:01:53.804243,113.4,0.9512287706848633,0.20836321353688925,0.0624443146339069
0897,cdot_cos,P,T-P,250,50,38059,0.02033264212606511,-0.0012118184657395681,0.1819924369527498,0.9999999989109307,879.0,8.452072856772864,0.6305447089968251,9.969793477215957,-0.2691916030381293,0.339,0.9999999999994489,-191.72946234497746,1.2418037558261021,250,2026-10-07 21:01:54.143244,113.4,0.4383694205152876,0.16873980450096077,0.28112651400096006
0897,cdot_cos,Q,P-Q,251,50,38168,-0.01089743286589305,-0.00952302681461882,-0.03123007499195816,0.028154476397898205,879.0,8.47117655597819,0.6305772869531455,9.990229488561155,-0.05432599181069589,0.109,0.9999999999994371,6595.429409823158,1.246771034050701,251,2026-10-07 21:01:54.252243,113.4,0.019156442111686225,0.5247655352521168,0.175263295461706
0897,cdot_cos,R,Q-R,252,50,38193,0.035347292592140055,0.04946302486323781,0.046244725458033105,0.9947494176359973,879.0,8.566471743457825,0.6317275605469385,10.028370625914365,-0.27247335438163034,0.025,0.9999999999994372,-189.64823999098363,1.2517381507270418,252,2026-10-07 21:01:54.277244,113.4,0.44905088579068636,2.247617115455718,3.81180749918542
0897,cdot_cos,S,R-S,253,50,38226,-0.023000023088049572,-0.07521017954133752,-0.058347315680189624,0.0013362037668283068,879.0,8.583557411750975,0.6317291046557085,10.048273037224757,-0.049174466725690626,0.033,0.9999999999994255,144613.4443275224,1.2567052838538846,253,2026-10-07 21:01:54.310244,113.4,0.01066325147030504,0.5276138424658252,0.5177475240348604
0897,cdot_cos,T,S-T,254,50,38479,-0.06353930284497379,0.0097088825002141,-0.040539279756924215,0.009979878770065533,879.0,8.60129425706057,0.6317406372562097,10.068295495667014,-0.05115161050993564,0.253,0.9999999999994147,-171.43954514433767,1.2616728484230875,254,2026-10-07 21:01:54.563244,113.4,0.9620848597515099,0.22523780341677427,0.07010610794305958
0897,cdot_cos,P,T-P,255,51,38938,0.03539966344651906,-0.0008723992602744763,0.09893896629149285,0.9999865924447479,859.0,8.697527740279863,0.6328954414076636,10.10653638210502,-0.2790029870812617,0.459,0.9999999999994151,-197.30737570041387,1.2666408236649638,255,2026-10-07 21:01:55.022244,113.4,0.4419038930403199,0.12455164394253289,0.20965900483506253
0897,cdot_cos,Q,P-Q,256,51,39009,-0.0024980029408129363,-0.0014151684285836576,-0.037897666387331996,0.013418714692310546,859.0,8.715632666199815,0.6329109272684833,10.126581781081832,-0.05283636530186485,0.071,0.9999999999994014,14604.717452454954,1.271608029664636,256,2026-10-07 21:01:55.093244,113.4,0.013835595817098678,0.8049718004298198,0.2549989566190352
0897,cdot_cos,R,Q-R,257,51,39066,0.04340596048671999,0.05932862117239244,0.045903963427532925,0.9945436800197078,859.0,8.811833735940898,0.6340579142984957,10.164728595930491,-0.28221799034952394,0.057,0.9999999999994016,-199.9862413833793,1.27657520884634,257,2026-10-07 21:01:55.150244,113.4,0.44362231293854665,0.9948426358087328,1.6877380656330332
0897,cdot_cos,S,R-S,258,51,39090,-0.017051750927438096,-0.03956440042730205,-0.06045771141415809,0.001052110493102915,859.0,8.82904472668201,0.6340591268742193,10.184504620708198,-0.05081726638911621,0.024,0.9999999999993892,190834.03985019366,1.2815423221588695,258,2026-10-07 21:01:55.174243,113.4,0.01052939251281223,0.7146865682334061,0.7171246142130272
0897,cdot_cos,T,S-T,259,51,39358,-0.16000050684916786,0.013653385243436636,-0.14294875592172976,9.118376120271547e-08,859.0,8.846138691216101,0.63405912697931,10.204222935215455,-0.050569883055078715,0.268,0.999999999999377,2353998.034993471,1.2865099306347525,259,2026-10-07 21:01:55.442244,113.4,0.9951200355615332,0.2131500326773188,0.06378344975407031
0897,cdot_cos,P,T-P,260,52,39797,0.02386243063903284,-0.0015882322981312187,0.1838629374882007,0.9999999991190824,779.0,8.943293144197053,0.6352108743348254,10.242474742430282,-0.28888763536173295,0.439,0.9999999999993769,-206.9184280436342,1.2914778924042036,260,2026-10-07 21:01:55.881243,113.4,0.4382570602372541,0.13391817474611648,0.22130854893155363
0897,cdot_cos,Q,P-Q,261,52,39888,-0.004070071690114509,-0.0036977471102800042,-0.02793250232914735,0.040405465916856724,779.0,8.963718848643191,0.6352573788022167,10.26290447872958,-0.06113373178667073,0.091,0.9999999999993627,4897.462896601072,1.2964451408063309,261,2026-10-07 21:01:55.972243,113.4,0.024100973640010865,0.6439105182503013,0.2244582906169036
0897,cdot_cos,R,Q-R,262,52,39924,0.03660994128671521,0.06175105842093416,0.040680012976829716,0.9901765752463201,779.0,9.060484858518608,0.6363962267029576,10.300980306955339,-0.2911248289816659,0.036,0.9999999999993622,-201.950670537624,1.3014122763508627,262,2026-10-07 21:01:56.008243,113.4,0.4538409255543771,1.5868336652481072,2.687944718761573
0897,cdot_cos,S,R-S,263,52,39949,-0.015769632368762786,-0.06280991585860442,-0.05237957365547799,0.0026255296419714393,779.0,9.077970872541055,0.636399244421041,10.320668879587306,-0.05294075182543403,0.025,0.9999999999993493,78928.53824380039,1.306379389722308,263,2026-10-07 21:01:56.033243,113.4,0.011119347656388629,0.694591579861843,0.6994405608978838
0897,cdot_cos,T,S-T,264,52,40217,-0.1119057930452282,-0.025366551863252144,-0.09613616067646541,1.8423951187773328e-05,779.0,9.0952144375117,0.6363992655970317,10.34027164037398,-0.05230667062407598,0.268,0.9999999999993368,29943.401901820318,1.3113470131557745,264,2026-10-07 21:01:56.301243,113.4,0.9879508026223397,0.21513611671291263,0.0643416603382278
0897,cdot_cos,P,T-P,265,53,40576,0.03858631406231309,0.0008312686890220893,0.1504921071075413,0.9999999612372068,760.0,9.193283831099176,0.637547857911245,10.37853485477505,-0.298964305762594,0.359,0.9999999999993359,-214.74776740732975,1.316314832623856,265,2026-10-07 21:01:56.660243,113.4,0.4382172812009623,0.16158968311290242,0.2731737982938054
0897,cdot_cos,Q,P-Q,266,53,40687,-0.004292234668046895,-0.00560059826496113,-0.04287854873035998,0.007672372551843602,760.0,9.211235829986764,0.6375566642908624,10.398242407018998,-0.055073254700232444,0.111,0.9999999999993215,27694.814629600147,1.3212821268723507,266,2026-10-07 21:01:56.771244,113.4,0.011932560581852148,0.5174404966690693,0.16172971970799824
0897,cdot_cos,R,Q-R,267,53,40716,0.0304874313493626,0.06946702897220214,0.0347796660174095,0.9809977752326142,760.0,9.30815562135971,0.6386818950759567,10.436156100672214,-0.29878434998397235,0.029,0.9999999999993208,-216.58765340597725,1.3262492465761033,267,2026-10-07 21:01:56.800243,113.4,0.44234039404807457,1.9935327902493094,3.3420617714808825
0897,cdot_cos,S,R-S,268,53,40746,-0.005909038438735139,-0.07157401483054553,-0.03639646978809774,0.015869497004280576,760.0,9.326860731821224,0.6387000853514907,10.455978977611553,-0.058022897758929444,0.03,0.9999999999993076,13235.723217912995,1.3312163693050236,268,2026-10-07 21:01:56.830244,113.4,0.015773540803154646,0.601531551953342,0.6235036820504785
0897,cdot_cos,T,S-T,269,53,41016,-0.098833820059454,-0.042087229573916564,-0.09292478162071886,2.6517736316775273e-05,760.0,9.34424751447691,0.6387001157468868,10.475468728097484,-0.05403792728562747,0.27,0.9999999999992937,131104.41007708776,1.3361840124602544,269,2026-10-07 21:01:57.100243,113.4,0.9289095061106737,0.2154781398144927,0.06439549131735615
0897,cdot_cos,P,T-P,270,54,41336,0.01825684246441856,0.0013685237526338781,0.11709066252387257,0.9999982884015223,760.0,9.44321892732105,0.6398455511855522,10.513743374854554,-0.30909092516284353,0.32,0.9999999999992935,-222.66902984456985,1.3411517684646141,270,2026-10-07 21:01:57.420243,113.4,0.4381598763044101,0.18617646318966896,0.3092856651379372
0897,cdot_cos,Q,P-Q,271,54,41447,-0.011491739322393089,-0.016747130948667307,-0.02974858178681165,0.03313434576151708,760.0,9.463400450918298,0.6398834773458478,10.533819818062375,-0.06342438763435979,0.111,0.9999999999992787,6477.495628704082,1.3461190675444255,271,2026-10-07 21:01:57.531244,113.4,0.020788058288989004,0.5323710061488727,0.1818155279031372
0897,cdot_cos,R,Q-R,272,54,41482,0.024502845612477626,0.06580968414075503,0.03599458493487072,0.9834028185384178,760.0,9.5614052906861,0.6410083009393366,10.571788118231408,-0.30949963026252714,0.035,0.9999999999992779,-218.76785306835527,1.3510861996558639,272,2026-10-07 21:01:57.566243,113.4,0.4515476242351312,1.715158503030751,2.8001382790800426
0897,cdot_cos,S,R-S,273,54,41507,-0.0006116531995968896,-0.09519257890686446,-0.025114498812074518,0.05478561186261323,760.0,9.58346154613045,0.6410709196965352,10.59223834915957,-0.07008794779723536,0.025,0.9999999999992646,3823.3221669666123,1.3560533103263006,273,2026-10-07 21:01:57.591244,113.4,0.03284764596770042,0.7920279671880337,0.8822502177740432
0897,cdot_cos,T,S-T,274,54,41775,-0.0809236681634717,-0.03519013491905871,-0.08031201496387481,0.00011083218635883594,760.0,9.601006689045501,0.6410710463704302,10.61162240485308,-0.055868353768115574,0.268,0.9999999999992507,112253.54698868695,1.361020965647341,274,2026-10-07 21:01:57.859244,113.4,0.7752888159904191,0.21906732083482286,0.06546695117556195
0897,cdot_cos,P,T-P,275,55,42096,0.022806766661086084,0.0016366899685170033,0.10373043482455778,0.9999922128770804,818.0,9.700881630097916,0.6422131689199708,10.649909159048189,-0.31952453142964365,0.321,0.9999999999992502,-230.84753712951277,1.3659887442763292,275,2026-10-07 21:01:58.180243,113.4,0.4381685620176638,0.1878408607993038,0.31113688801375217
0897,cdot_cos,Q,P-Q,276,55,42185,-0.0058059663666217105,-0.004724031496072577,-0.028612733027707796,0.03751838354968902,818.0,9.721600521678655,0.6422559885293171,10.669966638170512,-0.06669546187721416,0.089,0.9999999999992352,5904.516024606582,1.3709559983973205,276,2026-10-07 21:01:58.269243,113.4,0.02257756216157521,0.6703975761747619,0.2327965346150403
0897,cdot_cos,R,Q-R,277,55,42245,0.028512002554359796,0.06314798510067869,0.034317968920981504,0.9799968123507451,818.0,9.820212398657024,0.6433736499063643,10.70788042605703,-0.31894447371512724,0.06,0.999999999999235,-225.6935929058848,1.375923187618289,277,2026-10-07 21:01:58.329243,113.4,0.4534424506022602,0.9780902785053651,1.6435312829728175
0897,cdot_cos,S,R-S,278,55,42267,-0.009902576552643958,-0.06398868852141212,-0.03841457910700376,0.01266442280098821,818.0,9.838971355099298,0.6433880831757439,10.727431981102045,-0.061036208598152404,0.022,0.9999999999992202,17869.012095092636,1.3808902901298148,278,2026-10-07 21:01:58.351244,113.4,0.014618079987967906,0.8281900989797804,0.8526798382852167
0897,cdot_cos,T,S-T,279,55,42535,-0.10702339564339311,-0.018358260888440957,-0.09712081909074916,1.6477456854315488e-05,818.0,9.856652763012134,0.6433881019544462,10.746708902568846,-0.0576368169402269,0.268,0.9999999999992056,181023.77953944574,1.3858579617562108,279,2026-10-07 21:01:58.619244,113.4,0.9427260782717439,0.2209827121847048,0.0659754026598342
0897,cdot_cos,P,T-P,280,56,42914,0.01849349890292399,-0.00103612880274568,0.1255168945463171,0.999999341707516,859.0,9.9574180888303,0.6445269479627054,10.785007709335703,-0.3299718465311078,0.379,0.9999999999992056,-239.13244426010078,1.3908258957821023,280,2026-10-07 21:01:58.998244,113.4,0.4380912411865556,0.163357137378148,0.2658715720795942
0897,cdot_cos,Q,P-Q,281,56,43024,-0.005227457182622297,-0.005415513754782999,-0.023720956085546287,0.06356861249443115,859.0,9.98047747314477,0.6445992877467286,10.805462378742506,-0.07597655765188303,0.11,0.9999999999991899,3511.142482782695,1.3957932021829413,281,2026-10-07 21:01:59.108243,113.4,0.03532817578446221,0.5612199308953353,0.2096307664951815
0897,cdot_cos,R,Q-R,282,56,43050,0.036278353274603034,0.05415566404375674,0.04150581045722533,0.9910468723850184,859.0,10.080886473627274,0.6457262229393235,10.843596603509123,-0.33240291270540856,0.026,0.9999999999991894,-227.54312469653058,1.4007603115802452,282,2026-10-07 21:01:59.134243,113.4,0.4623503532936909,2.277584442166115,3.8618846339424535
0897,cdot_cos,S,R-S,283,56,43082,-0.01849428680714494,-0.052262232358340675,-0.054772640081747974,0.002002773783962362,859.0,10.098911864137408,0.6457284986929,10.862844095428457,-0.06002500658508137,0.032,0.9999999999991743,119686.9067559294,1.4057274361567813,283,2026-10-07 21:01:59.166244,113.4,0.010697549895948066,0.5602527547560465,0.5632934534416933
0897,cdot_cos,T,S-T,284,56,43334,-0.10632770018316162,0.006708699945600094,-0.08783341337601669,4.723590223891946e-05,859.0,10.11674264993166,0.645728552367017,10.882020371689771,-0.05948246735904228,0.252,0.9999999999991595,10108.023328241197,1.4106950859146452,284,2026-10-07 21:01:59.418243,113.4,0.9909204761179782,0.23706743988810827,0.07075708648513011
0897,cdot_cos,P,T-P,285,57,43773,0.022989530991824055,-0.001324484791745203,0.12931723117498567,0.9999995721847713,801.0,10.218393853841015,0.6468640267653538,10.920331188887076,-0.34061115072447806,0.439,0.999999999999159,-247.58698547251637,1.4156631889688314,285,2026-10-07 21:01:59.857243,113.4,0.43807485887913533,0.14032941646032437,0.23155171733337993
0897,cdot_cos,Q,P-Q,286,57,43882,-0.004285808078658496,-0.004987458859157442,-0.02727533907048255,0.043395949817734515,801.0,10.239951877583826,0.6469132643730151,10.940305883982665,-0.0726693718775988,0.109,0.9999999999991419,5441.811484629302,1.420630497161473,286,2026-10-07 21:01:59.966244,113.4,0.02504365135457068,0.5627050160174766,0.19778003433771574
0897,cdot_cos,R,Q-R,287,57,43906,0.03540512887636873,0.059592417248436946,0.03969093695502723,0.9890233999273388,801.0,10.341063547332825,0.6480345760836005,10.978411866360274,-0.34238169023173015,0.024,0.9999999999991415,-240.53286504367972,1.425597599693204,287,2026-10-07 21:01:59.990243,113.4,0.4548655787078429,2.486106830564161,4.21298623954162
0897,cdot_cos,S,R-S,288,57,43940,-0.016971192035408405,-0.06356240825093729,-0.05237632091177713,0.0026264957323374276,801.0,10.359285005450905,0.6480375517248849,10.997571870959264,-0.0620585790297125,0.034,0.9999999999991254,94205.94904163195,1.430564727683425,288,2026-10-07 21:02:00.024243,113.4,0.010920946147904896,0.5338090165232103,0.5359252387670836
0897,cdot_cos,T,S-T,289,57,44193,-0.07568037278252664,-0.011862236033476841,-0.05870918074711823,0.0012825506730263165,801.0,10.377362560456403,0.6480390047635151,11.016673027314736,-0.06167632141346221,0.253,0.9999999999991094,263.0746411738948,1.4355323946471823,289,2026-10-07 21:02:00.277244,113.4,0.9938213649498142,0.23834602115503398,0.07145278658299391
0897,cdot_cos,P,T-P,290,58,44574,0.024373413322676386,0.0019122518489631008,0.10005378610520302,0.9999881846515992,758.0,10.479888092155353,0.6491710843662046,11.054995332597414,-0.3513078893241679,0.381,0.9999999999991093,-255.84028474906233,1.4405003825697498,290,2026-10-07 21:02:00.658243,113.4,0.438481356924851,0.16155692562577653,0.2690958837242775
0897,cdot_cos,Q,P-Q,291,58,44663,-0.006335877424624386,-0.005759121566531252,-0.03070929074730077,0.029816202816853002,758.0,10.500468937783245,0.6492048133938574,11.074614914151763,-0.07093424440258987,0.089,0.9999999999990914,8312.532688700487,1.4454676454687738,291,2026-10-07 21:02:00.747243,113.4,0.019204988719653215,0.6816511514172343,0.23124545649316827
0897,cdot_cos,R,Q-R,292,58,44719,0.02584256605176044,0.06870791033069408,0.03217844347638483,0.9746434711973059,758.0,10.60122199710762,0.6503065384623734,11.112453450933648,-0.3487589709052431,0.056,0.9999999999990906,-252.17246520211353,1.4504348270424436,292,2026-10-07 21:02:00.803244,113.4,0.4508549774535011,1.0859885703634609,1.7991617736495664
0897,cdot_cos,S,R-S,293,58,44744,-0.004158164747251608,-0.07256437388986767,-0.030000730799012047,0.03223043316484619,758.0,10.622099657663952,0.6503429440343202,11.132088534102184,-0.07268158921515462,0.025,0.9999999999990743,7583.382623220929,1.4554019312275388,293,2026-10-07 21:02:00.828243,113.4,0.02240547370573284,0.7822624290642466,0.8351064222532756
0897,cdot_cos,T,S-T,294,58,45013,-0.061710978249576005,-0.031671882952056404,-0.0575528135023244,0.0014619967835265712,758.0,10.640335118560833,0.6503445953770051,11.151097390699613,-0.06360013840030881,0.269,0.9999999999990581,5499.434428933002,1.4603696542044593,294,2026-10-07 21:02:01.097243,113.4,0.8669362828488871,0.2260720814369201,0.06778981746052208
0897,cdot_cos,P,T-P,295,59,45332,0.02758332129528487,-0.001927253300773571,0.08929429954486087,0.9999599752919739,699.0,10.743726437477015,0.6514732156598644,11.18943060575374,-0.36211894106785636,0.319,0.9999999999990575,-264.4988816887657,1.4653375087419191,295,2026-10-07 21:02:01.416243,113.4,0.4385126070630087,0.1935556819160721,0.324110717605588
0897,cdot_cos,Q,P-Q,296,59,45442,-0.005773534925226804,-0.008714730687451341,-0.033356856220511676,0.022255319912859894,699.0,10.763823643623287,0.6514983152036671,11.208811755817228,-0.07079283710102736,0.11,0.9999999999990398,11606.828644252657,1.4703048292252379,296,2026-10-07 21:02:01.526243,113.4,0.016322809110754063,0.5559495035949557,0.18270187405701288
0897,cdot_cos,R,Q-R,297,59,45468,0.029396176906470752,0.07710312416788281,0.03516971183169756,0.9818049899690499,699.0,10.866035328267905,0.652604756408421,11.246797697026667,-0.3615535030239633,0.026,0.9999999999990391,-262.7890796850881,1.4752719339846392,297,2026-10-07 21:02:01.552243,113.4,0.4474465582962798,2.3546343410227193,3.931218640177647
0897,cdot_cos,S,R-S,298,59,45500,-0.0037576114896687917,-0.07212361045443938,-0.03315378839613954,0.022761958676679166,699.0,10.886264629356468,0.6526303884249398,11.266158250835543,-0.07195975634716371,0.032,0.9999999999990224,11298.125782025321,1.480239055307007,298,2026-10-07 21:02:01.584243,113.4,0.01787441785276678,0.6090894660322754,0.6321656590175806
0897,cdot_cos,T,S-T,299,59,45751,-0.04904790713807094,-0.03163486166434271,-0.045290295648402146,0.005847249273976561,699.0,10.905017054093971,0.6526369728117007,11.285159214399211,-0.06682515941960762,0.251,0.9999999999990057,779.8139924011259,1.4852067484913674,299,2026-10-07 21:02:01.835244,113.4,0.9260414489980902,0.24503203843080462,0.07471085552790059
0897,cdot_cos,P,T-P,300,60,46031,0.05004612777058239,-0.001457493102134484,0.09909403490865333,0.9999868261497195,681.0,11.009270712648732,0.6537621632832789,11.323503997044092,-0.37304154534674977,0.28,0.9999999999990056,-272.1462664873672,1.4901745216417543,300,2026-10-07 21:02:02.115244,113.4,0.4400512731032108,0.21919788655435643,0.3723344948384317
0897,cdot_cos,Q,P-Q,301,60,46141,-0.005245592044016057,-0.008526629714626066,-0.05529171981459845,0.0018885020797839126,681.0,11.02776787056441,0.6537642866141955,11.34239784346671,-0.06655732072020622,0.11,0.9999999999989869,144341.24338488953,1.495141847791918,301,2026-10-07 21:02:02.225244,113.4,0.010003541095868748,0.5446487246431224,0.1681559810516249
0897,cdot_cos,R,Q-R,302,60,46170,0.023201134601804292,0.07538303903071658,0.028446726645820347,0.9617958770470744,681.0,11.129093432070219,0.6548448811420319,11.380002183959009,-0.3660363665545294,0.029,0.9999999999989864,-277.14284879265136,1.5001089598788104,302,2026-10-07 21:02:02.254244,113.4,0.44123950125177075,2.179668523331214,3.4939848795106268
0897,cdot_cos,S,R-S,303,60,46201,0.0013369334705610665,-0.06871793627009894,-0.021864201131243224,0.0773149645884025,681.0,11.154188644917621,0.6549316766044694,11.400338501365464,-0.09116236221329639,0.031,0.9999999999989704,3166.9167560360393,1.5050760782980166,303,2026-10-07 21:02:02.285243,113.4,0.04903535504311331,0.7014051266274692,0.8095229950774915
0897,cdot_cos,T,S-T,304,60,46452,-0.10023229741600188,-0.09108000145757948,-0.10156923088656294,9.949773883189127e-06,681.0,11.172580549921122,0.6549316877736379,11.419135629019863,-0.06694192924204376,0.251,0.9999999999989532,2168508.1585814995,1.5100437880406181,304,2026-10-07 21:02:02.536243,113.4,0.6964128685531674,0.2460178550368022,0.07327452192629821
0897,cdot_cos,P,T-P,305,61,46712,0.037232441587148356,0.0029625065170373706,0.13746473900315023,0.9999998301757185,719.0,11.277689608146096,0.6560533770333764,11.45749130742748,-0.3840927890931712,0.26,0.9999999999989536,-282.7439570251856,1.5150115258610461,305,2026-10-07 21:02:02.796243,113.4,0.43792212842764683,0.23919134713113935,0.4042656085575917
0897,cdot_cos,Q,P-Q,306,61,46840,-0.004061077214723666,-0.008518000667907661,-0.04129351880187202,0.009169279127527276,719.0,11.296960050429314,0.6560636540927706,11.47643867444725,-0.0708078290701106,0.128,0.9999999999989349,30483.910621467254,1.5199789069922207,306,2026-10-07 21:02:02.924243,113.4,0.011980924020903921,0.4598751169910473,0.15055033033764542
0897,cdot_cos,R,Q-R,307,61,46867,0.017400089553619793,0.07275988025414218,0.02146116676834346,0.9193609889892047,719.0,11.395417638095804,0.6570933441062508,11.513217413703046,-0.3631419196971163,0.027,0.999999999998934,-283.90494886802173,1.5249460131436534,307,2026-10-07 21:02:02.951244,113.4,0.44708196126722566,2.475564622136096,3.646577320981092
0897,cdot_cos,S,R-S,308,61,46899,0.0046893682187739375,-0.06994112099568732,-0.012710721334845855,0.19132929408898527,719.0,11.430640540024664,0.6573074487668051,11.535710840363206,-0.13063923236061914,0.032,0.9999999999989196,1085.9300621223163,1.529913134104616,308,2026-10-07 21:02:02.983244,113.4,0.16868352259976627,0.8400982822653891,1.1007156852768651
0897,cdot_cos,T,S-T,309,61,47151,-0.08855145612943373,-0.064324988028632,-0.09324082434820767,2.558421327539046e-05,719.0,11.449183928160789,0.6573074773922213,11.554422961499116,-0.06893813361239126,0.252,0.9999999999989021,2155465.563469975,1.534880864055159,309,2026-10-07 21:02:03.235244,113.4,0.40859889075145867,0.24704560582408266,0.07358487355605245
0897,cdot_cos,P,T-P,310,62,47431,0.04511280054600097,0.0010813855846089407,0.1336642566754347,0.9999997386817877,720.0,11.555151525360001,0.6584254715102948,11.592788825787727,-0.3954750365003966,0.28,0.9999999999989027,-292.07390057710467,1.5398486758149774,310,2026-10-07 21:02:03.515244,113.4,0.43793590382261893,0.22306552204796365,0.37845570428290154
0897,cdot_cos,Q,P-Q,311,62,47521,-0.0041859758233211315,-0.004162560184241743,-0.0492987763693221,0.0037193456752394444,720.0,11.574100620507648,0.6584296264421747,11.611545305944954,-0.07110238387097027,0.09,0.9999999999988838,78069.30703239405,1.5448159577920901,311,2026-10-07 21:02:03.605243,113.4,0.010440630417802178,0.6724329276035156,0.21054550164052444
0897,cdot_cos,R,Q-R,312,62,47579,0.0220915767457788,0.07993585327425672,0.026277552569099933,0.9516565960357025,720.0,11.676189452328634,0.6594919343794116,11.648962526255136,-0.38449233849833303,0.058,0.9999999999988841,-295.00857862600753,1.5497831511315003,312,2026-10-07 21:02:03.663244,113.4,0.4426062897151113,1.0963807624094806,1.7601522727756138
0897,cdot_cos,S,R-S,313,62,47602,-0.00035088228449355394,-0.05085569426990975,-0.022442459030272355,0.07276480534677358,720.0,11.701280788947148,0.6595730939535116,11.669051672329385,-0.09500633197781207,0.023,0.999999999998867,3566.874391968612,1.5547502462242684,313,2026-10-07 21:02:03.686244,113.4,0.04750035804359229,0.9514890664708106,1.0909276790658327
0897,cdot_cos,T,S-T,314,62,47870,-0.14559350450931027,-0.10010131492439706,-0.1452426222248167,7.029863672306532e-08,720.0,11.719957949386291,0.659573094031916,11.68767744806129,-0.07085199160775224,0.268,0.9999999999988486,308073809.5224087,1.559718038396589,314,2026-10-07 21:02:03.954243,113.4,0.7111210203763585,0.23411125163585844,0.06969089716098185
0897,cdot_cos,P,T-P,315,63,48151,0.031862663303544154,0.0003579370202092732,0.17745616781285442,0.9999999981783614,718.0,11.826764419823968,0.6606875126405894,11.726052763403125,-0.40669435523339525,0.281,0.99999999999885,-301.36105141443505,1.5646858718261765,315,2026-10-07 21:02:04.235244,113.4,0.43789082713189925,0.2234644158794017,0.38009420084582557
0897,cdot_cos,Q,P-Q,316,63,48280,-0.04139489188078367,-0.04291280058309147,-0.07325755518432783,0.0002466220857030589,718.0,11.845544951110515,0.660687787261977,11.744655900285762,-0.07189336558419955,0.129,0.99999999999883,1219136.6181398965,1.5696532702177197,316,2026-10-07 21:02:04.364243,113.4,0.009495751544401432,0.4877553313593527,0.1455855138491998
0897,cdot_cos,R,Q-R,317,63,48298,0.01794541949740044,0.06294337974609836,0.059340311378184116,0.9988059281567564,718.0,11.952605295314681,0.6617991003830408,11.783010964926017,-0.411355145181767,0.018,0.9999999999988317,-305.46006626162244,1.5746203487131865,317,2026-10-07 21:02:04.382244,113.4,0.4381350906971016,4.553323899114275,5.947796900231457
0897,cdot_cos,S,R-S,318,63,48322,0.015432960678149685,-0.10941408053571319,-0.002512458819250756,0.42924974411050343,718.0,12.009464611478629,0.6622761543915501,11.810088580373586,-0.21982194385944653,0.024,0.9999999999988212,401.49165064314553,1.579587445816526,318,2026-10-07 21:02:04.406244,113.4,0.4184028090644874,1.5776610116952823,2.36913817349782
0897,cdot_cos,T,S-T,319,63,48589,-0.09106556324309,-0.06452311196667829,-0.10649852392123968,5.689214879272632e-06,718.0,12.028333023876055,0.6622761607121705,11.828643422173649,-0.07317713767120519,0.267,0.9999999999988034,23201014.338780325,1.5845552571471004,319,2026-10-07 21:02:04.673243,113.4,0.13479903481724245,0.23700882629993592,0.07066821122631411
0897,cdot_cos,P,T-P,320,64,48869,0.03458518174594082,-5.5998297922134873e-05,0.1256507449890308,0.9999993516240443,701.0,12.136027324722795,0.663386245828509,11.867027115888263,-0.4191896020035687,0.28,0.9999999999988043,-311.6990393256119,1.5895231109894115,320,2026-10-07 21:02:04.953243,113.4,0.43804576518800237,0.2261916812486854,0.3846225030240711
0897,cdot_cos,Q,P-Q,321,64,48980,-0.03779694368264296,-0.03930953963671747,-0.07238212542858379,0.00027235466778404663,701.0,12.155000365375319,0.6633865479207575,11.885560529457488,-0.07423786906866235,0.111,0.9999999999987844,1141875.485775381,1.5944904649419553,321,2026-10-07 21:02:05.064243,113.4,0.00959441865108844,0.5714927441865195,0.17092829416688216
0897,cdot_cos,R,Q-R,322,64,49012,0.01837136926865735,0.06366089955959156,0.056168312951300314,0.9982898911600896,701.0,12.262898713932202,0.6644929391763752,11.923912995219785,-0.42370078837705105,0.032,0.9999999999987855,-315.8583525800485,1.599457584259904,322,2026-10-07 21:02:05.096244,113.4,0.438328328702345,2.395300757092045,3.3718233924026064
0897,cdot_cos,S,R-S,323,64,49041,0.010707219286943846,-0.09719769442815099,-0.0076641499817135025,0.2954385670671108,701.0,12.30829961382921,0.6648200243494702,11.94829245878085,-0.17931524665070322,0.029,0.9999999999987728,747.1617848461042,1.604424695703044,323,2026-10-07 21:02:05.125243,113.4,0.2559221172995096,1.1111649943292337,1.565548272310602
0897,cdot_cos,T,S-T,324,64,49310,-0.07111201633529647,-0.061684629119214754,-0.08181923562224032,9.342096764905386e-05,701.0,12.327346283603298,0.6648201277524419,11.966775823225568,-0.0754240135558947,0.269,0.999999999998754,1004721.9276775359,1.6093925338706458,324,2026-10-07 21:02:05.394243,113.4,0.25222616184722996,0.2371798221316426,0.07080546384419363
0897,cdot_cos,P,T-P,325,65,49570,0.03700643501317162,0.000716058859752781,0.10811845134846809,0.999995265512707,717.0,12.435902358136033,0.6659260644613126,12.005166612358419,-0.43139438783400536,0.26,0.9999999999987556,-321.8722838503087,1.6143603487409102,325,2026-10-07 21:02:05.654243,113.4,0.4381638838638072,0.24659528931631863,0.41752336358744474
0897,cdot_cos,Q,P-Q,326,65,49659,-0.007780790189165712,-0.007695209899730183,-0.044787225202337334,0.006188398411188281,717.0,12.455575834047783,0.6659329028092236,12.02374560857418,-0.07858515096580532,0.089,0.9999999999987348,51592.759166907,1.6193276423239713,326,2026-10-07 21:02:05.743244,113.4,0.011226083880422216,0.7045647134672846,0.2210502911432591
0897,cdot_cos,R,Q-R,327,65,49717,0.021386772245062413,0.07572273679666403,0.029167562434228127,0.9646886709583053,717.0,12.56131487713321,0.6669980555407545,12.061434150013818,-0.42382265867970564,0.058,0.9999999999987358,-324.12019186927785,1.6242948420477148,327,2026-10-07 21:02:05.801243,113.4,0.4428252264378178,1.2192878211530842,1.823086949748734
0897,cdot_cos,S,R-S,328,65,49740,0.008221722218277055,-0.0927309748333662,-0.013165050026785358,0.18348435428663773,717.0,12.597013221301541,0.6672004556696747,12.083528266764317,-0.14385110887366478,0.023,0.99999999999872,1383.2577642107262,1.62926193442062,328,2026-10-07 21:02:05.824243,113.4,0.1428072814491852,1.1932536985550428,1.552101920362225
0897,cdot_cos,T,S-T,329,65,50008,-0.08196429888781526,-0.056107113050653676,-0.0901860211060923,3.6175409356885336e-05,717.0,12.616204547266742,0.667200495568401,12.101934966270504,-0.07750269976687925,0.268,0.9999999999987014,1662920.4794650604,1.6342297893053406,329,2026-10-07 21:02:06.092243,113.4,0.4248246928770708,0.23989528623393197,0.07160942524328652
0897,cdot_cos,P,T-P,330,66,50287,0.03456283002763648,-0.0024749362923234255,0.11652712891545174,0.9999981754519466,761.0,12.725597094722929,0.6683025000133976,12.140332133134589,-0.44328661819284043,0.279,0.9999999999987023,-331.92599184758853,1.6391976828074477,330,2026-10-07 21:02:06.371244,113.4,0.43816336562711417,0.23241286848107004,0.392087983713931
0897,cdot_cos,Q,P-Q,331,66,50398,-0.004826495202969043,-0.00626777289227673,-0.039389325230605524,0.011354187958186166,761.0,12.745890927879179,0.6683150018487661,12.158940365310958,-0.08265515753587764,0.111,0.9999999999986817,28846.281368076056,1.6441650501386926,331,2026-10-07 21:02:06.482244,113.4,0.012739029744189733,0.5811482581448306,0.18282732573198496
0897,cdot_cos,R,Q-R,332,66,50424,0.03459450740453769,0.07119619106933066,0.039421002607506736,0.9886860649212799,761.0,12.854612008031081,0.669402709745325,12.197112524802074,-0.44431718780828044,0.026,0.9999999999986833,-332.49922283048033,1.6491321500323213,332,2026-10-07 21:02:06.508243,113.4,0.4430943150507095,2.4730490269779635,4.181580005842387
0897,cdot_cos,S,R-S,333,66,50456,-0.010650083389000153,-0.06256654968106105,-0.04524459079353785,0.005877455249447761,761.0,12.874489477282033,0.669409170458688,12.21558573930861,-0.08164182402892985,0.032,0.9999999999986634,56135.49826529813,1.6540992700019714,333,2026-10-07 21:02:06.540244,113.4,0.011769143361534376,0.6124112110506286,0.6211709140922506
0897,cdot_cos,T,S-T,334,66,50708,-0.12145612989464025,-0.03471373180838645,-0.11080604650564009,3.49069687356841e-06,761.0,12.893806325538321,0.6694091742957705,12.233913770858925,-0.079460074160686,0.252,0.999999999998644,568596.021889911,1.659067092006561,334,2026-10-07 21:02:06.792243,113.4,0.9729163381534026,0.25698247746176234,0.07665415974717543
0897,cdot_cos,P,T-P,335,67,51048,0.02112537079842951,0.001268108055329322,0.14258150069306977,0.9999999049385463,859.0,13.004008645922761,0.6705074787941221,12.272316801495522,-0.4548279474929148,0.34,0.9999999999986452,-341.77031405735926,1.6640352006320271,335,2026-10-07 21:02:07.132244,113.4,0.43810511342208736,0.19746745296126214,0.32412447171894115
0897,cdot_cos,Q,P-Q,336,67,51159,-0.004583868153306286,-0.004807086726387448,-0.025709238951735797,0.05139616501588127,859.0,13.02808419355198,0.6705638772911804,12.291654166501727,-0.09987138349527432,0.111,0.9999999999986243,6293.723813787778,1.669002573339717,336,2026-10-07 21:02:07.243244,113.4,0.02860605567842384,0.5998466229107224,0.21689682548845282
