record_id,input,event,transition,event_index,k,peak,value_cos,value_sin,value_return,x_input,rr,knowledge,decision,decision_norm,entropy,delta_t,cosine_similarity,delta_h_over_delta_d,frobenius_norm,matrix_size,timestamp,scale,P,zdot,zdot_back
0153,cdot_cos,Q,P-Q,1,0,1906,-0.019486228921881166,-0.013877889420460301,-0.044470496094263,0.08105568895724484,1034.0,0.00040261507887139796,0.5001006537683582,0.5001006537683582,,,1.0,,0.004967141530112327,1,2026-10-08 01:01:17.990243,54.6,,,
0153,cdot_cos,R,Q-R,2,0,1929,0.06237174354142046,0.07797799023853642,0.08185797246330162,0.9886760334689919,1034.0,0.007514436300024893,0.5013283740907631,0.7089853858416097,-1.0153733970352407e-05,,1.0,,0.009934283060224654,2,2026-10-08 01:01:18.013243,54.6,,,
0153,cdot_cos,S,R-S,3,0,1953,-0.002960999623932574,-0.004947252088519876,-0.06533274316535304,0.027460347942835164,1034.0,0.009439518070875216,0.5013624737025189,0.8683852774611778,-5.885746034946798e-06,0.024,1.0,0.12516236155359656,0.014901424593452747,3,2026-10-08 01:01:18.037244,54.6,0.484256928237723,0.07052890353479524,0.0802117404520968
0153,cdot_cos,T,S-T,4,0,2241,-0.2622199567060116,0.09633933875137199,-0.259258957082079,7.117495319227225e-07,1034.0,0.010899823669695064,0.5013624745863525,1.0027249491728283,-5.35626395590143e-06,0.288,1.0000000000000002,599.0743454011352,0.019868566165928758,4,2026-10-08 01:01:18.325243,54.6,0.9058759772952083,0.024051597278351926,0.005070505551457807
0153,cdot_cos,P,T-P,5,1,2817,0.029353635581374975,-0.0011702384205133447,0.2915735922873866,0.9999998780821355,998.0,0.023293238103205924,0.5026042396399056,1.1238572456165705,-7.641906745757845e-05,0.576,1.0000000000000002,-0.057227253495612695,0.02483570786955888,5,2026-10-08 01:01:18.901243,54.6,0.39458948781534703,0.013313731630333111,0.021516344502623023
0153,cdot_cos,Q,P-Q,6,1,2934,-0.021288848562265435,-0.01508654857065938,-0.05064248414364041,0.059240637315834156,998.0,0.026237242507838807,0.5026778017448061,1.2313041193056178,-2.6295600478189028e-05,0.117,1.0,0.6813761929077954,0.02980284943919543,6,2026-10-08 01:01:19.018244,54.6,0.1486509836981335,0.07716485274885941,0.025162430808828056
0153,cdot_cos,R,Q-R,7,1,2957,0.06286378240496697,0.07820730362165482,0.08415263096723241,0.9899961759030796,998.0,0.041349813646439026,0.5039071105989362,1.3332128985317693,-0.00018418740153197313,0.023,0.9999999999999998,-0.1284394890049951,0.03476999095572194,7,2026-10-08 01:01:19.041243,54.6,0.42433394290695825,0.39853611742651135,0.6570683103739227
0153,cdot_cos,S,R-S,8,1,2982,-0.003506841608336749,-0.006075192011933617,-0.06637062401330372,0.025986801720960954,998.0,0.04456990390945833,0.5039393786426591,1.4253558077909259,-4.9890571488545545e-05,0.025,1.0,4.161914220664471,0.03973713249333357,8,2026-10-08 01:01:19.066243,54.6,0.06775697617340067,0.1184747054985208,0.1288036105207721
0153,cdot_cos,T,S-T,9,1,3276,-0.24566484743702283,0.11120064149309804,-0.24215800582868607,1.810642272598644e-06,998.0,0.047273548921365066,0.5039393808909487,1.5118181426846078,-4.4777048464763156e-05,0.294,1.0000000000000002,2274.4058982440606,0.04470427445452055,9,2026-10-08 01:01:19.360243,54.6,0.8920798391231525,0.03566031816371822,0.009196071469070534
0153,cdot_cos,P,T-P,10,2,3815,0.02594073945993803,-0.0006825789814939462,0.27160558689696085,0.999999637291156,1007.0,0.06553817098972464,0.5051810618899287,1.5975227863923296,-0.0003715376487568998,0.539,0.9999999999999999,-0.2631598619617689,0.04967141704421606,10,2026-10-08 01:01:19.899244,54.6,0.41499790766858385,0.020952773913130524,0.0338861262863814
0153,cdot_cos,Q,P-Q,11,2,3932,-0.021945504220371385,-0.01467583149541692,-0.047886243680309415,0.06820538465727836,1007.0,0.06986063919971977,0.5052657490959834,1.6757769092572794,-0.00010553172486868011,0.117,0.9999999999999999,3.141040261930492,0.0546385587465421,11,2026-10-08 01:01:20.016243,54.6,0.08040932005088915,0.10474683310377328,0.03694417273500109
0153,cdot_cos,R,Q-R,12,2,3955,0.0681455661120383,0.08286649376726998,0.09009107033240968,0.9927463646703332,1007.0,0.09004892993600759,0.5064983557862455,1.7545617724481815,-0.0005820833685980516,0.023,0.9999999999999998,-0.3866210101683462,0.05960570019956271,12,2026-10-08 01:01:20.039244,54.6,0.44100459566671474,0.5268909499027591,0.8777517711429487
0153,cdot_cos,S,R-S,13,2,3980,-0.0024395184187074584,-0.004055649735616736,-0.07058508453074576,0.0207559973273363,1007.0,0.09409762289524669,0.5065241259093523,1.8262987083312356,-0.00013442778412058566,0.025,1.0,17.37110772123695,0.06457284170018043,13,2026-10-08 01:01:20.064243,54.6,0.0357901594298265,0.152017007984718,0.1619477183695639
0153,cdot_cos,T,S-T,14,2,4257,-0.23334741515616297,0.11493952004255722,-0.23090789673745551,3.3465703641305345e-06,1007.0,0.09764978033524349,0.5065241300643668,1.895239752943888,-0.00012280959569096916,0.277,0.9999999999999999,2796.184773080885,0.06953998435334922,14,2026-10-08 01:01:20.341243,54.6,0.9097337883091522,0.04732336360929699,0.012823673068580515
0153,cdot_cos,P,T-P,15,3,4822,0.02323618215242921,-1.066473298431775e-05,0.2565835973085922,0.9999991763047656,1014.0,0.12031476633479722,0.5077656602154785,1.9665679459852603,-0.0008906787514810833,0.565,1.0,-0.6184861117569539,0.07450712875162682,15,2026-10-08 01:01:20.906244,54.6,0.42226726090214733,0.024808135455280066,0.040115019468236694
0153,cdot_cos,Q,P-Q,16,3,4944,-0.02369602647545178,-0.01653347920798776,-0.046932208627880986,0.07159129308959127,1014.0,0.12568297339970996,0.507854539545502,2.0314181585600406,-0.0002380881287424562,0.122,0.9999999999999998,7.342434090879472,0.07947427071930414,16,2026-10-08 01:01:21.028243,54.6,0.06450823049984877,0.12113705479028597,0.044001697253383126
0153,cdot_cos,R,Q-R,17,3,4966,0.06515444320891597,0.08175407848759605,0.08885046968436776,0.9922419475364375,1014.0,0.149872207703627,0.509086336848747,2.0990167398123902,-0.0012016328893268214,0.022,1.0000000000000002,-0.7822267170466936,0.08444141205227806,17,2026-10-08 01:01:21.050244,54.6,0.44849271554744236,0.6597203628374855,1.0995106501780472
0153,cdot_cos,S,R-S,18,3,4989,-0.0031732332584366147,-0.00536219247929911,-0.06832767646735259,0.023414858554699228,1014.0,0.15471066936455932,0.5091154034447739,2.159993725521094,-0.0002656763974625882,0.023,1.0000000000000002,32.200416278510815,0.08940855345350836,18,2026-10-08 01:01:21.073244,54.6,0.02951315335393752,0.19734911781255324,0.21036789830140543
0153,cdot_cos,T,S-T,19,3,5277,-0.21907832536946234,0.10763834453259799,-0.21590509211102574,7.591923134749999e-06,1014.0,0.15895026712300445,0.5091154128691797,2.2191826357283393,-0.00023973159407242266,0.288,0.9999999999999999,2752.9378413472264,0.09437569727697491,19,2026-10-08 01:01:21.361243,54.6,0.8974262083892315,0.053094711790149116,0.01472082555015668
0153,cdot_cos,P,T-P,20,4,5836,0.021947471290401047,-0.0005402355771735928,0.2410257966598634,0.9999980738944121,1013.0,0.1852932233556852,0.5103567243815617,2.2823846576225355,-0.0016346637286283748,0.559,1.0,-1.1237567046157768,0.09934284416434142,20,2026-10-08 01:01:21.920243,54.6,0.42598761359373666,0.02913222696600762,0.04712514531785467
0153,cdot_cos,Q,P-Q,21,4,5954,-0.024726525779658455,-0.016716817019585342,-0.0466739970700595,0.07253403220044953,1013.0,0.19152009687100097,0.5104467571005734,2.339160903719188,-0.0004229521284093704,0.118,0.9999999999999999,13.45856943474934,0.10430998644745258,21,2026-10-08 01:01:22.038244,54.6,0.05698936228958522,0.14335933804671083,0.05277011453657421
0153,cdot_cos,R,Q-R,22,4,5978,0.06234735688129914,0.07694554001145518,0.08707388266095759,0.9914584452793501,1013.0,0.21912602713470897,0.5116773324510591,2.3999794252307063,-0.002043232180971246,0.024,0.9999999999999998,-1.3166849570994779,0.10927712764872977,22,2026-10-08 01:01:22.062243,54.6,0.4524859803508464,0.6911393848856323,1.1502470943211667
0153,cdot_cos,S,R-S,23,4,6002,-0.003280803640188432,-0.005507854398640058,-0.06562816052148757,0.027032849012324917,1013.0,0.22469478734551132,0.5117108830852672,2.454079185083303,-0.0004454638082229436,0.024,1.0000000000000002,47.6225982148136,0.11424426893227099,23,2026-10-08 01:01:22.086244,54.6,0.02768810511046685,0.21670266325762103,0.23203167545009806
0153,cdot_cos,T,S-T,24,4,6276,-0.21231427292605998,0.10825596287996016,-0.20903346928587155,1.1048250466934046e-05,1013.0,0.22952775497107478,0.5117108967972969,2.5068611871208355,-0.0003956660713845761,0.274,0.9999999999999998,3631.6824137654753,0.11921141403702451,24,2026-10-08 01:01:22.360243,54.6,0.8817400529450579,0.06277672307801022,0.01763856797650896
0153,cdot_cos,P,T-P,25,5,6849,0.02413827065789955,-0.0009484622850104239,0.23645254358395953,0.9999975275756046,1013.0,0.2590964315922609,0.5129519231506307,2.5647596172954508,-0.002603753619070701,0.573,0.9999999999999997,-1.7792430771147694,0.12417856449133308,25,2026-10-08 01:01:22.933243,54.6,0.428253432688993,0.03190477248550761,0.0516032750806041
0153,cdot_cos,Q,P-Q,26,5,6966,-0.022258483682074212,-0.014334218412834315,-0.04639675433997376,0.0735589843885123,1013.0,0.2660906242394665,0.5130432058962152,2.616017320540619,-0.000661973367800419,0.117,1.0000000000000002,21.272149942854373,0.12914570720275417,26,2026-10-08 01:01:23.050244,54.6,0.05322001116149056,0.16089665436024939,0.0597794243350904
0153,cdot_cos,R,Q-R,27,5,6988,0.06458298033883371,0.07680611533605333,0.08684146402090792,0.9913503053215776,1013.0,0.2967462487125593,0.5142733309946473,2.6722426173113054,-0.0031090177733976918,0.022,1.0,-1.9892646761830943,0.1341128481722199,27,2026-10-08 01:01:23.072243,54.6,0.4551721496360204,0.8351618616121198,1.393437476049672
0153,cdot_cos,S,R-S,28,5,7012,-0.002830326029999676,-0.004548567549274451,-0.06741330636883339,0.024584040623959188,1013.0,0.30283774615039977,0.5143038341660201,2.7214400895903013,-0.0006581169520345177,0.024,1.0,80.34904933037656,0.13907998928800397,28,2026-10-08 01:01:23.096244,54.6,0.024134537666303406,0.23858121282039021,0.25381239324335364
0153,cdot_cos,T,S-T,29,5,7294,-0.25735701028235286,0.09550355837527119,-0.2545266842523532,9.215969266801228e-07,1013.0,0.308198146927938,0.5143038353095091,2.769610916625413,-0.0005901915182820248,0.282,0.9999999999999999,59401.914250091446,0.1440471363309964,29,2026-10-08 01:01:23.378243,54.6,0.8912854837268129,0.06708382710679194,0.019008513395525686
0153,cdot_cos,P,T-P,30,6,7862,0.025512901784838494,-0.0008541034522779627,0.28286991206719136,0.9999998039110383,1006.0,0.3406730246386304,0.5155445134730211,2.823753597451028,-0.003796388028165278,0.568,0.9999999999999999,-2.584229016175603,0.1490142908843727,30,2026-10-08 01:01:23.946244,54.6,0.4297555700651067,0.0352555175839762,0.057174080476571146
0153,cdot_cos,Q,P-Q,31,6,7979,-0.021779782457700184,-0.014853130334284639,-0.04729268424253868,0.07029409154784497,1006.0,0.34824841490333497,0.515631718805824,2.8709159128342057,-0.0009402310209768276,0.117,0.9999999999999994,32.75209113234936,0.1539814341382715,31,2026-10-08 01:01:24.063244,54.6,0.047944157518956504,0.1751874470196335,0.06474692533935514
0153,cdot_cos,R,Q-R,32,6,8002,0.06437440840297284,0.07884156477846373,0.08615419086067302,0.9910225269549073,1006.0,0.38166688724122466,0.5168610561882289,2.9238076668882083,-0.004393892840332235,0.023,0.9999999999999996,-2.8093685824467176,0.15894857488687797,32,2026-10-08 01:01:24.086244,54.6,0.45565737561255687,0.8704281741025396,1.452977058169117
0153,cdot_cos,S,R-S,33,6,8026,-0.002983500086182204,-0.004965897681457217,-0.06735790848915504,0.024656676895185203,1006.0,0.3882881109120518,0.5168916396074392,2.969316409989922,-0.0009183161154906752,0.024,0.9999999999999998,113.64251658506666,0.16391571579057307,33,2026-10-08 01:01:24.110244,54.6,0.022715040187773223,0.2595933483302698,0.2758843196177969
0153,cdot_cos,T,S-T,34,6,8309,-0.27433074322946543,0.09288292079132307,-0.27134724314328323,3.678613104885446e-07,1006.0,0.3941273679610776,0.5168916400637227,3.0139702928678003,-0.0008229692943553947,0.283,1.0,208964.01128210983,0.16888286503602357,34,2026-10-08 01:01:24.393243,54.6,0.8906024972049233,0.07240150655973175,0.020633417134366876
0153,cdot_cos,P,T-P,35,7,8868,0.027184963435045867,-0.0009067909584808942,0.30151570666451133,0.999999929154023,980.0,0.42926736362485995,0.5181319014843999,3.0653096731256713,-0.005211021184442748,0.559,1.0,-3.5380056308542516,0.17385002426070767,35,2026-10-08 01:01:24.952243,54.6,0.43081720494927855,0.0387464604681641,0.06286224626794694
0153,cdot_cos,Q,P-Q,36,7,8982,-0.02016070581822058,-0.014540636534457972,-0.04734566925326644,0.07010526187936107,980.0,0.4374459107644851,0.5182188421402719,3.1093130606151647,-0.001276612708103878,0.114,0.9999999999999999,45.253954400013185,0.1788171680550763,36,2026-10-08 01:01:25.066243,54.6,0.04587145026739058,0.19359091605106207,0.07174164157565899
0153,cdot_cos,R,Q-R,37,7,9010,0.06489936233603553,0.08496203075374822,0.08506006815425611,0.9904751416658409,980.0,0.4734060924845021,0.5194470541059101,3.15967308534767,-0.005897891384082839,0.028,1.0,-3.762606785529742,0.18378430872817572,37,2026-10-08 01:01:25.094244,54.6,0.45678264849854205,0.7682848683377073,1.2842922042863223
0153,cdot_cos,S,R-S,38,7,9036,-0.0036363194090617075,-0.006762266003511957,-0.06853568174509725,0.023156561369630187,980.0,0.4804698633913967,0.519475766021174,3.202263694445012,-0.0012132593250867765,0.026,0.9999999999999997,163.1598594500421,0.1887514494681959,38,2026-10-08 01:01:25.120243,54.6,0.021042817153400138,0.25662903644075824,0.2716834964190225
0153,cdot_cos,T,S-T,39,7,9326,-0.2638885004300839,0.05904224431948119,-0.26025218102102216,6.741792863451379e-07,980.0,0.48675080237942153,0.5194757668570897,3.24412513244837,-0.0010938940809310355,0.29,0.9999999999999996,142795.77783229246,0.19371860155076448,39,2026-10-08 01:01:25.410244,54.6,0.8966232080660855,0.07568413798551583,0.02165841030353394
0153,cdot_cos,P,T-P,40,8,9848,0.03381598610664999,0.0004902444640594287,0.29770448653673387,0.9999999127654223,1017.0,0.5243666634229959,0.5207155455835377,3.293294283823248,-0.0068471690342504655,0.522,0.9999999999999997,-4.640565957929286,0.19868576476350697,40,2026-10-08 01:01:25.932243,54.6,0.43160631743398403,0.044370505994501826,0.07206103648194317
0153,cdot_cos,Q,P-Q,41,8,9962,-0.013858135655392435,-0.010748047986499667,-0.04767412176204242,0.06894514239588397,1017.0,0.5330736106376814,0.5208010130851067,3.334753602034296,-0.001657501818382237,0.114,0.9999999999999993,60.720942119474685,0.20365290930560154,41,2026-10-08 01:01:26.046243,54.6,0.04367333658934176,0.20669538190285136,0.07637672995338217
0153,cdot_cos,R,Q-R,42,8,9990,0.07628101853018507,0.09262591588298358,0.0901391541855775,0.992765245636725,1017.0,0.571493210496846,0.5220315520958972,3.3831511383280746,-0.007638100278468222,0.028,0.9999999999999994,-4.860145357150434,0.2086200497462248,42,2026-10-08 01:01:26.074244,54.6,0.4570348919311018,0.8146222618280106,1.3721285663987337
0153,cdot_cos,S,R-S,43,8,10012,-0.002484479461395002,-0.004088927068323752,-0.07876549799158007,0.013379045803601495,1017.0,0.57869245730005,0.5220481337182816,3.423298556422208,-0.0014903705713023463,0.022,0.9999999999999994,370.75562117229396,0.2135871900296538,43,2026-10-08 01:01:26.096244,54.6,0.016164024925438416,0.31567172364677604,0.32723849105472963
0153,cdot_cos,T,S-T,44,8,10304,-0.3172763563555247,0.09011706599707715,-0.3147918768941297,3.431660418995931e-08,1017.0,0.5853827663373041,0.5220481337608126,3.4628755772247137,-0.0014017368074016518,0.292,0.9999999999999993,2083981.2891426827,0.21855434522335593,44,2026-10-08 01:01:26.388243,54.6,0.9387262385985397,0.07983838848375932,0.022912017250870186
0153,cdot_cos,P,T-P,45,9,10865,0.037890802808579066,-1.5914182718469878e-05,0.3551671591641038,0.9999999962146477,1026.0,0.6253180761745655,0.5232873662468582,3.510318382849134,-0.008700322624193128,0.561,0.9999999999999988,-5.889601748644564,0.22352151669426462,45,2026-10-08 01:01:26.949243,54.6,0.43219137059700546,0.044102838525122985,0.07118593553879027
0153,cdot_cos,Q,P-Q,46,9,10977,-0.007264820140829119,-0.006044448795961007,-0.04515562294940818,0.07831264315526466,1026.0,0.6348661511624921,0.523384401912347,3.549765740410705,-0.0021651272738930035,0.112,0.999999999999999,67.3483849199194,0.22848866190754216,46,2026-10-08 01:01:27.061243,54.6,0.048879922990401926,0.22400403603611047,0.08525066953505935
0153,cdot_cos,R,Q-R,47,9,11005,0.08000497989604616,0.09361856646988785,0.08726980003687528,0.9915485600000479,1026.0,0.6754949802466542,0.5246128552259992,3.5965645536816018,-0.009577589380396045,0.028,0.9999999999999989,-6.033979496107895,0.23345580203756097,47,2026-10-08 01:01:27.089243,54.6,0.46119322468335383,0.8606164112042597,1.4510296101486464
0153,cdot_cos,S,R-S,48,9,11026,-0.0005803794899652905,-0.000881195677899391,-0.08058535938601145,0.012128906788683221,1026.0,0.6830606701899307,0.5246278802062899,3.6347285936993012,-0.0018490795225347303,0.021,0.9999999999999989,514.3773707735781,0.2384229418811321,48,2026-10-08 01:01:27.110244,54.6,0.015303824649072506,0.3486720752908287,0.36027094967983064
0153,cdot_cos,T,S-T,49,9,11308,-0.3680750930729605,0.13321316226998994,-0.3674947135829952,1.931031803711147e-09,1026.0,0.690139207408869,0.5246278802086821,3.6723951808182727,-0.001748666108316334,0.282,0.9999999999999991,41975385.42321147,0.2433900997527589,49,2026-10-08 01:01:27.392244,54.6,0.9441947200077492,0.08724859907402599,0.02510119581183817
0153,cdot_cos,P,T-P,50,10,11891,0.028663164100157255,-0.00044967411755302987,0.3967382571731177,0.9999999996088418,1003.0,0.7322688800676813,0.5258664987909698,3.718437694740188,-0.010777871158876922,0.583,0.9999999999999987,-7.28973808376421,0.24835728007748864,50,2026-10-08 01:01:27.975244,54.6,0.4326812198820149,0.04520499446172342,0.07226358946623035
0153,cdot_cos,Q,P-Q,51,10,12010,-0.013087125506399521,-0.010076476638171145,-0.04175028960655677,0.09282951053347671,1003.0,0.7428482309512385,0.525981463237965,3.7562590015622854,-0.0028066989342552195,0.119,0.9999999999999989,69.33597675595793,0.2533244266818319,51,2026-10-08 01:01:28.094244,54.6,0.05842260078653018,0.22376923110957844,0.08890210826518669
0153,cdot_cos,R,Q-R,52,10,12033,0.06957777925460318,0.08716362535490649,0.0826649047610027,0.989158827945635,1003.0,0.785525957071761,0.5272063107391376,3.8017388003425183,-0.011728103252092469,0.023,0.9999999999999986,-7.283685772552556,0.25829156604366527,52,2026-10-08 01:01:28.117243,54.6,0.4673457032158695,1.1065060130364244,1.8555533095879326
0153,cdot_cos,S,R-S,53,10,12055,-0.002194176799736178,-0.003702540625640481,-0.07177195605433935,0.019478967536293447,1003.0,0.793747507550914,0.5272304277565049,3.8382954791416695,-0.0023345629720791525,0.022,0.9999999999999981,389.4984249903041,0.2632587055271027,53,2026-10-08 01:01:28.139244,54.6,0.017886973927494377,0.3562441538400372,0.37370683996150333
0153,cdot_cos,T,S-T,54,10,12342,-0.3128992396649503,0.09513313785380775,-0.31070506286521415,4.289560450570097e-08,1003.0,0.8012006998407226,0.527230427809614,3.8743366031173037,-0.002137388350119089,0.287,0.9999999999999981,3712627.612748674,0.26822586742409554,54,2026-10-08 01:01:28.426244,54.6,0.9118769185356078,0.09002614262563191,0.025969311114315555
0153,cdot_cos,P,T-P,55,11,12894,0.02306020964054729,-0.000803499482545283,0.3359594493054976,0.9999999891963948,1000.0,0.8454225134180268,0.5284683600774802,3.9192262838655334,-0.013088960469465477,0.552,0.9999999999999982,-8.8466650426874,0.27319305346167766,55,2026-10-08 01:01:28.978244,54.6,0.43313623431871046,0.049441134362951826,0.08011198111830461
0153,cdot_cos,Q,P-Q,56,11,13016,-0.023511524513950163,-0.017200433838691194,-0.04657173415449745,0.07291055154150833,1000.0,0.8557837121774214,0.5285586048939369,3.955370454655739,-0.0031683443177941057,0.122,0.9999999999999979,109.93003854611038,0.27816020144860865,56,2026-10-08 01:01:29.100243,54.6,0.04366679484622228,0.2258224148344476,0.08492785868356291
0153,cdot_cos,R,Q-R,57,11,13038,0.06095984492828157,0.07858838463536157,0.08447136944223173,0.9901670704085982,1000.0,0.900523182637632,0.5297839939646726,3.9997814801790463,-0.014119913297252627,0.022,0.9999999999999979,-8.937217771073934,0.28312734026738257,57,2026-10-08 01:01:29.122243,54.6,0.4604220865248855,1.2204444707908657,2.0336122936459335
0153,cdot_cos,S,R-S,58,11,13062,-0.0033778363748583813,-0.00600153188348748,-0.06433768130313995,0.02894916669349788,1000.0,0.9094832688922195,0.5298198149050077,4.034987536572568,-0.0029142672493588915,0.024,0.9999999999999976,312.82389415372126,0.28809447951239436,58,2026-10-08 01:01:29.146244,54.6,0.02138428469359928,0.34931978939176334,0.3733369272744813
0153,cdot_cos,T,S-T,59,11,13347,-0.21344837847455067,0.09456183842415973,-0.21007054209969228,1.044004109996998e-05,1000.0,0.9172905325284366,0.5298198278231856,4.069623356920283,-0.0025628352018050604,0.285,0.9999999999999972,27204.45958725203,0.2930616452654866,59,2026-10-08 01:01:29.431243,54.6,0.8718601240598124,0.09477800921660025,0.027393907495498557
0153,cdot_cos,P,T-P,60,12,13894,0.020021647993256602,-0.0009589920190250207,0.23347002646780726,0.9999970903168177,975.0,0.9635067341456817,0.5310570069199345,4.113549930756255,-0.015614999380929211,0.547,0.9999999999999972,-10.54993914254036,0.2980288395028303,60,2026-10-08 01:01:29.978244,54.6,0.4334956577129752,0.05228897740513749,0.08449031374267832
0153,cdot_cos,Q,P-Q,61,12,14013,-0.02543857077510611,-0.01736960905754037,-0.04546021876836271,0.07712061352073485,975.0,0.974494673809657,0.5311524035499119,4.148432939267538,-0.003825302130317756,0.119,0.9999999999999971,123.58609788844518,0.3029959884305066,61,2026-10-08 01:01:30.097243,54.6,0.045866038092878376,0.24261805128162345,0.09233562742836451
0153,cdot_cos,R,Q-R,62,12,14035,0.06293607697003309,0.0817931389647181,0.0883746477451392,0.992039378808126,975.0,1.021249830350708,0.5323793306263737,4.191959094497925,-0.016756907994602842,0.022,0.9999999999999967,-10.539832490760118,0.3079631267590023,62,2026-10-08 01:01:30.119244,54.6,0.4622183405408863,1.2718710884036761,2.125234388229591
0153,cdot_cos,S,R-S,63,12,14059,-0.0038109492535135666,-0.007048926926736526,-0.06674702622354665,0.025471647755297484,975.0,1.0304570016994188,0.5324108281695751,4.22587999311919,-0.0033923245744577066,0.024,0.9999999999999963,424.3055826507363,0.31293026557030157,63,2026-10-08 01:01:30.143244,54.6,0.0194549545058175,0.3615304365294271,0.3836321395296142
0153,cdot_cos,T,S-T,64,12,14346,-0.22249461846284344,0.0868825017830889,-0.21868366920932986,6.523269425230015e-06,975.0,1.0386032913041205,0.5324108362360387,4.259286743083429,-0.003026835780316774,0.287,0.9999999999999966,45309.66875871979,0.31789743596818343,64,2026-10-08 01:01:30.430244,54.6,0.8862559719627875,0.09804052298441553,0.02838428433693994
0153,cdot_cos,P,T-P,65,13,14869,0.022734244288774914,-0.000842993606112766,0.24522886275161834,0.9999984688591355,892.0,1.0867322618924733,0.5336472003472795,4.302401334135484,-0.01836316118594395,0.523,0.9999999999999963,-12.40437607836686,0.32286463664657905,65,2026-10-08 01:01:30.953243,54.6,0.43380157764260757,0.0561223350901884,0.09202480036013909
0153,cdot_cos,Q,P-Q,66,13,14987,-0.02910828159762286,-0.02245653039548535,-0.051842525886397775,0.05569273420193233,892.0,1.0973072538084576,0.533716044942849,4.335929714243609,-0.00414615763262458,0.118,0.9999999999999961,206.50863638206033,0.32783178680068115,66,2026-10-08 01:01:31.071244,54.6,0.03242068076849404,0.2512194511465733,0.08961857555918917
0153,cdot_cos,R,Q-R,67,13,15011,0.06583221853554493,0.10350408692651294,0.0949405001331678,0.9944243288348388,892.0,1.1460200523630646,0.5349450843342822,4.378714298732552,-0.01961072754524572,0.024,0.9999999999999961,-12.582647895920497,0.3327989248992042,67,2026-10-08 01:01:31.095244,54.6,0.4544910479370428,1.2110739778606605,2.0296999397752904
0153,cdot_cos,S,R-S,68,13,15034,-0.003727637552779874,-0.009191255425713902,-0.0695598560883248,0.021924800001329906,892.0,1.1554388047457693,0.5349721771387227,4.411493656096811,-0.00389001496186314,0.023,0.9999999999999958,580.2541637181931,0.3377660631268336,68,2026-10-08 01:01:31.118243,54.6,0.017574632621173994,0.38877535538466196,0.40951097316107526
0153,cdot_cos,T,S-T,69,13,15335,-0.25336726219050953,0.025935248544126033,-0.24963962463772965,1.2034420782151116e-06,892.0,1.163903718710759,0.5349721786258285,4.443812734861902,-0.003523239088591758,0.301,0.9999999999999952,246637.3812893893,0.34273324025396684,69,2026-10-08 01:01:31.419244,54.6,0.901133469801262,0.09705442231763849,0.028122637757440925
0153,cdot_cos,P,T-P,70,14,15761,0.027464300362624667,-0.001178507570161861,0.2808315625531342,0.9999997808267961,916.0,1.2138655669809877,0.5362076714989744,4.486235322892187,-0.0213112701897967,0.426,0.9999999999999952,-14.397518179049534,0.3477004365131415,70,2026-10-08 01:01:31.845243,54.6,0.43401456339180905,0.07084481256624305,0.11728133396767289
0153,cdot_cos,Q,P-Q,71,14,15881,-0.029806627602092527,-0.023932398075283332,-0.057270927964717194,0.042007464122959866,916.0,1.224263499017198,0.5362595618132521,4.518603470665462,-0.004547767214468202,0.12,0.9999999999999947,323.05649346483375,0.35266758855107677,71,2026-10-08 01:01:31.965244,54.6,0.025069702928306768,0.25401416412518996,0.08664943363508686
0153,cdot_cos,R,Q-R,72,14,15906,0.07071123344137584,0.11142632241097172,0.10051786104346837,0.9958820575983597,916.0,1.2748289663710333,0.5374895067926408,4.560749788675007,-0.022660655749174072,0.025,0.9999999999999947,-14.726584390553084,0.3576347264590038,72,2026-10-08 01:01:31.990243,54.6,0.4496391122996946,1.2023209369204402,2.0226186941534063
0153,cdot_cos,S,R-S,73,14,15927,-0.003428747558501378,-0.008043282746164063,-0.07413998099987722,0.017157002968483364,916.0,1.2843795458632201,0.537510692265096,4.5924934557240835,-0.004382972471726472,0.021,0.9999999999999944,862.7460782938176,0.36260186401121947,73,2026-10-08 01:01:32.011244,54.6,0.015449834508062345,0.43614010188902386,0.45478949962794524
0153,cdot_cos,T,S-T,74,14,16220,-0.23918870793872737,0.04210746871220961,-0.235759960380226,2.567709235822613e-06,916.0,1.2931468506503723,0.5375106954356941,4.623841924472922,-0.004052309181992745,0.293,0.9999999999999934,104290.5084439934,0.3675690453823166,74,2026-10-08 01:01:32.304243,54.6,0.9216417101027438,0.10322896111548295,0.029922541935672876
0153,cdot_cos,P,T-P,75,15,16677,0.023329751599924956,-0.000954116413536823,0.2625184595386523,0.9999994042879872,959.0,1.3448717170768931,0.5387452584917514,4.665670895203369,-0.024459415375283056,0.457,0.9999999999999942,-16.52982088939432,0.3725362550889318,75,2026-10-08 01:01:32.761244,54.6,0.4341673663994465,0.0692078860452248,0.11318351515650077
0153,cdot_cos,Q,P-Q,76,15,16792,-0.027088513080114538,-0.01978420878192853,-0.050418264680039494,0.05992661271975017,959.0,1.3564028584957077,0.5388192267781485,4.697317223296862,-0.00558341423899601,0.115,0.9999999999999926,255.1904614220031,0.3775034079335839,76,2026-10-08 01:01:32.876243,54.6,0.03402269985782931,0.2775376366327563,0.10027079494621405
0153,cdot_cos,R,Q-R,77,15,16821,0.07352836300336907,0.10196281642015452,0.1006168760834836,0.995904169098658,959.0,1.408705373502427,0.5400482330159603,4.73890412130263,-0.025913381618229807,0.029,0.9999999999999928,-16.541793486281588,0.38247054614797715,77,2026-10-08 01:01:32.905244,54.6,0.456331626090735,1.070715796672096,1.8035350002317014
0153,cdot_cos,S,R-S,78,15,16842,-0.0024722963353965986,-0.004779305079187681,-0.07600065933876567,0.015525319078198077,959.0,1.4185043747026893,0.5400673883870066,4.769746135201777,-0.004963940206510426,0.021,0.9999999999999923,1093.658867845721,0.3874376832129679,78,2026-10-08 01:01:32.926244,54.6,0.014693866860922108,0.44912025788522764,0.46661910477439167
0153,cdot_cos,T,S-T,79,15,17138,-0.25991975583525156,0.08195924452445934,-0.257447459499855,7.857461394863157e-07,959.0,1.4275684243336066,0.5400673893564689,4.800224064270557,-0.00462226649054554,0.296,0.9999999999999923,352436.31455788703,0.39240487084881676,79,2026-10-08 01:01:33.222244,54.6,0.9287468390741681,0.1055715682837544,0.030621789293639654
0153,cdot_cos,P,T-P,80,16,17636,0.02625056624859153,-0.0009539888406468701,0.2861703220838431,0.9999998362458713,1031.0,1.481002743126672,0.5413009522689614,4.841543019897067,-0.027836276592598578,0.498,0.9999999999999923,-18.818667347211914,0.39737209788138034,80,2026-10-08 01:01:33.720243,54.6,0.4343311121488182,0.06599161022399802,0.10729782890173747
0153,cdot_cos,Q,P-Q,81,16,17755,-0.021528451812694367,-0.01476704205880666,-0.0477790180612859,0.06857840119338439,1031.0,1.4932960681167087,0.5413855296837188,4.87246989961624,-0.006548666899146207,0.119,0.9999999999999915,251.69378556328473,0.40233925306764395,81,2026-10-08 01:01:33.839243,54.6,0.03874791436734107,0.2778041305442459,0.10330525201711571
0153,cdot_cos,R,Q-R,82,16,17780,0.06753591095771444,0.08176518275070642,0.0890643627704088,0.9923313326726163,1031.0,1.5471201261962024,0.5426090978624938,4.9135344961543925,-0.029297368260217983,0.025,0.9999999999999915,-18.592099529629024,0.4073063900107741,82,2026-10-08 01:01:33.864243,54.6,0.46002431452575443,1.2839876127242622,2.15296232317975
0153,cdot_cos,S,R-S,83,16,17803,-0.002441905789284237,-0.003913392445120261,-0.06997781674699868,0.021440733751191418,1031.0,1.5574954487529218,0.5426355291793167,4.943645081863918,-0.005766663802256866,0.023,0.9999999999999908,890.2584996287031,0.41227352686155855,83,2026-10-08 01:01:33.887244,54.6,0.016899503976368014,0.42891067628701646,0.4511009807269286
0153,cdot_cos,T,S-T,84,16,18095,-0.23237944037509856,0.12705620818584504,-0.2299375345858143,3.5286580431340787e-06,1031.0,1.5668500173054052,0.5426355335292916,4.973336949950022,-0.005232364660996003,0.292,0.9999999999999901,122828.09651659761,0.41724071974951715,84,2026-10-08 01:01:34.179244,54.6,0.9029263608658084,0.11035657259488722,0.03203619367288836
0153,cdot_cos,P,T-P,85,17,18667,0.0217203089007,-0.0009649825116444897,0.25409974927579854,0.999999056667722,993.0,1.621943687148336,0.543868024988269,5.014215580585692,-0.03143813043062182,0.572,0.9999999999999898,-21.262431945263526,0.4222079737692422,85,2026-10-08 01:01:34.751244,54.6,0.4344969774441761,0.06016935141027518,0.09631760462050828
0153,cdot_cos,Q,P-Q,86,17,18788,-0.02026251834293777,-0.014936562693762518,-0.04198282724363777,0.09176581901619173,993.0,1.63568375531876,0.5439810990082469,5.044673346220003,-0.008009427940483125,0.121,0.9999999999999895,207.19792658587247,0.4271751310033767,86,2026-10-08 01:01:34.872243,54.6,0.05365714960817957,0.28556932177522376,0.11355428240019882
0153,cdot_cos,R,Q-R,87,17,18811,0.06464194783653919,0.0841252846286392,0.08490446617947696,0.9903946555960973,993.0,1.69105146301794,0.5452011743394148,5.0852981821955545,-0.032945449511303314,0.023,0.999999999999989,-20.438099954819283,0.4321422667324331,87,2026-10-08 01:01:34.895243,54.6,0.46912398383435683,1.4395851145282605,2.4072916390947867
0153,cdot_cos,S,R-S,88,17,18834,-0.0024983040387250963,-0.004442794776343945,-0.06714025187526429,0.024944093409029786,993.0,1.70190467058706,0.545231896230364,5.114728726585752,-0.006586461353766095,0.023,0.9999999999999883,857.9871662558278,0.4371094028005341,88,2026-10-08 01:01:34.918243,54.6,0.01827912797556444,0.445561839642182,0.47187858996173454
0153,cdot_cos,T,S-T,89,17,19136,-0.25656508036952097,0.10285488484829311,-0.2540667763307959,9.45032108582402e-07,993.0,1.7115473076414804,0.5452318973942873,5.143707601545327,-0.0058871542094453225,0.302,0.9999999999999877,600818.9282571344,0.4420766043030176,89,2026-10-08 01:01:35.220243,54.6,0.8879984689459071,0.10985710692287178,0.03192926176960423
0153,cdot_cos,P,T-P,90,18,19660,0.03378859056335876,-0.0008149723432452907,0.2903536709328797,0.9999998696849118,964.0,1.7682583631684745,0.5464632410379402,5.18420567847649,-0.03528098557108728,0.524,0.999999999999988,-23.871346973817587,0.4470438605528778,90,2026-10-08 01:01:35.744244,54.6,0.43468432060411333,0.06624833134050241,0.10822720520418715
0153,cdot_cos,Q,P-Q,91,18,19780,-0.016080801451306595,-0.013061900576828711,-0.04986939201466536,0.06163733107490323,964.0,1.780975558886327,0.5465391193435586,5.213651112683688,-0.008069220832660278,0.12,0.999999999999987,358.623779440731,0.4520110194094216,91,2026-10-08 01:01:35.864243,54.6,0.03431092408076872,0.2899901906941468,0.10597663098210383
0153,cdot_cos,R,Q-R,92,18,19805,0.06640406731579851,0.0929725882002776,0.0824848687671051,0.9890529064652057,964.0,1.8378560089350697,0.5477563895171362,5.2538949262917285,-0.03678204117891582,0.025,0.9999999999999868,-23.587877999069423,0.4569781549006842,92,2026-10-08 01:01:35.889244,54.6,0.45812159670136676,1.3596660621249246,2.2752180019497104
0153,cdot_cos,S,R-S,93,18,19828,-0.0015936917148848613,-0.0031117249247390724,-0.06799775903068338,0.02383032142399115,964.0,1.8489588619925732,0.5477857115361623,5.282654300369234,-0.007314513503287371,0.023,0.9999999999999862,1004.9624362306819,0.4619452902372713,93,2026-10-08 01:01:35.912243,54.6,0.017798553564355654,0.4568893247615693,0.48273274163058566
0153,cdot_cos,T,S-T,94,18,20122,-0.33184114047266894,0.032791054151339774,-0.33024744875778406,1.4757554483036503e-08,964.0,1.858872917874102,0.5477857115543207,5.310979726625939,-0.006568571152588957,0.294,0.9999999999999858,41079822.111634545,0.46691249653697614,94,2026-10-08 01:01:36.206244,54.6,0.8926485415093989,0.11596815559621046,0.03372127850860108
0153,cdot_cos,P,T-P,95,19,20624,0.02576648894703527,-0.0007399849582421867,0.3576076294197042,0.9999999966868836,988.0,1.917148137483145,0.5490158600777875,5.351144899756927,-0.03930149091582255,0.502,0.9999999999999852,-26.608916841183927,0.4718797600122394,95,2026-10-08 01:01:36.708243,54.6,0.4348008688743263,0.0710698068079239,0.11608609483873113
0153,cdot_cos,Q,P-Q,96,19,20744,-0.02400435621851122,-0.01707285737897471,-0.04977084516554649,0.061949273507114086,988.0,1.9302270039092575,0.5490920473383739,5.379981594077775,-0.008986948025729026,0.12,0.9999999999999839,397.8951685196349,0.47684692087192376,96,2026-10-08 01:01:36.828243,54.6,0.03428064443912884,0.29938940290090515,0.10899055355093798
0153,cdot_cos,R,Q-R,97,19,20767,0.07927935888670905,0.10266700566982191,0.10328371510522028,0.9964572071709655,988.0,1.9890015941793622,0.550317204593635,5.419996141589828,-0.041120094847412116,0.023,0.9999999999999839,-26.227773360274384,0.48181405514926806,97,2026-10-08 01:01:36.851244,54.6,0.4577434884686018,1.5121551184415374,2.555416968265421
0153,cdot_cos,S,R-S,98,19,20788,-0.0025311129974216998,-0.004539231441814247,-0.08181047188413075,0.01135303985312595,988.0,1.9997861393575682,0.5503311598181218,5.448000777688487,-0.0076789917368034095,0.021,0.9999999999999832,2396.3142364571836,0.486781189224221,98,2026-10-08 01:01:36.872243,54.6,0.012843954717076072,0.4990873487094884,0.5135497703907638
0153,cdot_cos,T,S-T,99,19,21073,-0.26210520371605445,0.10925912573874534,-0.25957409071863274,6.996077242959122e-07,988.0,2.0099632628251607,0.5503311606780813,5.475726158729986,-0.0072845665502791574,0.285,0.9999999999999821,458655.5116854947,0.49174840001251385,99,2026-10-08 01:01:37.157243,54.6,0.947294435723751,0.12276211111086734,0.03570920514944728
0153,cdot_cos,P,T-P,100,20,21612,0.016811977786938635,-0.0005298084519997566,0.2789171815029931,0.9999997566775584,1022.0,2.0697605426907626,0.5515600531186197,5.515600792929867,-0.043526508147882385,0.539,0.9999999999999821,-29.491548977000797,0.4967156877072176,100,2026-10-08 01:01:37.696243,54.6,0.4348993361311282,0.06870420731950111,0.11094115002894601
0153,cdot_cos,Q,P-Q,101,20,21734,-0.028174601733232517,-0.019395422904069117,-0.044986579520171155,0.07898144422663662,1022.0,2.084026398315583,0.5516570862199747,5.544085392126776,-0.010572217620496496,0.122,0.9999999999999809,339.6190585192133,0.5016828512150321,101,2026-10-08 01:01:37.818244,54.6,0.044286955853577524,0.30512101498109395,0.1169332428263959
0153,cdot_cos,R,Q-R,102,20,21756,0.06717472883938971,0.08387390413854727,0.09534933057262224,0.9945467397210528,1022.0,2.1442100703461495,0.5528786033112155,5.583800480071497,-0.045377203181436995,0.022,0.9999999999999806,-28.493244843250253,0.5066499843603559,102,2026-10-08 01:01:37.840243,54.6,0.46439732884898316,1.6293552595742653,2.735621455934847
0153,cdot_cos,S,R-S,103,20,21778,-0.003836236919229284,-0.006487567591217581,-0.071010965758619,0.020288603103341605,1022.0,2.1557180297368506,0.5529035154837115,5.611358120093674,-0.008823779839334946,0.022,0.9999999999999791,1467.291676306557,0.511617117899463,103,2026-10-08 01:01:37.862243,54.6,0.01588144650477518,0.49881523829264923,0.5230890632136836
0153,cdot_cos,T,S-T,104,20,22068,-0.21340334485576873,0.1089985518079749,-0.20956710793653943,1.0730989104151072e-05,1022.0,2.166157940831026,0.5529035286601153,5.63853205897511,-0.008045707628188396,0.29,0.9999999999999782,59050.42272176952,0.5165843374825208,104,2026-10-08 01:01:38.152243,54.6,0.9078224144487566,0.12366764243389164,0.03599969342819147
0153,cdot_cos,P,T-P,105,21,22634,0.027044213260221456,-0.0004801340518760178,0.2404475581159902,0.9999980121137328,1016.0,2.2274452623485077,0.5541310845492176,5.678154253189636,-0.04799054930766684,0.566,0.9999999999999782,-32.54014096962239,0.5215516491072861,105,2026-10-08 01:01:38.718244,54.6,0.4350266078947634,0.066710680531463,0.10828148678000286
0153,cdot_cos,Q,P-Q,106,21,22753,-0.019962904641283804,-0.013882607547474606,-0.04700711790150526,0.07131992003329102,1016.0,2.241674431192642,0.55421860887186,5.706030160060684,-0.0113331098861052,0.119,0.9999999999999767,418.8257425459071,0.5265188137273992,106,2026-10-08 01:01:38.837244,54.6,0.039378168272691964,0.31799475976886715,0.11957284742970167
0153,cdot_cos,R,Q-R,107,21,22777,0.06560780609203676,0.0811142038008607,0.08557071073332057,0.9907346105556303,1016.0,2.303128015173498,0.5554340954599728,5.745455310425057,-0.04974798003188595,0.024,0.9999999999999765,-31.604519968768884,0.5314859465832564,107,2026-10-08 01:01:38.861243,54.6,0.46200038867451276,1.5295705976695235,2.560565999202328
0153,cdot_cos,S,R-S,108,21,22800,-0.002413802483286655,-0.0039858176115070715,-0.06802160857532341,0.02380004819953062,1016.0,2.3150938198807793,0.5554632865432637,5.772544156048823,-0.009842926388660774,0.023,0.9999999999999752,1367.028871300793,0.5364530795116617,108,2026-10-08 01:01:38.884243,54.6,0.017349598279467714,0.4925917230406382,0.520252378577446
0153,cdot_cos,T,S-T,109,21,23086,-0.24528956716959632,0.126348202573285,-0.24287576468630967,1.7410564167094524e-06,1016.0,2.3257872344333674,0.5554632886786791,5.799207340096048,-0.008839432377386228,0.286,0.9999999999999739,469929.1815753772,0.5414203052562393,109,2026-10-08 01:01:39.170244,54.6,0.8926821365424014,0.1283805539841804,0.03738956137268566
0153,cdot_cos,P,T-P,110,22,23650,0.02873987557464443,-0.000963241605359012,0.27402944274424074,0.9999996822522129,968.0,2.3885274967597305,0.5566894535459767,5.838608615715061,-0.052653894352252456,0.564,0.999999999999974,-35.73292886089046,0.5463876326962039,110,2026-10-08 01:01:39.734244,54.6,0.4351249864938424,0.06929365924683976,0.11124159986943812
0153,cdot_cos,Q,P-Q,111,22,23771,-0.014150671001583154,-0.012550059890079408,-0.04289054657622758,0.0877178548590493,968.0,2.4039504820638027,0.5567969774093543,5.866220572748029,-0.013157479266616253,0.121,0.9999999999999719,367.326971380454,0.5513548002121182,111,2026-10-08 01:01:39.855244,54.6,0.0496964224552943,0.3230743310056516,0.12746268846340625
0153,cdot_cos,R,Q-R,112,22,23792,0.06723530230473557,0.09048037618835966,0.08138597330631872,0.9883838428736639,968.0,2.466711484863098,0.5580081605030738,5.905403703979493,-0.05438475818753398,0.021,0.999999999999972,-34.038849398327436,0.5563219309981218,112,2026-10-08 01:01:39.876243,54.6,0.46857140012583887,1.78310726118025,2.9886191809188345
0153,cdot_cos,S,R-S,113,22,23816,-0.002581578331686088,-0.004878689834262778,-0.06981688063642165,0.021625873743388695,968.0,2.478840987033373,0.5580346535734118,5.931990150838857,-0.010672145088142647,0.024,0.9999999999999706,1649.964029904666,0.5612890633703203,113,2026-10-08 01:01:39.900243,54.6,0.016639867806263454,0.4807013795051588,0.5053959237614573
0153,cdot_cos,T,S-T,114,22,24104,-0.29103994415228096,0.05516185475875042,-0.28845836582059486,1.4452303673520078e-07,968.0,2.489785151079346,0.5580346537504606,5.9581800803010685,-0.00967415062282465,0.288,0.999999999999969,5636832.061578372,0.5662562977463687,114,2026-10-08 01:01:40.188244,54.6,0.9019817974676276,0.13039438545058013,0.0380005696040717
0153,cdot_cos,P,T-P,115,23,24618,0.026219690439531082,-0.000436234980047375,0.31725963459181206,0.9999999700092272,1103.0,2.5539481530529073,0.5592593541011774,5.997388858260329,-0.057541037232614965,0.514,0.9999999999999688,-39.084570018920836,0.5712236228263303,115,2026-10-08 01:01:40.702244,54.6,0.43523294203012314,0.07683364669844911,0.12483074313922472
0153,cdot_cos,Q,P-Q,116,23,24739,-0.021171847392951207,-0.013860645963032832,-0.04739153783248229,0.06994217283671575,1103.0,2.5687701398853515,0.5593449855062147,6.024330336549994,-0.013499879861196018,0.121,0.9999999999999671,514.310810995774,0.5761907928236331,116,2026-10-08 01:01:40.823244,54.6,0.03829878963431736,0.3278508416588189,0.12249575894581965
0153,cdot_cos,R,Q-R,117,23,24761,0.07648449085233736,0.08232436261763998,0.09765633824528856,0.9951890400360676,1103.0,2.6332880567343415,0.5605630276531924,6.06341670028826,-0.059637732439965896,0.022,0.9999999999999669,-37.87869959446743,0.5811579231034726,117,2026-10-08 01:01:40.845243,54.6,0.46133295159534804,1.7367157053444948,2.9326325840450003
0153,cdot_cos,S,R-S,118,23,24785,-0.0037161603706781375,-0.005271105243376788,-0.08020065122301549,0.012383181608850463,1103.0,2.6451856309205093,0.5605781792429485,6.089438191381487,-0.011159099067660615,0.024,0.9999999999999654,3199.5740481878593,0.586125054675548,118,2026-10-08 01:01:40.869244,54.6,0.012980406189720265,0.48091939710583526,0.49573225775699037
0153,cdot_cos,T,S-T,119,23,25067,-0.1926099710824319,0.16129986009721273,-0.18889381071175376,3.3177612127224605e-05,1103.0,2.6563721877954216,0.5605782198376604,6.115186900120383,-0.010538099133528819,0.282,0.9999999999999635,15297.557358566874,0.591092294859256,119,2026-10-08 01:01:41.151244,54.6,0.9427736777433557,0.13605756571233546,0.039668641400398316
0153,cdot_cos,P,T-P,120,24,25721,0.025767662637195553,-0.0006648673475627719,0.21837763371962746,0.999993366814717,1060.0,2.7219220979822665,0.5618013985143027,6.154226480701543,-0.06260586220707738,0.654,0.9999999999999635,-42.56758564209161,0.5960596962525812,120,2026-10-08 01:01:41.805243,54.6,0.43531928828600347,0.06199912314901339,0.10022922046918174
0153,cdot_cos,Q,P-Q,121,24,25833,-0.019630690709716934,-0.01288595406656923,-0.04539835334691249,0.07736136913683413,1060.0,2.737467040874331,0.5618959948178386,6.180856503132867,-0.015069917770823149,0.112,0.9999999999999609,502.51376279416087,0.6010268643958866,121,2026-10-08 01:01:41.917243,54.6,0.04266570221992709,0.363613904083414,0.13879413296486295
0153,cdot_cos,R,Q-R,122,24,25861,0.0791802529538604,0.08688451510358604,0.09881094366357733,0.99548163972939,1060.0,2.803371612496951,0.5631128507566436,6.219785297822314,-0.06480377239452365,0.028,0.9999999999999609,-40.87078267665688,0.6059939959946561,122,2026-10-08 01:01:41.945244,54.6,0.4641938292561877,1.3926388636635232,2.3537347008078604
0153,cdot_cos,S,R-S,123,24,25883,-0.002868300494793699,-0.004163969206379295,-0.0820485534486541,0.011208057281918553,1060.0,2.8154548172394884,0.563126546955701,6.245376094863804,-0.012048526864239547,0.022,0.999999999999959,3851.8165010193975,0.6109611253657001,123,2026-10-08 01:01:41.967244,54.6,0.012543358425494415,0.5342153749239904,0.5492365792062369
0153,cdot_cos,T,S-T,124,24,26182,-0.2151603725776531,0.1419019956103389,-0.2122920720828594,9.247508599849039e-06,1060.0,2.826877088993607,0.563126558256078,6.2707125336014675,-0.011437136794993847,0.299,0.9999999999999567,54103.51044014872,0.6159283813440338,124,2026-10-08 01:01:42.266243,54.6,0.9479471123069108,0.13099065173181076,0.03820157777297111
0153,cdot_cos,P,T-P,125,25,26781,0.026882892690043805,-0.0007778501154668978,0.24204326526769693,0.9999981779787672,1103.0,2.8937872269751113,0.5643481619848385,6.309604860270129,-0.0678843382510664,0.599,0.9999999999999566,-46.20745674487153,0.6208957787706719,125,2026-10-08 01:01:42.865243,54.6,0.4353868889631008,0.07068075660117108,0.11170306841653502
0153,cdot_cos,Q,P-Q,126,25,26897,-0.011142376024102622,-0.007735246135217021,-0.038025268714146424,0.11143367999421559,1103.0,2.9115526354018098,0.5644842419514441,6.336320551307158,-0.01828955256356509,0.116,0.9999999999999539,364.45324704735793,0.6258629508815712,126,2026-10-08 01:01:42.981244,54.6,0.06642740032768724,0.3652548174059578,0.1531500726439525
0153,cdot_cos,R,Q-R,127,25,26922,0.07388526988551174,0.0776632057612075,0.08502764590961435,0.9904584263356545,1103.0,2.9785263446132935,0.5656933353496543,6.375040785271183,-0.06991132907616715,0.025,0.9999999999999538,-42.694614484718606,0.6308300799829263,127,2026-10-08 01:01:43.006243,54.6,0.4778830277847999,1.5913606078575881,2.6789483684593485
0153,cdot_cos,S,R-S,128,25,26946,-0.0017276895199013114,-0.0023560922637060576,-0.07561295940541304,0.01585220333135952,1103.0,2.991120665794689,0.5657126804718913,6.40030902048293,-0.013324196259563912,0.024,0.9999999999999517,2925.1369995670852,0.6357972091056906,128,2026-10-08 01:01:43.030244,54.6,0.014307873337496602,0.5053259349146929,0.524763382558154
0153,cdot_cos,T,S-T,129,25,27245,-0.3384127892642994,0.14358517837672574,-0.3366850997443981,1.0383929602498492e-08,1103.0,3.0027819894891987,0.5657126804845631,6.425261584552091,-0.012387256822585053,0.299,0.9999999999999497,73938567.33509806,0.6407644744084141,129,2026-10-08 01:01:43.329243,54.6,0.9271523656470043,0.133631746143789,0.03900108259033298
0153,cdot_cos,P,T-P,130,26,27884,0.03771130740795788,-3.475998007777464e-05,0.37612409667225727,0.9999999987945052,1053.0,3.071032449988675,0.5669326162713669,6.4640270567612665,-0.07341732496820345,0.639,0.9999999999999495,-50.02727914517196,0.6457319129158574,130,2026-10-08 01:01:43.968243,54.6,0.43549319531186487,0.06649079004715366,0.10680823239354656
0153,cdot_cos,Q,P-Q,131,26,28005,-0.005387233867694883,-0.004516917734290507,-0.04309854127565277,0.08681331276309062,1053.0,3.087757219169461,0.5670384848888728,6.490052857870588,-0.01824155572269324,0.121,0.9999999999999468,521.1720956162491,0.6506990897495696,131,2026-10-08 01:01:44.089243,54.6,0.04857096452689203,0.3505249949815383,0.138221232899059
0153,cdot_cos,R,Q-R,132,26,28027,0.0742420643001602,0.08612999643227294,0.07962929816785508,0.9872294365632445,1053.0,3.1558594987742072,0.5682419758862588,6.528604024718826,-0.07525167020440428,0.022,0.9999999999999458,-47.3706198098167,0.6556662159111843,132,2026-10-08 01:01:44.111244,54.6,0.46879360609161175,1.840279111361158,3.095558163852097
0153,cdot_cos,S,R-S,133,26,28049,-0.0007563220571812524,-0.0011509955356266827,-0.07499838635734145,0.01638429706112184,1053.0,3.168729500069352,0.568261942557414,6.55351718936915,-0.014405367618275966,0.022,0.9999999999999432,3047.3934344436802,0.6606333425962887,133,2026-10-08 01:01:44.133244,54.6,0.014641969816205653,0.5627317626920088,0.585000058870219
0153,cdot_cos,T,S-T,134,26,28343,-0.3632810603271348,0.11640276148806249,-0.3625247382699536,2.5330272396596086e-09,1053.0,3.1806196963326556,0.5682619425605009,6.578108331575925,-0.013360776034328309,0.294,0.9999999999999413,338398954.69867814,0.6656006146175685,134,2026-10-08 01:01:44.427244,54.6,0.924794756074212,0.13851906668401906,0.040442844433005325
0153,cdot_cos,P,T-P,135,27,28937,0.02631995187358505,-0.00039875001047985685,0.38960101220071985,0.9999999994224438,1067.0,3.2501787112795553,0.5694801670245864,6.616762407143429,-0.0791105884218985,0.594,0.9999999999999405,-53.971837149837896,0.6705680515705185,135,2026-10-08 01:01:45.021244,54.6,0.4355643770796049,0.07279837426483442,0.11710271876582433
0153,cdot_cos,Q,P-Q,136,27,29060,-0.017258687811136233,-0.011732378164725315,-0.04357863968472128,0.08475758477085973,1067.0,3.267104164959279,0.5695833823447982,6.642427472477651,-0.01950732720603813,0.123,0.9999999999999372,577.4652550951366,0.6755352321314662,136,2026-10-08 01:01:45.144243,54.6,0.047102490243220475,0.35130745522565743,0.13760531446929794
0153,cdot_cos,R,Q-R,137,27,29081,0.06535114349497682,0.07584860282546722,0.08260983130611306,0.9891265343664728,1067.0,3.336600345265067,0.570787462521448,6.680896840689497,-0.08110356033576903,0.021,0.9999999999999364,-51.1562554755426,0.6805023564191938,137,2026-10-08 01:01:45.165244,54.6,0.46791140108478624,1.9775879905580853,3.309341919323242
0153,cdot_cos,S,R-S,138,27,29106,-0.0024215047929467925,-0.003726750358233311,-0.06777264828792362,0.024117920712436916,1067.0,3.3501628605627185,0.5708168112667235,6.705580109290547,-0.016026555201514102,0.025,0.999999999999934,2217.369244353929,0.6854694835415088,138,2026-10-08 01:01:45.190243,54.6,0.01723912986840079,0.5135781246048765,0.5425006119060605
0153,cdot_cos,T,S-T,139,27,29395,-0.2613617483035755,0.11853658604865373,-0.2589402435106287,7.242436124131309e-07,1067.0,3.362279251495311,0.5708168121480375,6.729831841767293,-0.014372682471787787,0.289,0.9999999999999309,1876598.679800084,0.6904367624477139,139,2026-10-08 01:01:45.479244,54.6,0.8913032445713784,0.14353179840672012,0.041925228140457835
0153,cdot_cos,P,T-P,140,28,30004,0.0275267653578926,-0.0007513010553036241,0.2888885136614681,0.9999998588316922,1039.0,3.4331242400418027,0.5720332566462581,6.768389683085446,-0.08501591055263683,0.609,0.9999999999999309,-58.07353166065612,0.695404230284832,140,2026-10-08 01:01:46.088243,54.6,0.43563904241153156,0.07117565666282596,0.11633003045400969
0153,cdot_cos,Q,P-Q,141,28,30125,-0.022494301167326966,-0.015247802269209632,-0.050021066525219565,0.061160083678313916,1039.0,3.448971201310633,0.5721076264095148,6.793402657636924,-0.019258546618667757,0.121,0.9999999999999271,884.1948804784741,0.7003714123906853,141,2026-10-08 01:01:46.209243,54.6,0.03289446050816508,0.3585113833011519,0.13096662205644727
0153,cdot_cos,R,Q-R,142,28,30147,0.06529553856133943,0.07794287348585491,0.0877898397286664,0.9917832126561712,1039.0,3.5198839948006815,0.573313163141338,6.831815812919001,-0.08720305864709381,0.022,0.9999999999999266,-56.36038308486455,0.7053385358440435,142,2026-10-08 01:01:46.231244,54.6,0.4587945126278882,1.9248521840790471,3.223308795002211
0153,cdot_cos,S,R-S,143,28,30171,-0.0027949285568505994,-0.004452996176415726,-0.06809046711819003,0.023712853571067588,1039.0,3.533664697410111,0.5733419760937447,6.856173848124359,-0.017152097112899268,0.024,0.9999999999999238,2431.231640037507,0.7103056610953691,143,2026-10-08 01:01:46.255244,54.6,0.016838206736595147,0.5440865960356552,0.5741959420595596
0153,cdot_cos,T,S-T,144,28,30456,-0.19647487631441668,0.11487324220033053,-0.19367994775756608,2.5548021111709776e-05,1039.0,3.546000151410393,0.5733420071362992,6.880105088619604,-0.015410120280069814,0.285,0.9999999999999202,56115.769445444,0.7152729472653651,144,2026-10-08 01:01:46.540244,54.6,0.8931139590294147,0.14813810218565254,0.043282294737831656
0153,cdot_cos,P,T-P,145,29,31043,0.022778014339446012,-0.0016054840645669266,0.2192528906538627,0.9999936763510656,1010.0,3.618103415655933,0.5745566213538869,6.918578936700399,-0.09108270274469087,0.587,0.99999999999992,-62.30174270058908,0.7202404245561922,145,2026-10-08 01:01:47.127244,54.6,0.43569545353307726,0.07522529718169094,0.12283349956650753
0153,cdot_cos,Q,P-Q,146,29,31145,-0.026793962055438773,-0.015182169667641084,-0.04957197639488478,0.06258327184295709,1010.0,3.634314650301698,0.574632606610222,6.943313324542119,-0.020729934134324845,0.102,0.9999999999999156,925.8739392822042,0.7252075974181027,146,2026-10-08 01:01:47.229243,54.6,0.03358160757097973,0.43425617320758986,0.15893367299769842
0153,cdot_cos,R,Q-R,147,29,31174,0.07206238047585074,0.07796292308791353,0.09885634253128951,0.9954927754540546,1010.0,3.706691674990281,0.5758408042469144,6.9816998416874965,-0.09361213913016994,0.029,0.9999999999999153,-60.32308190518161,0.7301747241621631,147,2026-10-08 01:01:47.258244,54.6,0.4590688573047866,1.480613681209591,2.4957594720201066
0153,cdot_cos,S,R-S,148,29,31198,-0.004461139572406947,-0.006716249526646887,-0.07652352004825769,0.015094961821625388,1010.0,3.7201902438118544,0.5758591175805098,7.005629658353671,-0.017663028461764794,0.024,0.999999999999912,4147.202925830229,0.7351418482435897,148,2026-10-08 01:01:47.282243,54.6,0.01357002765339475,0.5426625088033784,0.5624403675655495
0153,cdot_cos,T,S-T,149,29,31497,-0.19174903261155934,0.10710615626946307,-0.1872878930391524,3.621796909093547e-05,1010.0,3.7327394754128433,0.5758591615202014,7.029258013897198,-0.016478401288462147,0.299,0.9999999999999083,26960.29781887938,0.7401091536379176,149,2026-10-08 01:01:47.581243,54.6,0.9306335476029887,0.14362680416075158,0.04197067425079925
0153,cdot_cos,P,T-P,150,30,32053,0.026869079385979936,6.25696936659446e-05,0.21861811199753928,0.9999934533393435,992.0,3.806079072699984,0.577071895533684,7.06765961862242,-0.09733808605292527,0.556,0.9999999999999079,-66.67553137415749,0.7450766332502464,150,2026-10-08 01:01:48.137243,54.6,0.43573996550077115,0.08089502049680299,0.13190575051643966
0153,cdot_cos,Q,P-Q,151,30,32166,-0.022050414456869092,-0.01587214381645605,-0.04891949384284903,0.06470615865931831,992.0,3.8226947382052883,0.5771503355835491,7.092143315948055,-0.022314746553593202,0.113,0.9999999999999034,956.4417619357989,0.7500438158209061,151,2026-10-08 01:01:48.250243,54.6,0.03466405337920907,0.3992272751923699,0.14704128765756164
0153,cdot_cos,R,Q-R,152,30,32194,0.07745720343577615,0.0976857983850978,0.09950761789264524,0.9956495495093507,992.0,3.8963044368934594,0.578356819178306,7.130463019429811,-0.09994970012180887,0.028,0.999999999999903,-64.34812201807259,0.7550109408899949,152,2026-10-08 01:01:48.278244,54.6,0.4599027453177769,1.5555121645744858,2.628917810291826
0153,cdot_cos,S,R-S,153,30,32216,-0.004202870445736198,-0.007361343580399443,-0.08166007388151235,0.011445580350790671,992.0,3.9098034194214595,0.5783706830126331,7.154051520602145,-0.018536050177383686,0.022,0.9999999999998993,5872.376142379573,0.7599780623856954,153,2026-10-08 01:01:48.300243,54.6,0.01237373770844563,0.5967177100075065,0.6135901149090947
0153,cdot_cos,T,S-T,154,30,32517,-0.22887683954395427,0.1010616510743709,-0.22467396909821807,4.703501078322451e-06,992.0,3.9225600161337897,0.5783706887098775,7.177392762980826,-0.0175755640126686,0.301,0.9999999999998958,168587.84496134223,0.7649453801514867,154,2026-10-08 01:01:48.601243,54.6,0.9468174674266532,0.1450366849589574,0.04238071997451895
0153,cdot_cos,P,T-P,155,31,33045,0.0204395525893672,-0.0008040117732000642,0.24931639213332146,0.9999987751304817,1049.0,3.997115503766752,0.5795814907722253,7.215732684011906,-0.10378339115200641,0.528,0.9999999999998953,-71.1989430974181,0.7699128622496542,155,2026-10-08 01:01:49.129244,54.6,0.43576530279345393,0.08656061381262556,0.1412035750624283
0153,cdot_cos,Q,P-Q,156,31,33167,-0.028653056666223732,-0.01877890087405304,-0.04909260925559093,0.06413647254010148,1049.0,4.013968024319922,0.5796591149345335,7.239941424591122,-0.023728755691887975,0.122,0.9999999999998908,1031.3107810723195,0.7748800542050253,156,2026-10-08 01:01:49.251244,54.6,0.034261284525085985,0.37592098535544705,0.13813541437024948
0153,cdot_cos,R,Q-R,157,31,33189,0.07546716548700397,0.08885611473403662,0.10412022215322769,0.9966148431233868,1049.0,4.088840224193481,0.5808648060968088,7.278216574417086,-0.10654421267859537,0.022,0.9999999999998896,-68.68712285360265,0.7798471738787637,157,2026-10-08 01:01:49.273243,54.6,0.45965124514739336,2.0146912892617337,3.403281812434484
0153,cdot_cos,S,R-S,158,31,33213,-0.004734279760066183,-0.00760584849740439,-0.08020144524707015,0.012382651411149234,1049.0,4.1026144410474386,0.5808797804204253,7.301547035090454,-0.019815149898866163,0.024,0.9999999999998855,5791.851772458565,0.7848142956669425,158,2026-10-08 01:01:49.297244,54.6,0.01256416302917493,0.5570520543283219,0.5739257022482347
0153,cdot_cos,T,S-T,159,31,33499,-0.19604131071155168,0.11851581263640115,-0.1913070309514855,2.9081946476155268e-05,1049.0,4.11557872280124,0.5808798155890085,7.324617190302747,-0.018710879918560824,0.286,0.9999999999998818,31399.330913693895,0.7897816136985019,159,2026-10-08 01:01:49.583244,54.6,0.9426902404588103,0.15509744140531745,0.04532965648182455
0153,cdot_cos,P,T-P,160,32,34094,0.02178228716587953,-0.0010262982732645036,0.21782359787743122,0.9999931630940903,1042.0,4.19133017753128,0.5820886118204335,7.362904713930403,-0.11042012868341985,0.595,0.9999999999998813,-75.86824510260642,0.794749168673268,160,2026-10-08 01:01:50.178244,54.6,0.43581027155262103,0.07900143304338623,0.12731336929418446
0153,cdot_cos,Q,P-Q,161,32,34215,-0.02240244418935271,-0.01526635076222679,-0.04418473135523224,0.08222549342069835,1042.0,4.20959042812287,0.5821879627111602,7.387138671253732,-0.02691673112462239,0.121,0.9999999999998764,840.4896719894136,0.7997163629688103,161,2026-10-08 01:01:50.299244,54.6,0.04494633849617001,0.3893980927497697,0.15091116191396584
0153,cdot_cos,R,Q-R,162,32,34239,0.07548373552307569,0.09082059053545802,0.0978861797124284,0.9952487521170565,1042.0,4.285564515976724,0.5833899643066897,7.425343576841422,-0.11315402140609486,0.024,0.9999999999998754,-71.74473861117461,0.8046834827044803,162,2026-10-08 01:01:50.323244,54.6,0.46667459125772415,1.875408708636413,3.1655869939106
0153,cdot_cos,S,R-S,163,32,34261,-0.0034929562887677005,-0.005650787604909738,-0.07897669181184339,0.013227684664444784,1042.0,4.299610046137418,0.5834059332680319,7.448429918688388,-0.021140523122925508,0.022,0.9999999999998713,5762.021480987695,0.8096506015026892,163,2026-10-08 01:01:50.345243,54.6,0.01287496867823786,0.6185191588408134,0.6384331891224287
0153,cdot_cos,T,S-T,164,32,34557,-0.21826245961164015,0.12339002675459358,-0.21476950332287245,8.077541843532964e-06,1042.0,4.31277935896572,0.5834059430194926,7.471243046940332,-0.019884525613966524,0.296,0.9999999999998668,128800.96176967937,0.8146179384602179,164,2026-10-08 01:01:50.641243,54.6,0.9387889645277974,0.15219967182942995,0.0444909217172377
0153,cdot_cos,P,T-P,165,33,35136,0.022041030026370877,-0.0007602387383365942,0.24030348963801101,0.9999979964151118,1050.0,4.38971225186044,0.5846126693945294,7.509487337262029,-0.1172793789132526,0.579,0.9999999999998657,-80.70997312569209,0.8195855062124713,165,2026-10-08 01:01:51.220243,54.6,0.4358523907278012,0.08181569100677105,0.13287200845374814
0153,cdot_cos,Q,P-Q,166,33,35258,-0.025126923763780964,-0.016475759199423134,-0.047167953790151845,0.07074046736798938,1050.0,4.407521929151561,0.5846979957139057,7.533308440629039,-0.027443681359605253,0.122,0.9999999999998611,1052.8486193979672,0.8245527045221205,166,2026-10-08 01:01:51.342243,54.6,0.037875284053524305,0.38864673189319426,0.14598096140262876
0153,cdot_cos,R,Q-R,167,33,35280,0.06663489104366019,0.07826277370754921,0.09176181480744115,0.9933745868521284,1050.0,4.48454205444238,0.5858956538501878,7.571442225190284,-0.11986195955817305,0.022,0.9999999999998596,-77.1658250370672,0.8295198211643255,167,2026-10-08 01:01:51.364243,54.6,0.4625321211353978,2.08662046003621,3.500914785946305
0153,cdot_cos,S,R-S,168,33,35301,-0.0032876839383960137,-0.005105465644060317,-0.0699225749820562,0.02150410816612085,1050.0,4.499333229393154,0.5859215690194998,7.594413272468077,-0.023255893091904328,0.021,0.9999999999998557,3727.7806408834053,0.834486937623361,168,2026-10-08 01:01:51.385243,54.6,0.01570075117818109,0.6705599912374774,0.7043416643225967
0153,cdot_cos,T,S-T,169,33,35598,-0.2004419621903201,0.12056230058135532,-0.19715427825192408,2.113363467095116e-05,1050.0,4.512705574074354,0.5859215944879678,7.616982483154097,-0.021091003579912393,0.297,0.9999999999998503,85002.73796947961,0.8394542871964272,169,2026-10-08 01:01:51.682244,54.6,0.9024471378096627,0.15398548990068134,0.04502472956632836
0153,cdot_cos,P,T-P,170,34,36186,0.02530659492905527,-0.00033298141808523314,0.22574855711937536,0.9999955645241522,1059.0,4.590800610394159,0.5871261879250996,7.655190723245666,-0.12431553952614728,0.588,0.9999999999998502,-85.6924276393308,0.8444218882690107,170,2026-10-08 01:01:52.270243,54.6,0.43589975439398804,0.0826035892948152,0.13281468761871632
0153,cdot_cos,Q,P-Q,171,34,36303,-0.01806065601034427,-0.011997045245704732,-0.04336725093939954,0.08565722899939338,1059.0,4.6098473950850565,0.5872293222521511,7.679021745401373,-0.030640876886777014,0.117,0.9999999999998442,908.2782165499834,0.8493890855559717,171,2026-10-08 01:01:52.387244,54.6,0.0470201256344583,0.41437195987359493,0.16279303154613237
0153,cdot_cos,R,Q-R,172,34,36330,0.06512367141795562,0.07558351246176542,0.0831843274282999,0.9894587743338801,1059.0,4.68776364900458,0.5884201084404979,7.71705932143438,-0.12655683249656885,0.027,0.9999999999998432,-80.5484280456393,0.8543562050358111,172,2026-10-08 01:01:52.414243,54.6,0.4686549936151075,1.7248754672307276,2.8857871822045826
0153,cdot_cos,S,R-S,173,34,36353,-0.0021332087202308217,-0.0032584925395986696,-0.06725688013818644,0.024789681631284886,1059.0,4.702990670315516,0.5884499289053503,7.739852342909347,-0.024979984715125445,0.023,0.9999999999998384,3406.279824410741,0.8593233216567395,173,2026-10-08 01:01:52.437243,54.6,0.017140186910192166,0.6260853011026413,0.6620444048232853
0153,cdot_cos,T,S-T,174,34,36645,-0.25849833565085667,0.11231882901554198,-0.25636512693062585,8.335794953221221e-07,1059.0,4.716563572855302,0.5884499299080843,7.762189632738767,-0.02233468443654608,0.292,0.9999999999998329,2638087.7284254497,0.8642906789411158,174,2026-10-08 01:01:52.729243,54.6,0.888305897715154,0.15893176047528462,0.046482542944472384
0153,cdot_cos,P,T-P,175,35,37245,0.024274382919430227,-0.0005142920292815203,0.2827727185702869,0.9999998028676746,1037.0,4.795806818433082,0.5896523244315325,7.800369056966427,-0.13156594894030135,0.6,0.9999999999998327,-90.84477879232774,0.8692583178046186,175,2026-10-08 01:01:53.329243,54.6,0.4359448092277927,0.08251932926473046,0.13207207596296716
0153,cdot_cos,Q,P-Q,176,35,37360,-0.017543660274655717,-0.012773151625580577,-0.04181804319408594,0.09251844940122997,1037.0,4.815586767972978,0.5897635142375278,7.824099301770914,-0.03317937898923793,0.115,0.9999999999998264,884.8524293242224,0.8742255163879535,176,2026-10-08 01:01:53.444243,54.6,0.051545380257686756,0.4292314873484215,0.17199956121648918
0153,cdot_cos,R,Q-R,177,35,37388,0.06304090950651396,0.0749397958109629,0.08058456978116968,0.9878705766361603,1037.0,4.894530060523219,0.5909501751881991,7.862082882743561,-0.13366301935810368,0.028,0.9999999999998255,-84.67763290939969,0.8791926353899303,177,2026-10-08 01:01:53.472243,54.6,0.471531936140182,1.6890517892034853,2.819403305365739
0153,cdot_cos,S,R-S,178,35,37411,-0.0021171898376343527,-0.0033724354960826225,-0.06515809934414832,0.027716157777198373,1037.0,4.910173668168373,0.5909834534932001,7.884704858139619,-0.026744354858554174,0.023,0.9999999999998198,3212.863891245504,0.8841597504104876,178,2026-10-08 01:01:53.495244,54.6,0.01835592092668009,0.6395122769129651,0.6801568541371518
0153,cdot_cos,T,S-T,179,35,37704,-0.2125913190718311,0.11940358442760642,-0.21047412923419676,1.0212504381515566e-05,1037.0,4.923947625261215,0.5909834657550216,7.906822043329269,-0.023618647506982504,0.293,0.999999999999814,254913.78789513852,0.8891271209025882,179,2026-10-08 01:01:53.788243,54.6,0.8760425133728853,0.16066576980597866,0.04701009246703722
0153,cdot_cos,P,T-P,180,36,38282,0.026080067036034157,-0.0009379989927462339,0.23867138610786526,0.9999978096733539,1008.0,5.004323809274677,0.5921835857207974,7.94497873411238,-0.13901657695264788,0.578,0.9999999999998133,-96.1553284142419,0.8940947669977166,180,2026-10-08 01:01:54.366244,54.6,0.43600484015318924,0.08495627156207572,0.13905914189180205
0153,cdot_cos,Q,P-Q,181,36,38401,-0.024600474383699045,-0.01656591989362129,-0.0506805414197332,0.05912493797483412,1008.0,5.022157075186975,0.5922545086296324,7.967971851266905,-0.031147377686877486,0.119,0.9999999999998065,1520.9359153167118,0.8990619726523245,181,2026-10-08 01:01:54.485244,54.6,0.0313297490026358,0.41238965736172567,0.14985937741426847
0153,cdot_cos,R,Q-R,182,36,38425,0.06323494971873193,0.07936969703158181,0.08783542410243098,0.991803470627838,1008.0,5.102472547726768,0.593443644522054,8.005994839946535,-0.14152171920284795,0.024,0.9999999999998059,-92.818947118984,0.9040290863894431,182,2026-10-08 01:01:54.509243,54.6,0.4584468243081655,2.0017579092681723,3.346478022491365
0153,cdot_cos,S,R-S,183,36,38449,-0.002876890958964609,-0.004976843386747511,-0.06611184067769654,0.02634684761788103,1008.0,5.118241454831847,0.5934752185595541,8.028386320453011,-0.02804897409977448,0.024,0.9999999999997993,3593.862365645824,0.9089962008580587,183,2026-10-08 01:01:54.533243,54.6,0.017500564913017536,0.6194703993672723,0.6570377960449791
0153,cdot_cos,T,S-T,184,36,38736,-0.21972516962216623,0.10280700212204728,-0.2168482786632016,7.210853575924914e-06,1008.0,5.132207126896397,0.5934752272009286,8.050292027784295,-0.024913736442902488,0.287,0.9999999999997933,362817.0096219353,0.913963577866848,184,2026-10-08 01:01:54.820243,54.6,0.881752622734814,0.16629542816513287,0.04866087827369189
0153,cdot_cos,P,T-P,185,37,39290,0.026479520100900746,0.0005438444515245928,0.24620468972306697,0.9999985483032461,1054.0,5.213695030598633,0.5946730512407545,8.088430406898752,-0.1465850712690174,0.554,0.9999999999997926,-101.57696855357484,0.9189312272430327,185,2026-10-08 01:01:55.374244,54.6,0.43603225439072657,0.09043678635313242,0.14709007888490375
0153,cdot_cos,Q,P-Q,186,37,39412,-0.02130904553825016,-0.014333083757390435,-0.047788565639150904,0.06854511057664817,1054.0,5.232411086175667,0.5947551152537712,8.11138090229428,-0.033991397031816556,0.122,0.9999999999997855,1372.0225236157967,0.9238984395757325,186,2026-10-08 01:01:55.496243,54.6,0.03642802839451137,0.41107941193404607,0.1534102916150331
0153,cdot_cos,R,Q-R,187,37,39434,0.07336894119149832,0.08628572807604731,0.09467798672974848,0.9943442912082309,1054.0,5.313998407110541,0.5959449727802444,8.149427533895489,-0.14945775912802378,0.022,0.9999999999997846,-97.04217482109772,0.9288655498305657,187,2026-10-08 01:01:55.518244,54.6,0.4618253288134513,2.200478848183973,3.7085145879487817
0153,cdot_cos,S,R-S,188,37,39457,-0.002865287775725066,-0.004498624880861758,-0.07623422896722339,0.015331599625355512,1054.0,5.329232155495762,0.5959633101695733,8.171439815481849,-0.028162105123029527,0.023,0.9999999999997781,6614.663179668142,0.9338326618662459,188,2026-10-08 01:01:55.541243,54.6,0.013473208784698959,0.6388911917737046,0.6623368863139837
0153,cdot_cos,T,S-T,189,37,39754,-0.21654525784754022,0.135431453029921,-0.21367997007181516,8.572638995748874e-06,1054.0,5.343387401932131,0.5959633204228197,8.193143678618487,-0.026240574014998398,0.297,0.9999999999997713,187407.0922696446,0.9388000620082253,189,2026-10-08 01:01:55.838243,54.6,0.9293893885090272,0.1628620027694198,0.04766076241201611
0153,cdot_cos,P,T-P,190,38,40344,0.026619748404261515,-0.000321529717111489,0.24316500625180174,0.9999982862233494,1047.0,5.425972185140798,0.5971587892603807,8.23126853321724,-0.15433275881133224,0.59,0.9999999999997711,-107.14807510806736,0.9437677766198052,190,2026-10-08 01:01:56.428244,54.6,0.4360606021789684,0.08608269869498543,0.13997420882824846
0153,cdot_cos,Q,P-Q,191,38,40456,-0.02105789977353466,-0.013748326315260217,-0.04767764817779618,0.0689327838021962,1047.0,5.444964986392214,0.5972411540553865,8.254039792154236,-0.03582575474650192,0.112,0.9999999999997627,1438.8065199034008,0.9487349817628228,191,2026-10-08 01:01:56.540244,54.6,0.03659396999860017,0.4541459026918667,0.16957858260193057
0153,cdot_cos,R,Q-R,192,38,40486,0.07687698886628408,0.08896539084263284,0.09793488863981874,0.9952613115098585,1047.0,5.527700867343776,0.5984297352697309,8.292088496607677,-0.15737119552882325,0.03,0.9999999999997622,-102.26094718261542,0.9537020990031323,192,2026-10-08 01:01:56.570244,54.6,0.4619268582663095,1.6332679148062765,2.7578626983853978
0153,cdot_cos,S,R-S,193,38,40509,-0.002697273935175809,-0.00417364944640119,-0.07957426280145989,0.012808503551950966,1047.0,5.54296106128059,0.5984450241936586,8.313866827195993,-0.029285149997761228,0.023,0.999999999999755,8377.70180139459,0.9586692093209574,193,2026-10-08 01:01:56.593244,54.6,0.012603835299265011,0.6435213866552002,0.6634866929049852
0153,cdot_cos,T,S-T,194,38,40804,-0.22484999499298688,0.133848401749315,-0.2221527210578111,5.397665744228467e-06,1047.0,5.557302851129915,0.5984450306365646,8.33537759643738,-0.02759627550350329,0.295,0.999999999999748,262129.30900990675,0.9636366204649504,194,2026-10-08 01:01:56.888243,54.6,0.9406356927097451,0.1661167888395701,0.048616236777371355
0153,cdot_cos,P,T-P,195,39,41391,0.026815051785819267,0.0001796024933724298,0.25166504677880613,0.9999989225491508,1070.0,5.640969966695937,0.5996380902110539,8.37349315436996,-0.1622528320159684,0.587,0.9999999999997474,-112.8665821822971,0.9686043610650812,195,2026-10-08 01:01:57.475244,54.6,0.4360850151475569,0.0886503059957294,0.14253341663717514
0153,cdot_cos,Q,P-Q,196,39,41514,-0.016533516008195956,-0.0113188718830119,-0.04334856779401522,0.08573715705669795,1070.0,5.661378310368901,0.5997403251032634,8.396367638960768,-0.03994165479961637,0.123,0.9999999999997389,1196.3741005928084,0.973571581832902,196,2026-10-08 01:01:57.598243,54.6,0.04678249827485721,0.42222445086212224,0.16592149327613426
0153,cdot_cos,R,Q-R,197,39,41536,0.06802535869703011,0.07868908812052619,0.08455887470522606,0.9902134793337529,1070.0,5.744837181608019,0.6009204462166184,8.434323500484417,-0.1646777839353018,0.022,0.9999999999997384,-105.69773536299246,0.9785386884873799,197,2026-10-08 01:01:57.620243,54.6,0.4688578170670128,2.261768805831954,3.793585056323525
0153,cdot_cos,S,R-S,198,39,41559,-0.001976582584056216,-0.002995575990803793,-0.07000194128108632,0.021413114963129955,1070.0,5.760896137825507,0.6009459531460227,8.45606222072796,-0.031962687435314475,0.023,0.9999999999997305,5203.0996909293235,0.9835057970707923,198,2026-10-08 01:01:57.643244,54.6,0.015729957080272552,0.6649648501434313,0.6982154877168882
0153,cdot_cos,T,S-T,199,39,41842,-0.25582432361469665,0.13829269897891713,-0.25384774103064045,9.564018981564505e-07,1070.0,5.775425564714617,0.6009459542852598,8.47738902688724,-0.028995294186306923,0.283,0.9999999999997228,2604719.7816837947,0.9884732078533639,199,2026-10-08 01:01:57.926244,54.6,0.9027221117290459,0.17538628770888265,0.05134073105692371
0153,cdot_cos,P,T-P,200,40,42461,0.0250448595600599,-0.0003169345796788167,0.28086918317475656,0.9999997812765345,1078.0,5.860164776668735,0.6021365243945715,8.515499580983317,-0.1703908859153083,0.619,0.9999999999997221,-118.76292762862656,0.9934410162519977,200,2026-10-08 01:01:58.545243,54.6,0.43612310651034936,0.0853263255185501,0.13689694984510203
0153,cdot_cos,Q,P-Q,201,40,42582,-0.017572162036951475,-0.011412773122425834,-0.042617021597011376,0.08892034355332508,1078.0,5.881059555706582,0.6022423320550714,8.538262044951049,-0.04239215802349552,0.121,0.9999999999997131,1209.7302528677742,0.9984082384122773,201,2026-10-08 01:01:58.666244,54.6,0.04883068531928958,0.4352559901089635,0.17268412427972618
0153,cdot_cos,R,Q-R,202,40,42604,0.06496566729085038,0.07242307965353018,0.08253782932780185,0.9890841708246871,1078.0,5.965496726275104,0.6034186119060279,8.57619324751909,-0.17267175096348814,0.022,0.9999999999997122,-110.75561043918054,1.0033753431158265,202,2026-10-08 01:01:58.688244,54.6,0.4702490643768059,2.2945493902847582,3.838053207660104
0153,cdot_cos,S,R-S,203,40,42627,-0.002069782698502813,-0.00302408299407885,-0.0670354499893532,0.02508364666345499,1078.0,5.982019728879111,0.6034484274435015,8.597820037237863,-0.03407618588311645,0.023,0.9999999999997041,4648.43423342762,1.0083424498257068,203,2026-10-08 01:01:58.711244,54.6,0.017124818971633673,0.679111495925796,0.718391417565525
0153,cdot_cos,T,S-T,204,40,42921,-0.23386196298963755,0.1293903768120545,-0.23179218029113474,3.1888307872347194e-06,1078.0,5.996735855087691,0.6034484312338386,8.618970963053465,-0.03042913350048193,0.294,0.999999999999696,962197.3542858501,1.0133098871123425,204,2026-10-08 01:01:59.005243,54.6,0.8870499652371175,0.17094388795098348,0.05005485104959027
0153,cdot_cos,P,T-P,205,41,43539,0.045831072660785094,0.004546947849416244,0.27969303565042264,0.9999997667698213,1057.0,6.082534734994289,0.6046364471908473,8.657079944153258,-0.17871365962974328,0.618,0.9999999999996951,-124.81694816846453,1.018277726839222,205,2026-10-08 01:01:59.623244,54.6,0.43616595843235784,0.0849266056817711,0.13883313900744132
0153,cdot_cos,Q,P-Q,206,41,43661,-0.00422584304924843,-0.003543459674628857,-0.050056915710033525,0.06104778916949303,1057.0,6.10170513971036,0.6047089331092491,8.679209643306658,-0.040275192735317315,0.122,0.9999999999996847,1909.8670465485745,1.0232449539002124,206,2026-10-08 01:01:59.745243,54.6,0.03215094037193219,0.42760620269733546,0.1571344648858225
0153,cdot_cos,R,Q-R,207,41,43682,0.07208190223824537,0.08410589483729061,0.0763077452874938,0.9847288800167772,1057.0,6.186870648452439,0.605877526313729,8.7170633306629,-0.18027097265982145,0.021,0.9999999999996839,-119.79855726339598,1.0282120552711307,207,2026-10-08 01:01:59.766243,54.6,0.4599740249382558,2.4152067468396408,4.0555004162895
0153,cdot_cos,S,R-S,208,41,43706,-0.0003481663614686285,-0.0005384362563921871,-0.072430068599714,0.018804385193603876,1057.0,6.203143823077625,0.6058998300397612,8.738415329011081,-0.034729304522704535,0.024,0.999999999999675,6525.441889266728,1.033179161265632,208,2026-10-08 01:01:59.790244,54.6,0.015135001234004068,0.6493054024235834,0.6780489427160585
0153,cdot_cos,T,S-T,209,41,43994,-0.3863449592254428,0.12894567452750252,-0.3859967928639742,7.03168271263964e-10,1057.0,6.218037307768771,0.6058998300405952,8.759395938846518,-0.03186480127617735,0.288,0.9999999999996662,,1.038146604541331,209,2026-10-08 01:02:00.078244,54.6,0.9140266672882578,0.1766189033020307,0.051713488510925686
0153,cdot_cos,P,T-P,210,42,44596,0.020700633513362612,-0.0007245975341424026,0.4070455927388054,0.9999999997771873,1057.0,6.304876311379594,0.6070852840439631,8.797505364700884,-0.1871167542640151,0.602,0.9999999999996658,-130.96413065944756,1.0431144561617651,210,2026-10-08 01:02:00.680243,54.6,0.43617736548735253,0.08923334688949418,0.14425083656282905
0153,cdot_cos,Q,P-Q,211,42,44719,-0.024621092479055008,-0.015706233299275972,-0.04532172599241762,0.0776605268787902,1057.0,6.325474257423722,0.6071772944448176,8.819763650126339,-0.04476060421745566,0.123,0.9999999999996548,1547.1745446657249,1.0480816883989557,211,2026-10-08 01:02:00.803244,54.6,0.041569465882180884,0.43633674104100106,0.16746297596851953
0153,cdot_cos,R,Q-R,212,42,44741,0.06448240337201258,0.07644341395599247,0.08910349585106758,0.9923475753082953,1057.0,6.4122151496756805,0.6083523332265325,8.857747703488794,-0.18989333178429033,0.022,0.999999999999654,-123.51313831108183,1.053048789061928,212,2026-10-08 01:02:00.825243,54.6,0.46566651239151613,2.355572851887104,3.942767829634471
0153,cdot_cos,S,R-S,213,42,44766,-0.002754393517235283,-0.004368548916522188,-0.06723679688924786,0.024816204602444516,1057.0,6.429119462906755,0.608381702068098,8.879042653378136,-0.03730708743176654,0.025,0.9999999999996445,5195.514573220694,1.0580158945567661,213,2026-10-08 01:02:00.850244,54.6,0.016739118355433496,0.6395686158406555,0.6761725292429688
0153,cdot_cos,T,S-T,214,42,45060,-0.37003437108115594,0.09866164556194672,-0.36727997756392067,1.9538055991413027e-09,1057.0,6.444193580467713,0.6083817020704103,8.899861060778836,-0.03335077193781012,0.294,0.9999999999996355,1711015603.240241,1.0629833597716718,214,2026-10-08 01:02:01.144243,54.6,0.8881386560956297,0.17507834504570716,0.05127250871074339
0153,cdot_cos,P,T-P,215,43,45653,0.029988498648249304,-8.898366017486868e-05,0.40002286972940526,0.9999999996730613,1057.0,6.5320655297936305,0.6095645012723322,8.93797421970926,-0.19575514453862786,0.593,0.9999999999996342,-137.30510837083233,1.0679512320363065,215,2026-10-08 01:02:01.737243,54.6,0.4362105830186136,0.09322013185555393,0.14818203933544224
0153,cdot_cos,Q,P-Q,216,43,45768,-0.009667834021644936,-0.007712185360705019,-0.03965633266989424,0.10291605704375825,1057.0,6.5547526568484,0.6096861574886058,8.960524267136286,-0.05096574358016025,0.115,0.9999999999996235,1190.1520973894635,1.072918457475836,216,2026-10-08 01:02:01.852243,54.6,0.05837216732442932,0.47993097783790134,0.1972793656936497
0153,cdot_cos,R,Q-R,217,43,45796,0.0772825092915476,0.08900013635053758,0.08695034331319254,0.9914011327176592,1057.0,6.642449654696348,0.6108573838523944,8.998495530808857,-0.19845391315662353,0.028,0.9999999999996223,-125.9262719286599,1.0778855645019665,217,2026-10-08 01:02:01.880243,54.6,0.47559625029497565,1.8561225121713605,3.1320356374267
0153,cdot_cos,S,R-S,218,43,45819,-0.0019212062164519206,-0.0029448513672256037,-0.07920371550799953,0.013066862267612498,1057.0,6.658695517529996,0.6108728123396179,9.019433349050326,-0.037052603053228765,0.023,0.9999999999996122,10461.25312000079,1.082852665431742,218,2026-10-08 01:02:01.903244,54.6,0.012829544283943162,0.6847952809088313,0.7063418623325476
0153,cdot_cos,T,S-T,219,43,46119,-0.3163030966027627,0.12800095474276058,-0.31438189038631076,3.50934529264055e-08,1057.0,6.673950237618154,0.6108728123810536,9.040096443371514,-0.03487446055445121,0.3,0.9999999999996025,52566752.83132971,1.0878201537345968,219,2026-10-08 01:02:02.203244,54.6,0.9394537731910112,0.17358287197950517,0.05084906696052549
0153,cdot_cos,P,T-P,220,44,46710,0.024816764886162117,-0.0006406576262222168,0.3411198614889248,0.9999999918491568,1063.0,6.7628452407176995,0.6120528854560514,9.07821583131731,-0.20458744227474776,0.591,0.9999999999996014,-143.8156545692007,1.092788056308802,220,2026-10-08 01:02:02.794244,54.6,0.4362509496279814,0.09282587795100772,0.15041455685202276
0153,cdot_cos,Q,P-Q,221,44,46826,-0.021435337514525345,-0.01342233152045573,-0.04625210240068746,0.07409903358185364,1063.0,6.783670425356245,0.6121402756369667,9.100124108450396,-0.048315514953830616,0.116,0.9999999999995898,1788.2092208090592,1.0977552868302192,221,2026-10-08 01:02:02.910244,54.6,0.03938364412881408,0.47358050321256,0.179527453780566
0153,cdot_cos,R,Q-R,222,44,46851,0.07976214416086749,0.08867791770897128,0.10119748167539283,0.9960314676087922,1063.0,6.8727159174630135,0.6133142631170022,9.138181426779461,-0.20803355238866622,0.025,0.9999999999995883,-136.04747933939302,1.102722387838731,222,2026-10-08 01:02:02.935244,54.6,0.4640554013860441,2.1059829794248763,3.5618196842707306
0153,cdot_cos,S,R-S,223,44,46873,-0.003184418779432297,-0.00471365281358388,-0.08294656294029978,0.010677492659966953,1063.0,6.888969574327489,0.6133268411990669,9.158927610946646,-0.038265134985648715,0.022,0.999999999999578,13497.162487103047,1.1076894853542731,223,2026-10-08 01:02:02.957243,54.6,0.011835704821951903,0.7200879543240194,0.7388025847488887
0153,cdot_cos,T,S-T,224,44,47170,-0.20217546510434234,0.13544734150426713,-0.19899104632491005,1.9117044348628153e-05,1063.0,6.90439978745327,0.6133268637188019,9.179440677493814,-0.03641017967883639,0.297,0.9999999999995669,82370.21037937542,1.1126569843925012,224,2026-10-08 01:02:03.254244,54.6,0.9503299271200968,0.17732618042787401,0.05195357954808519
0153,cdot_cos,P,T-P,225,45,47773,0.017501011262463267,-0.0004308740459269542,0.2196764763668056,0.9999938209238548,1062.0,6.994301325501646,0.6145041837904235,9.217567581053387,-0.21351592968725158,0.603,0.9999999999995658,-150.43126697438413,1.1176249378553538,225,2026-10-08 01:02:03.857243,54.6,0.4362790401117844,0.09219568574837866,0.14909044452466977
0153,cdot_cos,Q,P-Q,226,45,47893,-0.02795561720650783,-0.017765987363759162,-0.0454566284689711,0.07713456675004617,1062.0,7.015587784465815,0.6145949409790736,9.239392963912731,-0.050955259398951104,0.12,0.9999999999995535,1791.160267369471,1.1225921780427446,226,2026-10-08 01:02:03.977243,54.6,0.04116105096848892,0.46345379311195645,0.1773871580347401
0153,cdot_cos,R,Q-R,227,45,47918,0.06779631269313263,0.0787130831135706,0.09575192989964046,0.994664672365536,1062.0,7.105530235848516,0.615764555957262,9.277433586088533,-0.21676558791777928,0.025,0.999999999999552,-141.76488127371337,1.1275592770875147,227,2026-10-08 01:02:04.002244,54.6,0.46536687613982153,2.1413605043382766,3.5976980553080296
0153,cdot_cos,S,R-S,228,45,47940,-0.0035845023528043823,-0.005578735772409731,-0.07138081504593702,0.019891076428504607,1062.0,7.122655809682729,0.6157879320522894,9.298198965408318,-0.041585446984238036,0.022,0.9999999999995413,7493.986516046977,1.1325263724718524,228,2026-10-08 01:02:04.024243,54.6,0.01480878401040615,0.743925567357261,0.7784351742824134
0153,cdot_cos,T,S-T,229,45,48232,-0.18193289197301105,0.11240731345289239,-0.17834838962020666,5.900543023370291e-05,1062.0,7.138262960812235,0.6157880013949779,9.318568479818973,-0.037985498573567034,0.292,0.9999999999995296,51915.327910921005,1.1374938791073046,229,2026-10-08 01:02:04.316243,54.6,0.9095806126558098,0.18237258218263458,0.053449147703789016
0153,cdot_cos,P,T-P,230,46,48835,0.020572792453545718,-0.0007098896219810314,0.20250568442655675,0.9999842209295146,1071.0,7.229161397677387,0.6169624965588776,9.35670473597136,-0.22262801728562326,0.603,0.9999999999995286,-157.21011408764662,1.1424618672440423,230,2026-10-08 01:02:04.919244,54.6,0.4363211048863056,0.09341743244802617,0.15074367639328723
0153,cdot_cos,Q,P-Q,231,46,48957,-0.02408012858403559,-0.01572267120427764,-0.04465292103758131,0.08031687089303835,1071.0,7.250924384344555,0.6170567708136544,9.378456422221326,-0.05371476105138865,0.122,0.9999999999995152,1791.7219991196769,1.1474291146102953,231,2026-10-08 01:02:05.041243,54.6,0.04308269557762364,0.4609230014183519,0.17838513661612593
0153,cdot_cos,R,Q-R,232,46,48981,0.06338040480215298,0.07363040835874267,0.08746053338618857,0.9916353845594267,1071.0,7.341626610023465,0.6182200042010222,9.416452057199304,-0.22534597202086962,0.024,0.9999999999995138,-147.5466684788465,1.152396210112767,232,2026-10-08 01:02:05.065243,54.6,0.4669027661276196,2.259723462834725,3.779259403287938
0153,cdot_cos,S,R-S,233,46,49003,-0.0030976484240124425,-0.004764666778659882,-0.06647805322616543,0.0258387458486491,1071.0,7.359391110560622,0.6182502961765557,9.437186687295025,-0.04446189517426504,0.022,0.9999999999995022,5971.352929641274,1.1573633033579611,233,2026-10-08 01:02:05.087244,54.6,0.017106541441671532,0.7623445830152227,0.8074772971434674
0153,cdot_cos,T,S-T,234,46,49285,-0.18916305408913103,0.12378541371837999,-0.1860654056651186,3.871784829810844e-05,1071.0,7.375169771676135,0.6182503415666183,9.457417159237572,-0.03958174273329498,0.282,0.9999999999994899,107515.8781836309,1.1623308093639562,234,2026-10-08 01:02:05.369244,54.6,0.8840045970975906,0.19089593404220276,0.05595269899118268
0153,cdot_cos,P,T-P,235,47,49906,0.021926097010819493,-0.0007145364461030651,0.21108915109995052,0.9999901247361187,1046.0,7.467056417360424,0.6194219685442419,9.495564572865424,-0.23191357624600942,0.621,0.9999999999994891,-164.1579079228906,1.167298861773236,235,2026-10-08 01:02:05.990243,54.6,0.43634351783222863,0.0907725176031341,0.14796561301817848
0153,cdot_cos,Q,P-Q,236,47,50021,-0.026820760708103172,-0.01750074449120359,-0.04874685771892266,0.06527895519314471,1046.0,7.487909238539228,0.6194984037129411,9.516920935614902,-0.05302631125588912,0.115,0.9999999999994745,2340.379017075499,1.1722661020111396,236,2026-10-08 01:02:06.105243,54.6,0.03426754267449598,0.48947719913788634,0.18132887981568446
0153,cdot_cos,R,Q-R,237,47,50049,0.062168320782638745,0.07338150985284447,0.08898908149074192,0.9922999900467,1046.0,7.579636173162138,0.6206595571062083,9.554938341195497,-0.23472880358779447,0.028,0.9999999999994738,-156.48448636112323,1.1772332019711134,237,2026-10-08 01:02:06.133244,54.6,0.46112071192479864,1.9596259570769143,3.2759619508182194
0153,cdot_cos,S,R-S,238,47,50073,-0.003764846248844578,-0.006025951783793702,-0.06593316703148332,0.0265982642697365,1046.0,7.597648292135535,0.620690662485519,9.575555078510622,-0.046427163496057834,0.024,0.9999999999994607,6053.668023507492,1.182200296294801,238,2026-10-08 01:02:06.157243,54.6,0.01732074045705265,0.7074633520792554,0.7505049572248771
0153,cdot_cos,T,S-T,239,47,50364,-0.2028150400130732,0.11719661194847718,-0.19905019376422864,1.9055407562653805e-05,1046.0,7.613594414061942,0.6206906847695378,9.59565103539851,-0.04119391377475952,0.291,0.9999999999994476,234843.17420302075,1.187167831806763,239,2026-10-08 01:02:06.448243,54.6,0.8806989802480448,0.1869559633718322,0.054797669850196594
0153,cdot_cos,P,T-P,240,48,50952,0.027662189394718092,-0.0015773783839994576,0.2304772294077913,0.9999965738046912,1070.0,7.706456662817941,0.6218594105255536,9.633810594397726,-0.2413177765766814,0.588,0.9999999999994464,-171.2325254849767,1.1921358659741612,240,2026-10-08 01:02:07.036243,54.6,0.4363563804098317,0.09730263619071555,0.15792899448299172
0153,cdot_cos,Q,P-Q,241,48,51060,-0.019249794376525638,-0.011387070296012216,-0.046911983771243726,0.0716647246855741,1070.0,7.7280223142222235,0.6219431130653555,9.655159840929453,-0.0564555792490687,0.108,0.9999999999994319,2208.5613861303505,1.1971030983995234,241,2026-10-08 01:02:07.144243,54.6,0.03783685264395293,0.529404122539245,0.1996819574470588
0153,cdot_cos,R,Q-R,242,48,51087,0.0728845734199157,0.07548570102807822,0.09213436779644132,0.9935071293216147,1070.0,7.820807953286418,0.6231027530709627,9.693210340636362,-0.24440242518714111,0.027,0.9999999999994303,-162.073440920712,1.202070194985405,242,2026-10-08 01:02:07.171244,54.6,0.4634736941484677,2.039755998988893,3.4365051505257247
0153,cdot_cos,S,R-S,243,48,51113,-0.0028536411665554323,-0.003930962213043211,-0.07573821458647112,0.015745862263725124,1070.0,7.838169138167624,0.6231211206296601,9.713503297101518,-0.04605338454152378,0.026,0.9999999999994169,10798.878822935407,1.2070372908215,243,2026-10-08 01:02:07.197243,54.6,0.013474755310647991,0.6437623290427297,0.6677378800463707
0153,cdot_cos,T,S-T,244,48,51388,-0.188052345263743,0.14609815715754268,-0.18519870409718758,4.0594018144722044e-05,1070.0,7.85428359439664,0.6231211679821519,9.73347013597267,-0.04283761445074012,0.275,0.9999999999994029,67911.31717509568,1.2120048145308187,244,2026-10-08 01:02:07.472243,54.6,0.9276796212445648,0.19989205177287092,0.058598022650968376
0153,cdot_cos,P,T-P,245,49,52022,0.023271338607770427,-0.00048663914205697656,0.21132368387151343,0.9999902503862491,1062.0,7.948109766642703,0.6242869306535413,9.771642554225235,-0.2508602200345821,0.634,0.9999999999994018,-178.44335788853343,1.216972963902432,245,2026-10-08 01:02:08.106244,54.6,0.4363820679126084,0.09310097255891442,0.14799080795908945
0153,cdot_cos,Q,P-Q,246,49,52138,-0.016378232562359415,-0.011470902114355834,-0.03964957117012984,0.10295014614625149,1062.0,7.9723356276013435,0.6244068657909257,9.79344577657506,-0.06524755255860168,0.116,0.9999999999993869,1547.6087452260474,1.2219402137472621,246,2026-10-08 01:02:08.222244,54.6,0.05814907631600302,0.5079665330547952,0.20884362895379968
0153,cdot_cos,R,Q-R,247,49,52162,0.07174332985026698,0.07941702448590651,0.08812156241262639,0.991929505681804,1062.0,8.065958002311415,0.6255616628169615,9.831480050205307,-0.25370710102754834,0.024,0.9999999999993858,-163.1971196842329,1.226907302995151,247,2026-10-08 01:02:08.246243,54.6,0.47576877496319775,2.3176125637678533,3.900932279586322
0153,cdot_cos,S,R-S,248,49,52184,-0.002822552694000972,-0.004142175744310486,-0.07456588254426795,0.01676924660605259,1062.0,8.0835810306622,0.6255811732081427,9.85166896378078,-0.04808687415019273,0.022,0.9999999999993713,10539.01097972349,1.2318743896347393,248,2026-10-08 01:02:08.268243,54.6,0.01389792598917326,0.770562248035481,0.80104674321751
0153,cdot_cos,T,S-T,249,49,52482,-0.21765393099149655,0.14141566726453328,-0.21483137829749557,8.050299152888245e-06,1062.0,8.099862741224976,0.6255811825742665,9.871511349573968,-0.0445201747726234,0.298,0.9999999999993568,380808.47793693404,1.2368419692528487,249,2026-10-08 01:02:08.566243,54.6,0.923010907810219,0.18635578285250665,0.054636612626764905
0153,cdot_cos,P,T-P,250,50,53084,0.028310585896688403,-0.00018967617701458022,0.24596451688818494,0.9999985291411748,1059.0,8.194649077242294,0.6267439036062427,9.909698155858235,-0.2606324518988852,0.602,0.9999999999993558,-185.86769412690902,1.241810100236073,250,2026-10-08 01:02:09.168243,54.6,0.4364052173930888,0.09764960108353911,0.15745238541082726
0153,cdot_cos,Q,P-Q,251,50,53206,-0.016063363769135027,-0.010817294599740264,-0.044373949665823434,0.08144920343516768,1059.0,8.217432860929557,0.6268385421675222,9.930997421324193,-0.06309377038262594,0.122,0.9999999999993396,2087.29590608143,1.2467773650715128,251,2026-10-08 01:02:09.290244,54.6,0.0436795794856057,0.4797619565477274,0.1867523253054351
0153,cdot_cos,R,Q-R,252,50,53229,0.06511887152361873,0.07671761459591586,0.08118223529275376,0.9882554283330347,1059.0,8.31171099463994,0.6279860536128253,9.968976827689934,-0.2626122129560705,0.023,0.9999999999993373,-173.87054690399307,1.2517444502644552,252,2026-10-08 01:02:09.313244,54.6,0.46778547121566155,2.449437715363415,4.099049291755757
0153,cdot_cos,S,R-S,253,50,53251,-0.0025025096588606435,-0.0038882560788371322,-0.06762138118247937,0.02431307683467216,1059.0,8.330106995836275,0.6280142665930505,9.989185698223322,-0.05158987922554947,0.022,0.9999999999993227,7479.61867362042,1.2567115345747235,253,2026-10-08 01:02:09.335244,54.6,0.01673283378755287,0.7918726977791593,0.8361818725606667
0153,cdot_cos,T,S-T,254,50,53546,-0.26744028513119517,0.12092942645520956,-0.26493777547233455,5.219974872424758e-07,1059.0,8.346553393342223,0.6280142671987688,10.00890769619549,-0.04621896374897282,0.295,0.9999999999993071,8867017.730752055,1.2616791251771444,254,2026-10-08 01:02:09.630244,54.6,0.8902919087900826,0.1901354981203485,0.055750500020163865
0153,cdot_cos,P,T-P,255,51,54143,0.026585091965226404,-0.00046698713085493825,0.29402537709642157,0.999999893357711,1047.0,8.44228693972728,0.6291739129054114,10.047109099566914,-0.2705018192241386,0.597,0.9999999999993062,-193.40636039995854,1.2666472843028387,255,2026-10-08 01:02:10.227243,54.6,0.4364261003693265,0.09916474603490219,0.16035769913744938
0153,cdot_cos,Q,P-Q,256,51,54264,-0.018870445317676707,-0.01257499169791806,-0.04545553728290311,0.07713880796047407,1047.0,8.464956100107896,0.6292633049651246,10.068220613698951,-0.06449865999555725,0.121,0.9999999999992892,2304.490576561057,1.2716145517945676,256,2026-10-08 01:02:10.348243,54.6,0.041011048035417726,0.4874522525089167,0.1873484328976525
0153,cdot_cos,R,Q-R,257,51,54285,0.06403307751042044,0.07468192425585297,0.08290352282809714,0.9892976546906792,1047.0,8.560250384834438,0.6304089625812842,10.106232258406193,-0.27267630513174285,0.021,0.9999999999992876,-181.7101743137074,1.276581630926788,257,2026-10-08 01:02:10.369244,54.6,0.46605076705745613,2.7140632086443497,4.53782308221628
0153,cdot_cos,S,R-S,258,51,54309,-0.002473157300915808,-0.003846530387340529,-0.06650623481133625,0.025800042948269684,1047.0,8.578946754870959,0.630438820773873,10.126354674788685,-0.05385444799498795,0.024,0.9999999999992717,7328.70405620717,1.281548716791546,258,2026-10-08 01:02:10.393243,54.6,0.0171937623222073,0.7355538532825742,0.7790154181883668
0153,cdot_cos,T,S-T,259,51,54602,-0.2220206420090451,0.1315726469856209,-0.2195474847081293,6.222748375254562e-06,1047.0,8.595556969792002,0.6304388279752917,10.14596051350385,-0.047943891340143395,0.293,0.9999999999992556,820748.9266392495,1.2865163201666376,259,2026-10-08 01:02:10.686244,54.6,0.8840154814549852,0.1933126348616302,0.0566901533141391
0153,cdot_cos,P,T-P,260,52,55190,0.023675645659436705,-0.00030525759808107704,0.24569628766848178,0.9999985074415043,1032.0,8.692227958899874,0.6315953475596146,10.184176888706247,-0.28050711708935,0.588,0.9999999999992545,-201.08887813203523,1.2914844995398027,260,2026-10-08 01:02:11.274244,54.6,0.43645003704787105,0.10168058721140466,0.1644064440610077
0153,cdot_cos,Q,P-Q,261,52,55310,-0.021734647205869668,-0.014359785325151893,-0.04541029286530637,0.07731485172116324,1032.0,8.715133340352613,0.6316847010532267,10.205186910562064,-0.06691678463321082,0.12,0.9999999999992363,2390.3971050445766,1.2964517696986462,261,2026-10-08 01:02:11.394243,54.6,0.04109454918111873,0.4967206764565561,0.19087817877282792
0153,cdot_cos,R,Q-R,262,52,55333,0.06316444723350198,0.07625730108773046,0.08489909443937164,0.9903918650363128,1032.0,8.811440921249448,0.6328285050013279,10.243232499967032,-0.2829155610036088,0.023,0.9999999999992345,-188.84248190345093,1.3014188504437068,262,2026-10-08 01:02:11.417243,54.6,0.4660444056837308,2.5058762524756117,4.187286125949309
0153,cdot_cos,S,R-S,263,52,55356,-0.002589458198724642,-0.004219965497964192,-0.06575390543222662,0.02685285279290259,1032.0,8.830403647966492,0.6328594966201445,10.263264617817951,-0.05606978521915266,0.023,0.9999999999992178,7319.5845988861165,1.3063859321903606,263,2026-10-08 01:02:11.440243,54.6,0.017496127257301514,0.7768398697711345,0.824466379001914
0153,cdot_cos,T,S-T,264,52,55641,-0.25807315509039785,0.10254752557243518,-0.2554836968916732,8.746773819127629e-07,1032.0,8.84717555525892,0.6328594976296159,10.28275801440686,-0.0496923331505554,0.285,0.9999999999992016,6317615.435057605,1.3113535364347702,264,2026-10-08 01:02:11.725244,54.6,0.8795553766787865,0.20065243374679892,0.05884879751729182
0153,cdot_cos,P,T-P,265,53,56222,0.025088956534217128,-0.00024834151203530154,0.28316211162461496,0.9999998070146364,1042.0,8.944775535202167,0.6340128410656177,10.320989729662317,-0.29065750027051196,0.581,0.9999999999992002,-208.9275055444773,1.316321739494651,265,2026-10-08 01:02:12.306243,54.6,0.43647038752597567,0.10524106282102888,0.16798619611574392
0153,cdot_cos,Q,P-Q,266,53,56342,-0.015850729973973954,-0.01155094314147608,-0.04093968650819108,0.09662442034830274,1042.0,8.969465670256955,0.6341242011105109,10.342261507322407,-0.07402430736831409,0.12,0.999999999999181,1945.3403876583418,1.3212890144248368,266,2026-10-08 01:02:12.426244,54.6,0.05358348980688372,0.5078278512074874,0.20575112545656954
0153,cdot_cos,R,Q-R,267,53,56363,0.06813120326503458,0.07906768001571803,0.08398193323900853,0.9899034492310677,1042.0,9.066654219491964,0.635264241380468,10.38031205336395,-0.2929781842242419,0.021,0.9999999999991801,-192.05801990150198,1.3262560889580983,267,2026-10-08 01:02:12.447244,54.6,0.4736254306278687,2.756963244825671,4.62802615404803
0153,cdot_cos,S,R-S,268,53,56388,-0.002978295153990238,-0.0047352910032674445,-0.07110949841902482,0.020181942819807886,1042.0,9.085258126539633,0.6352874685542984,10.400112898121373,-0.05644065437743177,0.025,0.9999999999991628,10183.65521237606,1.3312231727397805,268,2026-10-08 01:02:12.472243,54.6,0.015132554404305838,0.7107713530707827,0.7441562819067826
0153,cdot_cos,T,S-T,269,53,56683,-0.22653295891262973,0.12911410486390207,-0.2235546637586395,4.9999150226268e-06,1042.0,9.102192787145503,0.635287474308567,10.419498105000033,-0.05147707317380904,0.295,0.9999999999991451,862591.1534311596,1.336190814298805,269,2026-10-08 01:02:12.767244,54.6,0.9080796869202568,0.1956891679428747,0.057405629172439215
0153,cdot_cos,P,T-P,270,54,57264,0.030166240642454763,-0.00022983610806255074,0.25669919955508447,0.9999991814874556,1048.0,9.20071473562593,0.6364375714241993,10.457745403626678,-0.3009762277843628,0.581,0.9999999999991434,-216.93746660114402,1.3411590553278683,270,2026-10-08 01:02:13.348243,54.6,0.4365002567344154,0.10384642763226676,0.16957306106785974
0153,cdot_cos,Q,P-Q,271,54,57380,-0.01938236385245333,-0.012586341426819669,-0.0495486044949081,0.06265817843740056,1048.0,9.222862336054197,0.6365095827257599,10.47827949316263,-0.06809935892814137,0.116,0.9999999999991235,3233.8933446502197,1.3461263265380865,271,2026-10-08 01:02:13.464243,54.6,0.03272345569483726,0.5201776386875521,0.19092758989885747
0153,cdot_cos,R,Q-R,272,54,57405,0.0785881078837209,0.08996476974843103,0.09797047173617424,0.9952704655717163,1048.0,9.321395947801442,0.6376525971016848,10.516445414731317,-0.30454218201993344,0.025,0.9999999999991219,-206.8590107630695,1.351093407168129,272,2026-10-08 01:02:13.489243,54.6,0.46006487728649875,2.3318262334061046,3.941344469889785
0153,cdot_cos,S,R-S,273,54,57429,-0.0030871017643933677,-0.004712417655895024,-0.08167520964811427,0.011436233611461545,1048.0,9.339453647724502,0.6376657219847445,10.535976220814051,-0.05616178025430313,0.024,0.9999999999991036,18924.38969822576,1.3560604867047714,273,2026-10-08 01:02:13.513243,54.6,0.012003130874343675,0.7322407959662325,0.7524041634608588
0153,cdot_cos,T,S-T,274,54,57712,-0.2297487932813337,0.14108286849938884,-0.22666169151694035,4.219758847916427e-06,1048.0,9.35654350600782,0.6376657268275459,10.555255303680752,-0.05325177998384931,0.283,0.9999999999990848,600891.9302762293,1.3610281198080725,274,2026-10-08 01:02:13.796243,54.6,0.9468202007515941,0.20586500903504248,0.06038819181384647
0153,cdot_cos,P,T-P,275,55,58312,0.022690774695176393,-0.0004951533459526834,0.2524395679765101,0.9999989671632801,1049.0,9.455973242838336,0.6388125879052069,10.593517855866635,-0.3113246835619068,0.6,0.9999999999990837,-225.02542688464254,1.3659964395576363,275,2026-10-08 01:02:14.396243,54.6,0.4365069478894809,0.10298869940847499,0.16571622805085914
0153,cdot_cos,Q,P-Q,276,55,58427,-0.020934190401966146,-0.013239016345433,-0.04362496509714254,0.08456157825153093,1049.0,9.48012994529799,0.6389094960676941,10.614371640547548,-0.07612514364524076,0.115,0.9999999999990631,2427.035389797421,1.3709637129581052,276,2026-10-08 01:02:14.511244,54.6,0.045518187911630384,0.536893030929643,0.2100582822578653
0153,cdot_cos,R,Q-R,277,55,58453,0.07251454028019806,0.08265737845862357,0.09344873068216421,0.9939540400449148,1049.0,9.579458639952154,0.6400477250108237,10.652527121822773,-0.3146225254896613,0.026,0.9999999999990618,-209.53375266372464,1.375930793594907,277,2026-10-08 01:02:14.537244,54.6,0.4685825779796587,2.2684531758857114,3.820334409775515
0153,cdot_cos,S,R-S,278,55,58475,-0.002509143247283649,-0.0038075693682757066,-0.0750236835274817,0.01636205229837525,1049.0,9.598089510444048,0.6400664489252997,10.672050358917428,-0.059376985221569395,0.022,0.9999999999990424,13632.060784904463,1.3808978664668259,278,2026-10-08 01:02:14.559244,54.6,0.013585822029863007,0.8154252549810777,0.8468577496315275
0153,cdot_cos,T,S-T,279,55,58770,-0.21713853582162218,0.13190997955515602,-0.21462939257433852,8.139571878076415e-06,1049.0,9.615337351171322,0.6400664582397128,10.691227598983106,-0.055072082216697404,0.295,0.9999999999990229,462176.5210807182,1.3858655427801578,279,2026-10-08 01:02:14.854244,54.6,0.9248085672800028,0.19928979113562975,0.058467256702623094
0153,cdot_cos,P,T-P,280,56,59361,0.025914501201790875,-0.0007755285745453566,0.24305303702341305,0.9999982757140682,1036.0,9.71567048721407,0.641209995280339,10.7295055559849,-0.32187243026347145,0.591,0.9999999999990214,-233.31150506561215,1.3908338824363762,280,2026-10-08 01:02:15.445244,54.6,0.43652881032439766,0.10541201187980272,0.16976841970008077
0153,cdot_cos,Q,P-Q,281,56,59473,-0.018032990658064466,-0.01277930483710782,-0.043947491859855345,0.08320831027370706,1036.0,9.739934349213248,0.6413050751340003,10.75024251059823,-0.07833196485342696,0.112,0.9999999999990005,2561.4307977122594,1.3958011534807946,281,2026-10-08 01:02:15.557244,54.6,0.044641938640790614,0.5545775226253087,0.21664162499267026
0153,cdot_cos,R,Q-R,282,56,59501,0.06768731725649976,0.07846367615066543,0.08572030791456423,0.9908092893586904,1036.0,9.839895852282138,0.6424363905887527,10.788352111686212,-0.32431677154282557,0.028,0.9999999999989986,-217.43255221703805,1.4007682365106966,282,2026-10-08 01:02:15.585243,54.6,0.4683821216191472,2.128642054357493,3.570053681031788
0153,cdot_cos,S,R-S,283,56,59525,-0.0020852743055397418,-0.003208671632263231,-0.06977259156203951,0.021677097371749197,1036.0,9.859138304257268,0.642461124024459,10.807879530850258,-0.06280872532440414,0.024,0.9999999999989783,10573.057836513004,1.4057353115122473,283,2026-10-08 01:02:15.609244,54.6,0.015552056704837055,0.7634701669197627,0.8017688322970636
0153,cdot_cos,T,S-T,284,56,59814,-0.21930304897913874,0.12731171551658954,-0.217217774673599,7.066836981844345e-06,1036.0,9.876542420294287,0.6424611320875532,10.826958001428435,-0.0569139520293848,0.289,0.9999999999989581,731080.7928588628,1.4107029919074199,284,2026-10-08 01:02:15.898243,54.6,0.901609814017506,0.20524700780595304,0.06022185479937398
0153,cdot_cos,P,T-P,285,57,60397,0.03276259440372348,-0.00045571958842362454,0.2520656433828622,0.9999989458598878,1051.0,9.977771074769109,0.6436012981120174,10.865251170508438,-0.33254898062341165,0.583,0.9999999999989566,-241.74990543465358,1.4156713530363132,285,2026-10-08 01:02:16.481244,54.6,0.436548660637587,0.10890212409445352,0.1736340557029533
0153,cdot_cos,Q,P-Q,286,57,60516,-0.00782174296576373,-0.006382484848784714,-0.04058433736948721,0.09833129537425002,1051.0,10.00352229698842,0.6437133246336676,10.886191243740937,-0.08512516187276443,0.119,0.9999999999989349,2208.618237056392,1.4206386446584196,286,2026-10-08 01:02:16.600243,54.6,0.05466188977907135,0.529874591458967,0.21639682537236163
0153,cdot_cos,R,Q-R,287,57,60539,0.06880177423634833,0.0793445954857908,0.07662351720211205,0.9849859957188981,1051.0,10.103881227536343,0.644834626506742,10.924202530444798,-0.3333766899819218,0.023,0.9999999999989326,-221.39580256698255,1.425605714002075,287,2026-10-08 01:02:16.623244,54.6,0.4748968166086173,2.602888382281722,4.363431762953179
0153,cdot_cos,S,R-S,288,57,60562,-0.0013905063442048542,-0.0021046325190754805,-0.07019228058055318,0.02119642352514179,1051.0,10.123255162573379,0.6448587389638781,10.943626872624737,-0.06473847637783021,0.023,0.9999999999989121,11141.055102218383,1.430572784412792,288,2026-10-08 01:02:16.646244,54.6,0.015770861875463976,0.8029067070817814,0.8423450016102655
0153,cdot_cos,T,S-T,289,57,60849,-0.3294368181983041,0.12184411914128629,-0.32804631185409927,1.6642126023556977e-08,1051.0,10.140814936062105,0.6448587389828093,10.96260973971644,-0.05878355594723661,0.287,0.9999999999988906,314556055.1996846,1.4355404778104048,289,2026-10-08 01:02:16.933243,54.6,0.9036596459611892,0.2084972637325576,0.061183879751657975
0153,cdot_cos,P,T-P,290,58,61448,0.039677333947983805,-0.002239629531034267,0.3691141521462879,0.9999999982323815,1017.0,10.242932591955867,0.6459954733399149,11.000917862881836,-0.3433739903664936,0.599,0.9999999999988896,-250.35790696420403,1.4405089169615801,290,2026-10-08 01:02:17.532243,54.6,0.43657022618279273,0.1055581040722756,0.17048022686771655
0153,cdot_cos,Q,P-Q,291,58,61562,-0.005303942526850996,-0.004360106356631419,-0.0449812764748348,0.07900250936791176,1017.0,10.267273544740691,0.646085208124551,11.021399809908521,-0.0823456286496643,0.114,0.9999999999988661,2908.8871475601645,1.4454762013522704,291,2026-10-08 01:02:17.646244,54.6,0.04200731207786666,0.5513699243627787,0.21351712969143818
0153,cdot_cos,R,Q-R,292,58,61585,0.07349419440455239,0.08467605511570159,0.07879813693140339,0.9866444574285201,1017.0,10.36864493471058,0.6472050173570438,11.059456019998978,-0.34454638933396875,0.023,0.9999999999988642,-234.14770398043694,1.4504432682531,292,2026-10-08 01:02:17.669244,54.6,0.4671976947644686,2.620802775608403,4.407451737821287
0153,cdot_cos,S,R-S,293,58,61609,-0.0008057545543233466,-0.001242169218755074,-0.07429994895887573,0.017010339894107163,1017.0,10.387830472418678,0.6472243094079786,11.07870746251748,-0.06558817856462906,0.024,0.9999999999988418,14459.748821557983,1.455410338665501,293,2026-10-08 01:02:17.693243,54.6,0.014218971389664284,0.7686878472174715,0.7993974045040394
0153,cdot_cos,T,S-T,294,58,61906,-0.4272194521347602,0.08570226341582445,-0.42641369758043685,7.738811593838262e-11,1017.0,10.40554195137702,0.6472243094080663,11.097596981376906,-0.060656559694077766,0.297,0.99999999999882,,1.4603780738324785,294,2026-10-08 01:02:17.990243,54.6,0.9219134184625699,0.20321086095809743,0.05963460928734575
0153,cdot_cos,P,T-P,295,59,62465,0.027846336426294357,-0.001523795371741246,0.45506578856105456,0.9999999999838094,1042.0,10.508537723827788,0.6483576009233936,11.135919518576213,-0.35425681479654036,0.559,0.9999999999988184,-259.0686077956556,1.465346455884892,295,2026-10-08 01:02:18.549243,54.6,0.43658246345494894,0.11501220875226303,0.18425004016237598
0153,cdot_cos,Q,P-Q,296,59,62580,-0.014270567483217294,-0.010438372734034232,-0.04211690390951165,0.09115750651899363,1042.0,10.53412560076205,0.6484608260995146,11.156554336596695,-0.08853945648724415,0.115,0.9999999999987944,2574.1526272399224,1.4703137474155572,296,2026-10-08 01:02:18.664243,54.6,0.04973143655421721,0.5579892695213712,0.2225032776892339
0153,cdot_cos,R,Q-R,297,59,62603,0.07549859457758602,0.08374179950144173,0.08976916206080332,0.9926186957577233,1042.0,10.636875255817703,0.6495839503368306,11.194739581066768,-0.3571784420024644,0.023,0.9999999999987927,-239.18901986943976,1.475280812079036,297,2026-10-08 01:02:18.687244,54.6,0.4713689206319489,2.6488687293144495,4.467376306767543
0153,cdot_cos,S,R-S,298,59,62627,-0.0023347081489991993,-0.003482365091531166,-0.07783330272658522,0.014067810580524281,1042.0,10.655973562310514,0.6495998558535476,11.213844654669053,-0.06677030229455178,0.024,0.9999999999987698,18258.327904353882,1.480247880343506,298,2026-10-08 01:02:18.711244,54.6,0.012915064419882953,0.7700539013892153,0.7957627705337996
0153,cdot_cos,T,S-T,299,59,62912,-0.2395929508244471,0.15210710702746133,-0.2372582426754479,2.3660174524099763e-06,1042.0,10.673837843084385,0.6495998585286148,11.23264409597551,-0.06256440075537616,0.285,0.9999999999987466,1572260.1622253102,1.4852156041876223,299,2026-10-08 01:02:18.996243,54.6,0.934984661150546,0.2135663330688325,0.06268168692586366
0153,cdot_cos,P,T-P,300,60,63507,0.025369282157797997,-0.0013941868314793326,0.2649622329822451,0.9999994786991122,1038.0,10.777706372159749,0.6507296362679955,11.270980597219566,-0.3652994840951346,0.595,0.9999999999987451,-267.95985864060316,1.490184116401228,300,2026-10-08 01:02:19.591244,54.6,0.436602892577729,0.1073176481539611,0.17456895642918213
0153,cdot_cos,Q,P-Q,301,60,63619,-0.022477126270783434,-0.013661192838718784,-0.04784640842858143,0.06834374351181084,1038.0,10.801545844387599,0.6508067879493572,11.29108890690514,-0.0843325688959016,0.112,0.9999999999987198,3641.747143293755,1.4951514048397871,301,2026-10-08 01:02:19.703244,54.6,0.03573396292212579,0.5705117991936673,0.21285243060580644
0153,cdot_cos,R,Q-R,302,60,63644,0.0816152681399254,0.0900788393033692,0.10409239441070883,0.9966097132752495,1038.0,10.90550101517913,0.651930938646395,11.329365001345158,-0.36936694865959363,0.025,0.9999999999987181,-253.55531114714952,1.5001184721681151,302,2026-10-08 01:02:19.728243,54.6,0.4622342415248535,2.4571767404042077,4.158206831661246
0153,cdot_cos,S,R-S,303,60,63666,-0.002574445056873084,-0.0037766880102040263,-0.08418971319679848,0.00998379196135186,1038.0,10.92440468140781,0.6519421915811047,11.348302581882933,-0.06754650656945048,0.022,0.9999999999986942,26821.487005479066,1.5050855328610093,303,2026-10-08 01:02:19.750243,54.6,0.011466387661131384,0.839032601128094,0.8592575558490558
0153,cdot_cos,T,S-T,304,60,63968,-0.20154414023680373,0.12112424829435742,-0.19896969517993066,1.9139343042049327e-05,1038.0,10.942418449628766,0.6519422131532843,11.367014079338713,-0.0644755807621983,0.302,0.9999999999986695,142355.84277766486,1.5100533182841895,304,2026-10-08 01:02:20.052243,54.6,0.9534871936371107,0.20321879067398457,0.05964823914224141
0153,cdot_cos,P,T-P,305,61,64545,0.017265377027449146,0.0020751345195034847,0.21880951726425288,0.9999935214000061,1107.0,11.047148830974896,0.6530684653245761,11.40536381440431,-0.3763882256050972,0.577,0.9999999999986683,-276.94743041883413,1.5150218249569913,305,2026-10-08 01:02:20.629244,54.6,0.4366168411704082,0.11270504849597834,0.18150845987197536
0153,cdot_cos,Q,P-Q,306,61,64688,-0.02667073820861901,-0.02117840609884045,-0.043936115236068156,0.08325570781872965,1107.0,11.072480075593125,0.653162155822386,11.42568518337117,-0.09156431858568073,0.143,0.9999999999986421,3040.051165030738,1.519989199141227,306,2026-10-08 01:02:20.772243,54.6,0.04457228596834698,0.453053220768241,0.17714157075684772
0153,cdot_cos,R,Q-R,307,61,64712,0.057554372905282744,0.0811220783957141,0.08422511111390175,0.9900352932481465,1107.0,11.176722052114613,0.6542753651652046,11.463844434448164,-0.3784357248149181,0.024,0.9999999999986402,-257.69762720720826,1.5249562612235463,307,2026-10-08 01:02:20.796243,54.6,0.46858148880537565,2.6153670456683376,4.3434156883953206
0153,cdot_cos,S,R-S,308,61,64735,-0.0028449718061653805,-0.005380540830765165,-0.06039934471144812,0.03564659426101859,1107.0,11.198017693785205,0.6543154152655337,11.483202862302809,-0.07774283309132414,0.023,0.9999999999986154,7507.9185633089755,1.5299233217793724,308,2026-10-08 01:02:20.819244,54.6,0.020904533712464392,0.8579982320911144,0.9258974639388045
0153,cdot_cos,T,S-T,309,61,65021,-0.17198037028353824,0.09940396736978309,-0.16913539847737286,9.757489348512086e-05,1107.0,11.216189970790804,0.6543155248910756,11.501831220610933,-0.06645755863039753,0.286,0.99999999999859,102943.84199875168,1.534891083807726,309,2026-10-08 01:02:21.105243,54.6,0.8438236498078591,0.21636446175865345,0.06353943008950615
0153,cdot_cos,P,T-P,310,62,65652,0.017757701767621214,-0.00026943106964285007,0.18973807205115945,0.9999683170037689,1085.0,11.321778165911155,0.6554381279756938,11.540193213312158,-0.3876798173816437,0.631,0.9999999999985889,-286.14054526715853,1.539859776622628,310,2026-10-08 01:02:21.736243,54.6,0.43667058804693915,0.10398536955999649,0.16733469908138035
0153,cdot_cos,Q,P-Q,311,62,65772,-0.02590622814771117,-0.015838520374051965,-0.04366392991533238,0.08439703363662243,1085.0,11.34741950717552,0.6555327962220105,11.560461435475894,-0.09468116477776102,0.12,0.9999999999985609,3095.0045448554565,1.5448270950071465,311,2026-10-08 01:02:21.856243,54.6,0.04529392972575123,0.5458653452813896,0.21367784386970476
0153,cdot_cos,R,Q-R,312,62,65795,0.06527376238913378,0.07181028788099807,0.09117999053684495,0.9931621968195694,1085.0,11.452785848778689,0.6566458984325287,11.598693811160805,-0.39071336090570713,0.023,0.9999999999985586,-265.95239262900395,1.5497941515479028,312,2026-10-08 01:02:21.879244,54.6,0.46875687556614337,2.7328632031721636,4.5811452870943015
0153,cdot_cos,S,R-S,313,62,65817,-0.00352727335820603,-0.005125130507151219,-0.06880103574733981,0.022831084825984338,1085.0,11.47313121452144,0.6566714665552653,11.617718910512428,-0.07585684162588215,0.022,0.9999999999985332,12314.416765116332,1.5547612064840544,313,2026-10-08 01:02:21.901243,54.6,0.01575389889064963,0.878716414444975,0.9247893519432085
0153,cdot_cos,T,S-T,314,62,66107,-0.1818296362726223,0.129828110919078,-0.17830236291441628,5.915389200704884e-05,1085.0,11.491449371014268,0.6566715327994689,11.636263914053922,-0.06841366085825798,0.29,0.9999999999985064,112359.72910582263,1.559728997430355,314,2026-10-08 01:02:22.191243,54.6,0.8969127382919784,0.21510294734287538,0.06316605687182175
0153,cdot_cos,P,T-P,315,63,66737,0.021147826855571972,-0.0008695092452714493,0.20297746312819429,0.9999846221879699,1068.0,11.597890923980307,0.6577905045761546,11.674638237784656,-0.39906762984671107,0.63,0.9999999999985052,-295.49804193257717,1.5646977328342702,315,2026-10-08 01:02:22.821243,54.6,0.43667492100378386,0.10414014405309927,0.16895484597784033
0153,cdot_cos,Q,P-Q,316,63,66850,-0.025608480622937902,-0.01541585290980821,-0.046756307478509875,0.0722322782582043,1068.0,11.622665952521173,0.657871263944371,11.69459085405114,-0.09340318174983676,0.113,0.9999999999984757,3784.87913969155,1.5696650364651374,316,2026-10-08 01:02:22.934243,54.6,0.037910500425385976,0.5792587640088173,0.21924804018465188
0153,cdot_cos,R,Q-R,317,63,66878,0.06351582659117469,0.07074940306626779,0.08912430721411259,0.9923561993946873,1068.0,11.7288034046463,0.6589798410036581,11.732818020847537,-0.4017715245154668,0.028,0.9999999999984734,-278.1659066298252,1.574632104138248,317,2026-10-08 01:02:22.962244,54.6,0.46416200064325874,2.265600874138407,3.7906232901831087
0153,cdot_cos,S,R-S,318,63,66902,-0.0032730705967326168,-0.004873720188724086,-0.0667888971879073,0.025414960419111794,1068.0,11.749539601472923,0.6590082097038432,11.751815333945634,-0.07891794772268683,0.024,0.9999999999984459,11380.626348281134,1.5795991617174663,318,2026-10-08 01:02:22.986243,54.6,0.01672244915411014,0.8166298607943009,0.8640082011093231
0153,cdot_cos,T,S-T,319,63,67185,-0.19489488167390706,0.13195864636306132,-0.19162181107717444,2.8586400174065807e-05,1068.0,11.768001637964426,0.6590082416119283,11.770279070793464,-0.07038024768592498,0.283,0.9999999999984174,267571.6834744206,1.5845669511893725,319,2026-10-08 01:02:23.269243,54.6,0.8857609401688965,0.22216970411388615,0.06523687806184696
0153,cdot_cos,P,T-P,320,64,67805,0.02377575855558589,-0.0008408217308933649,0.21867064022949295,0.9999934720884156,1034.0,11.875287654001383,0.660123549208994,11.808664767223016,-0.4105266984380621,0.62,0.9999999999984167,-304.9799460230025,1.5895357036622042,320,2026-10-08 01:02:23.889244,54.6,0.4366771714795631,0.10752514451885144,0.17304196134993044
0153,cdot_cos,Q,P-Q,321,64,67920,-0.019911233340851382,-0.013814309111592012,-0.04368699189643727,0.08429978212623626,1034.0,11.901332817167802,0.6602174891240562,11.828785011415428,-0.10020967062249109,0.115,0.9999999999983865,3303.35648706926,1.5945030173903456,321,2026-10-08 01:02:24.004243,54.6,0.04519912931559817,0.5774245731858816,0.22647967970799057
0153,cdot_cos,R,Q-R,322,64,67950,0.06420487481842531,0.07930016972121913,0.0841161081592767,0.9899764070811767,1034.0,12.008095305834136,0.6613197300402008,11.86697462117143,-0.41241393059661946,0.03,0.9999999999983843,-283.24502874212004,1.5994700883956243,322,2026-10-08 01:02:24.034244,54.6,0.4690636685306933,2.1273467222166316,3.558749622211129
0153,cdot_cos,S,R-S,323,64,67974,-0.0027675206998571448,-0.004655656712415817,-0.06697239551828245,0.02516797563337198,1034.0,12.0289736205008,0.6613477293572054,11.885890502515537,-0.08107842212164557,0.024,0.9999999999983556,11833.699672769053,1.604437143207674,323,2026-10-08 01:02:24.058244,54.6,0.016796155019689347,0.822607427972207,0.8699297777776671
0153,cdot_cos,T,S-T,324,64,68255,-0.21940479864903462,0.11753351862906285,-0.21663727794917748,7.294406980952456e-06,1034.0,12.047580462376802,0.6613477374720534,11.904275613585337,-0.07237613596129952,0.281,0.9999999999983268,1072390.5294876825,1.6094049449726526,324,2026-10-08 01:02:24.339243,54.6,0.8867103019006835,0.22550126089973954,0.06621651913167943
0153,cdot_cos,P,T-P,325,65,68839,0.02341603541903843,0.001537081247334744,0.24282083406807303,0.9999982537139571,1017.0,12.155705329126453,0.6624593177120509,11.942671747636318,-0.4221135700349359,0.584,0.9999999999983251,-314.6308484886644,1.6143736375449298,325,2026-10-08 01:02:24.923244,54.6,0.436686945245244,0.11407922129097242,0.1851453197768009
0153,cdot_cos,Q,P-Q,326,65,68970,-0.023485304180730193,-0.01816926892890474,-0.046901339599768624,0.07170339902531295,1017.0,12.180824992844657,0.6625389531700473,11.962469342617485,-0.09859432960999724,0.131,0.9999999999982935,4062.502414937113,1.619341003220888,326,2026-10-08 01:02:25.054244,54.6,0.037578736604954206,0.5070205832445197,0.1917531581542295
0153,cdot_cos,R,Q-R,327,65,68992,0.06351989532479249,0.08959929558062178,0.08700519950552268,0.991426628591493,1017.0,12.288544721936518,0.6636391080243161,12.000696943430265,-0.4244236197562843,0.022,0.9999999999982904,-296.16675223674,1.6243080483514813,327,2026-10-08 01:02:25.076244,54.6,0.46408001424720785,2.928062275094921,4.896351322357279
0153,cdot_cos,S,R-S,328,65,69017,-0.002835225822377096,-0.005715063366779666,-0.06635512114716959,0.02600823539273825,1017.0,12.309659732948834,0.6636679447341061,12.019554849055233,-0.08362926857140571,0.025,0.9999999999982612,11818.073340112425,1.6292751036042303,328,2026-10-08 01:02:25.101243,54.6,0.016991182171559562,0.797311680472852,0.8446004404926555
0153,cdot_cos,T,S-T,329,65,69299,-0.23707890953954364,0.09773319283477772,-0.23424368371716653,2.7893333863731975e-06,1017.0,12.32841030596016,0.6636679478267226,12.037863425804135,-0.07438491546385108,0.282,0.9999999999982317,2989168.9185639145,1.6342429265823688,329,2026-10-08 01:02:25.383244,54.6,0.8831349533511178,0.22642927763498005,0.06649139365718515
0153,cdot_cos,P,T-P,330,66,69856,0.023296576963244123,-0.0007554845007203487,0.26037548650278775,0.9999993303443638,1028.0,12.437365845534963,0.6647757737699963,12.076269028054034,-0.43376636594763124,0.557,0.9999999999982295,-324.4024502818283,1.6392115808316619,330,2026-10-08 01:02:25.940243,54.6,0.43669779405504716,0.12116066540073088,0.19561138164237435
0153,cdot_cos,Q,P-Q,331,66,69975,-0.021558169615627943,-0.015333816406804243,-0.04485474657887206,0.07950664613180893,1028.0,12.463383287216574,0.6648637757176219,12.096154118637086,-0.1041298913264512,0.119,0.9999999999981979,3745.786127639213,1.6441789165479879,331,2026-10-08 01:02:26.059244,54.6,0.04218764978371674,0.5671068207605704,0.2186339637110226
0153,cdot_cos,R,Q-R,332,66,70000,0.0793633670241802,0.0976689058311224,0.10092153663980814,0.9959714653179849,1028.0,12.572337268875978,0.6659651946119662,12.134481318740644,-0.4377140315669965,0.025,0.9999999999981959,-302.86763914570673,1.6491459684147465,332,2026-10-08 01:02:26.084243,54.6,0.4666829305239038,2.5768496645314443,4.358159266376163
0153,cdot_cos,S,R-S,333,66,70024,-0.0035679683550537467,-0.005975110030909925,-0.08293133537923394,0.01068627897681665,1028.0,12.592225770443147,0.6659770025066203,12.152957844399854,-0.08031035971342727,0.024,0.9999999999981647,30268.19617932888,1.6541130184147783,333,2026-10-08 01:02:26.108243,54.6,0.011675285184559877,0.807947825533765,0.8286875652986728
0153,cdot_cos,T,S-T,334,66,70315,-0.26634285113442513,0.13771212612892622,-0.2627748827793714,5.874297414013136e-07,1028.0,12.6111187645016,0.6659770031557001,12.171191832459572,-0.0764080486606598,0.291,0.9999999999981339,6012066.795781321,1.6590808877195231,334,2026-10-08 01:02:26.399244,54.6,0.9502102629848416,0.22108677496607487,0.0649243782077408
0153,cdot_cos,P,T-P,335,67,70884,0.015563200254519566,-0.0008127498883250494,0.2819060513889447,0.9999997933151387,1086.0,12.720898273473402,0.667081039207517,12.2096059540496,-0.4455045939072043,0.569,0.9999999999981326,-334.3156635502101,1.6640496201763455,335,2026-10-08 01:02:26.968243,54.6,0.43670778264344673,0.12066622550378359,0.19293411067100705
0153,cdot_cos,Q,P-Q,336,67,70997,-0.025921248069810707,-0.015291694505768883,-0.04148444832433027,0.09405909024393344,1086.0,12.748436929124905,0.6671847897861206,12.229717973005538,-0.11234506053285195,0.113,0.999999999998099,3211.158316980186,1.6690169425396795,336,2026-10-08 01:02:27.081243,54.6,0.051534577855760315,0.6078996444179873,0.24370491726993546
0153,cdot_cos,R,Q-R,337,67,71025,0.07903122683249461,0.08443473004498453,0.10495247490230532,0.9967647388749297,1086.0,12.858283593111867,0.6682832599907463,12.268068700256693,-0.4497930991883584,0.028,0.9999999999980969,-307.19817181612456,1.673984001444473,337,2026-10-08 01:02:27.109244,54.6,0.47225817096994416,2.3190623405690793,3.9230951423915146
