record_id,input,event,transition,event_index,k,peak,value_cos,value_sin,value_return,x_input,rr,knowledge,decision,decision_norm,entropy,delta_t,cosine_similarity,delta_h_over_delta_d,frobenius_norm,matrix_size,timestamp,scale,P,zdot,zdot_back
0188,cdot_cos,Q,P-Q,1,0,1139,-0.027898035286887078,-0.021450299780670683,-0.04475793576626381,0.012568682514707039,999.0,6.243042489759796e-05,0.5000156076062193,0.5000156076062193,,,1.0,,0.004967141530112327,1,2026-10-08 02:01:17.223244,97.5,,,
0188,cdot_cos,R,Q-R,2,0,1194,0.032535173602693625,0.0773553193396781,0.0604332088895807,0.9972468094897249,999.0,0.007093548812626563,0.5012539714879441,0.7088801646716273,-9.07350959201223e-06,,1.0,,0.009934283060224654,2,2026-10-08 02:01:17.278244,97.5,,,
0188,cdot_cos,S,R-S,3,0,1216,-0.0030817416749799836,-0.012995297780124641,-0.035616915277673605,0.030100541905656128,999.0,0.008946752769535752,0.5012913496587094,0.86826208700366,-5.36064938906567e-06,0.022,1.0,0.0993323142073641,0.014901424593062877,3,2026-10-08 02:01:17.300243,97.5,0.5002667185704864,0.07438853137584481,0.08423654349587222
0188,cdot_cos,T,S-T,4,0,1468,-0.06073833267962602,0.0062629688303014,-0.05765659100464604,0.003606093469272958,999.0,0.010366644193163735,0.5012958276228942,1.0025916552458307,-4.945331829700315e-06,0.252,1.0,0.09274695871307072,0.01986856615879462,4,2026-10-08 02:01:17.552243,97.5,0.9194480474002371,0.02727282653504664,0.005634489776301519
0188,cdot_cos,P,T-P,5,1,2007,0.018563447067745584,-0.00034605451646440845,0.0793017797473716,0.9995615926376805,1018.0,0.022692257343199258,0.5025370497250908,1.1237070043982047,-7.348019871860404e-05,0.539,1.0,-0.05521563527398726,0.024835707844921347,5,2026-10-08 02:01:18.091244,97.5,0.39349046512571606,0.0148911173866836,0.02286755686462991
0188,cdot_cos,Q,P-Q,6,1,2137,-0.0010876522488841305,-0.0011190489363144813,-0.019651099316629714,0.12831027534818557,1018.0,0.02641926873600866,0.5026963791841391,1.2313496245483428,-3.300776141617159e-05,0.13,1.0000000000000002,0.25401728935869394,0.029802849428240765,6,2026-10-08 02:01:18.221244,97.5,0.2934203341169594,0.07240650391951306,0.028669318406226166
0188,cdot_cos,R,Q-R,7,1,2182,0.04400447434823512,0.08127140242431458,0.04509212659711925,0.9878293463771248,1018.0,0.041517948362272655,0.5039229968635482,1.333254929633615,-0.0001849713810609516,0.045,1.0,-0.12388833309330946,0.034769990970199435,7,2026-10-08 02:01:18.266243,97.5,0.4397486071814135,0.2014165778622061,0.3355262139169777
0188,cdot_cos,S,R-S,8,1,2201,-0.0016348553687424638,-0.004196084940322764,-0.04563932971697759,0.011545639391151727,1018.0,0.04454676074360721,0.5039373331839538,1.4253500223584288,-4.700619496188354e-05,0.019,0.9999999999999998,9.623472564496279,0.03973713249760014,8,2026-10-08 02:01:18.285243,97.5,0.0531284543787199,0.15081663648750496,0.15941117796497647
0188,cdot_cos,T,S-T,9,1,2486,-0.15329271074398518,-0.011772661669555129,-0.1516578553752427,3.7865464365791836e-07,1018.0,0.04724898054879784,0.5039373336541324,1.5118120009725375,-4.473019859492451e-05,0.285,1.0,4840.706376840051,0.044704274453645006,9,2026-10-08 02:01:18.570244,97.5,0.950390079085162,0.03678161012423429,0.009481473000668896
0188,cdot_cos,P,T-P,10,2,3025,0.018239268835759194,-0.0006868358586594014,0.17153197957974436,0.9999999454619964,994.0,0.06551227851442075,0.5051790151284756,1.5975163139682709,-0.00037134456816546196,0.539,0.9999999999999999,-0.26304199290989394,0.049671417061258875,10,2026-10-08 02:01:19.109244,97.5,0.4149715564012543,0.021861889237891084,0.03388366969503322
0188,cdot_cos,Q,P-Q,11,2,3148,-0.0014539903210447657,-0.001478995515731534,-0.01969325915680396,0.1278512218631008,994.0,0.07081609714724443,0.5053377613459047,1.6760157468871537,-0.00013037970043705855,0.123,1.0000000000000002,1.517925098505618,0.05463855878942277,11,2026-10-08 02:01:19.232243,97.5,0.15752394531244815,0.10363389683530892,0.043120476689623446
0188,cdot_cos,R,Q-R,12,2,3195,0.04608055005977552,0.08503718622825991,0.047534540380820285,0.9903835554142939,994.0,0.09100621713590674,0.5065674302377102,1.7548010533920102,-0.00058909715705574,0.047,1.0000000000000002,-0.37304144203009143,0.05960570033139822,12,2026-10-08 02:01:19.279244,97.5,0.4590120659468739,0.25616882904432925,0.4295770210353683
0188,cdot_cos,S,R-S,13,2,3216,-0.001366001953369124,-0.003566661559490745,-0.04744655201314465,0.009698494108262479,994.0,0.09489596707741138,0.5065794716043239,1.8264982601067967,-0.00013038136376337212,0.021,1.0,38.09499436470849,0.06457284180704503,13,2026-10-08 02:01:19.300243,97.5,0.029650924704810504,0.17805765774692997,0.18522618769069693
0188,cdot_cos,T,S-T,14,2,3503,-0.0830818736242119,0.02273588983141494,-0.08171587167084278,0.00034649435106799545,994.0,0.0984846387612778,0.5065799018014344,1.8954484317106153,-0.0001251284251333414,0.287,1.0,12.210539080664274,0.06953998453747727,14,2026-10-08 02:01:19.587244,97.5,0.9588885953597552,0.045787031855702626,0.012504082522182661
0188,cdot_cos,P,T-P,15,3,4019,0.016057408233768736,-5.225605277574736e-05,0.09913928185798064,0.9999366061292482,999.0,0.12117772336258469,0.5078213502988754,1.9667836328270742,-0.0008987263008559699,0.516,1.0,-0.6231413363641265,0.0745071287335102,15,2026-10-08 02:01:20.103244,97.5,0.42283579059449794,0.028761868967766977,0.04397884612656372
0188,cdot_cos,Q,P-Q,16,3,4170,-0.0015931995603437926,-0.0021890861087622694,-0.017650607794112528,0.15175086421520503,999.0,0.12816688753601332,0.5080097450736022,2.032038980804021,-0.0003141943098009506,0.151,1.0000000000000002,3.102697470791268,0.07947427093050202,16,2026-10-08 02:01:20.254244,97.5,0.1556079484095323,0.1026304507924767,0.046285855453169794
0188,cdot_cos,R,Q-R,17,3,4196,0.03807707267534023,0.07613215862390539,0.03967027223568403,0.9795247676010854,999.0,0.15217211950191264,0.5092257426773538,2.099591524949574,-0.0012131824126133573,0.026,0.9999999999999998,-0.7393008835205477,0.08444141229099511,17,2026-10-08 02:01:20.280244,97.5,0.4766292080268497,0.5545851073480904,0.9232781525345893
0188,cdot_cos,S,R-S,18,3,4214,-0.0018385843506611586,-0.005280570245327345,-0.03991565702600139,0.020000857284277557,999.0,0.15700531311811403,0.50925057097093,2.160567192954973,-0.0002693877547340998,0.018,0.9999999999999999,38.0128684632652,0.08940855364052303,18,2026-10-08 02:01:20.298244,97.5,0.03009247392560969,0.25443623099876167,0.2685107564556323
0188,cdot_cos,T,S-T,19,3,4519,-0.07153499659321265,0.010236855420717414,-0.06969641224255149,0.0011176595381354629,999.0,0.16133182381786806,0.5092519583890707,2.219777824037658,-0.0002482909638291253,0.305,0.9999999999999999,15.205791452465444,0.09437569771757673,19,2026-10-08 02:01:20.603244,97.5,0.9185416613929094,0.050375305682860264,0.014185280982800126
0188,cdot_cos,P,T-P,20,4,5018,0.021954651865961156,-0.00027400419751967656,0.0934896484591738,0.9998900352497242,1003.0,0.18773424958465879,0.5104931225009841,2.2829946488876187,-0.0016612871571880248,0.499,0.9999999999999999,-1.138444287742541,0.09934284415378966,20,2026-10-08 02:01:21.102243,97.5,0.4271829007149609,0.032176861222787186,0.05291067287934012
0188,cdot_cos,Q,P-Q,21,4,5153,-0.008870112634434475,-0.007005747430422247,-0.030824764500395632,0.04718186094439939,1003.0,0.19344433131820968,0.5105516862976988,2.3396417502138114,-0.0003923393863131897,0.135,0.9999999999999999,21.667785254049253,0.10430998668976636,21,2026-10-08 02:01:21.237243,97.5,0.039387315597545096,0.1237858934447615,0.04229690173000661
0188,cdot_cos,R,Q-R,22,4,5194,0.04366494273708919,0.08494226843042,0.05253505537152366,0.9940722660453053,1003.0,0.2211564408147444,0.5117854941636154,2.4004867492108857,-0.0020708225592441535,0.041,0.9999999999999998,-1.3604088766964935,0.10927712812279589,22,2026-10-08 02:01:21.278244,97.5,0.444618196331963,0.4018923535041066,0.6759051096715784
0188,cdot_cos,S,R-S,23,4,5213,-0.002065325501070705,-0.005808226410810731,-0.04573026823815989,0.011444888832401879,1003.0,0.22639950430554642,0.5117996983536323,2.4545051287526936,-0.0004229363954229773,0.019,1.0,116.01408893192516,0.11424426931738252,23,2026-10-08 02:01:21.297244,97.5,0.02031698913562757,0.2661165036688826,0.2759507100422121
0188,cdot_cos,T,S-T,24,4,5480,-0.19360139557489286,-0.021311144260439216,-0.19153607007382217,7.756250209587209e-09,1003.0,0.23126886795416193,0.5117996983632586,2.5072962247662316,-0.0004016666022811847,0.267,1.0,2209550.261057476,0.11921141439174257,24,2026-10-08 02:01:21.564243,97.5,0.948423780912045,0.06455806193525673,0.018237317036013147
0188,cdot_cos,P,T-P,25,5,6021,0.01689894487331007,0.0012405988982411528,0.21050034044820293,0.999999998779229,1018.0,0.2608735093789735,0.5130407168662073,2.565203586584801,-0.002625666689126475,0.541,1.0,-1.7920764932681161,0.12417856448736625,25,2026-10-08 02:01:22.105243,97.5,0.428689240303838,0.03273664774149103,0.054722072873958576
0188,cdot_cos,Q,P-Q,26,5,6151,-0.020398785905290144,-0.013166927672814646,-0.03729773077860021,0.025667456736335553,1018.0,0.2666899208104552,0.5130725686041401,2.616167042498203,-0.0005529901342371908,0.13,0.9999999999999997,65.0726362017022,0.12914570748065848,26,2026-10-08 02:01:22.235244,97.5,0.0235618656109456,0.14086861181766125,0.04474162639601311
0188,cdot_cos,R,Q-R,27,5,6206,0.038705167682433504,0.08541290560561805,0.05910395358772365,0.9968670285017711,1018.0,0.29749934845156545,0.5143095347268761,2.6724307384290658,-0.003132111029396014,0.055,0.9999999999999999,-2.0850376156252826,0.13411284913449423,27,2026-10-08 02:01:22.290244,97.5,0.43891701602298194,0.33442348910155256,0.5601714116565495
0188,cdot_cos,S,R-S,28,5,6228,-0.0013648586392209989,-0.004468204626187579,-0.0400700263216545,0.019707966681922793,1018.0,0.303476504611626,0.5143339877128563,2.721599648240128,-0.000647260499560526,0.022,0.9999999999999998,101.61746838803535,0.13907999017582784,28,2026-10-08 02:01:22.312243,97.5,0.021514524930125598,0.25793233872547683,0.2716889163663891
0188,cdot_cos,T,S-T,29,5,6500,-0.12326035839831989,0.016005317617000244,-0.1218954997590989,6.894282446425026e-06,1018.0,0.30884837135548643,0.5143339962670395,2.769773339415849,-0.0005926995707798423,0.272,0.9999999999999996,6378.274569321477,0.14404713702379468,29,2026-10-08 02:01:22.584243,97.5,0.9120550316250845,0.06959161106480831,0.019749510087722133
0188,cdot_cos,P,T-P,30,6,7039,0.01766101763183021,3.8396210688565325e-05,0.1409213760301501,0.9999989213876904,1018.0,0.3413343410308817,0.5155746688598275,2.8239187664437475,-0.0038053465350503983,0.539,0.9999999999999993,-2.589439778830849,0.14901429096285781,30,2026-10-08 02:01:23.123244,97.5,0.42988155034342856,0.038677282497844225,0.06027081572429554
0188,cdot_cos,Q,P-Q,31,6,7190,-0.0019327377743421478,-0.0025670830092178482,-0.019593755406172357,0.12893691462173695,1018.0,0.3505424818881625,0.5157346238810455,2.871488865325323,-0.0011477703133669762,0.151,0.9999999999999993,16.6145220165435,0.1539814351944421,31,2026-10-08 02:01:23.274244,97.5,0.09872420491889779,0.14066797026009775,0.06098106528000515
0188,cdot_cos,R,Q-R,32,6,7218,0.04068485784711266,0.07999930341460543,0.04261759562145481,0.9845597305769463,1018.0,0.38381606804943125,0.5169559285808696,2.924344347643977,-0.004401417705492237,0.028,0.9999999999999996,-2.6640750605430092,0.15894857607178603,32,2026-10-08 02:01:23.302243,97.5,0.47748280359333123,0.7087938110684379,1.188342362902455
0188,cdot_cos,S,R-S,33,6,7238,-0.0013060888599180308,-0.0036724018892586295,-0.04199094670703069,0.016397107496880597,1018.0,0.390234935307995,0.5169762668249486,2.9698025578187055,-0.0008949764179619851,0.02,0.9999999999999994,172.40629397072064,0.1639157168221055,33,2026-10-08 02:01:23.322243,97.5,0.019882512027688898,0.3106297310008013,0.3209433629281888
0188,cdot_cos,T,S-T,34,6,7518,-0.05610832642702205,0.010620013137598344,-0.05480223756710402,0.004757717539267945,1018.0,0.3962412572894633,0.5169821680760094,3.014498158810792,-0.000850897918789287,0.28,0.9999999999999992,7.469348231156399,0.16888286608017597,34,2026-10-08 02:01:23.602243,97.5,0.9495165343322439,0.07349494262678341,0.02145114993381527
0188,cdot_cos,P,T-P,35,7,8057,0.01867279972153958,-0.0003068373874108615,0.07478112614856162,0.9993189270287636,999.0,0.43139210317899374,0.5182215691731565,3.06584015601211,-0.0052393951002148035,0.539,0.9999999999999991,-3.540820797663435,0.17385002486734147,35,2026-10-08 02:01:24.141243,97.5,0.43274953767232743,0.03941470689456843,0.06521492743883198
0188,cdot_cos,Q,P-Q,36,7,8188,-0.01368549673072286,-0.012017089345548753,-0.03235829645226244,0.04089730822047184,999.0,0.43873031132180806,0.5182722872161987,3.1096337331763637,-0.0011499383129698613,0.131,0.9999999999999993,80.63120226953362,0.1788171693367121,36,2026-10-08 02:01:24.272243,97.5,0.028545951975816265,0.1659033362763792,0.056016856052017776
0188,cdot_cos,R,Q-R,37,7,8226,0.04159600749620767,0.07617041583574718,0.05528150422693053,0.9954585026268297,999.0,0.4748587772834051,0.5195066681137898,3.1600357054736308,-0.005943242624157406,0.038,0.9999999999999996,-3.8831646864770275,0.18378431038923307,37,2026-10-08 02:01:24.310244,97.5,0.4464118533389035,0.5642903990646828,0.9507491042525532
0188,cdot_cos,S,R-S,38,7,8248,-0.003201702009918776,-0.008293318954607758,-0.044797709506126444,0.012520645389010168,999.0,0.48161638165072396,0.5195221923847605,3.2025498880916436,-0.0011638270248734808,0.022,0.9999999999999994,307.86731359518996,0.188751450924381,38,2026-10-08 02:01:24.332243,97.5,0.01646304000794756,0.29670454204201474,0.3071638348781305
0188,cdot_cos,T,S-T,39,7,8537,-0.10518791085678797,0.017793282615568715,-0.1019862088468692,4.8029104222923786e-05,999.0,0.48791377713325373,0.5195222519356779,3.2444154339603277,-0.0010993709775542293,0.289,0.9999999999999993,1082.3686705816021,0.19371860304023492,39,2026-10-08 02:01:24.621243,97.5,0.943055697899618,0.07599999926284605,0.021790295787300268
0188,cdot_cos,P,T-P,40,8,9056,0.027447384958868358,-0.0010110235303790267,0.13263529581565633,0.9999975804857512,999.0,0.525544381224649,0.5207620184810241,3.293588206740376,-0.006865656773204397,0.519,0.9999999999999993,-4.651106143568352,0.19868576628644583,40,2026-10-08 02:01:25.140243,97.5,0.43176497401838637,0.04439504730137182,0.07250598090827598
0188,cdot_cos,Q,P-Q,41,8,9187,-0.0006915704689837695,-0.0007346085534666715,-0.02813895542785213,0.060452062058789446,999.0,0.5339958362320777,0.5208369570637683,3.3349837587123443,-0.0016120502685085746,0.131,0.9999999999999989,70.10549589158984,0.2036529116687279,41,2026-10-08 02:01:25.271244,97.5,0.038428362704184364,0.17856184217172072,0.06451492372082993
0188,cdot_cos,R,Q-R,42,8,9228,0.046120368897165004,0.0848603302763043,0.046811939366148775,0.9896888430750109,999.0,0.5723275838736398,0.5220636756854313,3.3833593260854924,-0.007632710415900064,0.041,0.9999999999999988,-4.907938985412578,0.20862005274033293,42,2026-10-08 02:01:25.312243,97.5,0.45439103543973075,0.5538223858382738,0.9349206741844416
0188,cdot_cos,S,R-S,43,8,9247,-0.0015767466062824784,-0.004074285171855451,-0.04769711550344748,0.009466646979801239,999.0,0.5794092718708161,0.5220754083264308,3.4234774111755497,-0.0014680039064253754,0.019,0.9999999999999992,525.4321264690594,0.21358719279648003,43,2026-10-08 02:01:25.331244,97.5,0.015004874253132345,0.36264095271231434,0.37272042090401813
0188,cdot_cos,T,S-T,44,8,9556,-0.135051003638401,0.027846701387355934,-0.13347425703211852,2.2294797623965898e-06,999.0,0.5861079400767077,0.5220754110895696,3.46305651770158,-0.0014052199802505043,0.309,0.9999999999999989,22721.95954900817,0.2185543489685566,44,2026-10-08 02:01:25.640243,97.5,0.9563043364078202,0.07547275520939738,0.021678537883144337
0188,cdot_cos,P,T-P,45,9,10055,0.01790125073237255,0.0006324960508474392,0.15295225437077356,0.9999996662404905,996.0,0.6260514345902237,0.5233146370212168,3.5105013242857375,-0.0087125447865712,0.499,0.9999999999999986,-5.896684873764112,0.22352151693390082,45,2026-10-08 02:01:26.139244,97.5,0.4322664811140744,0.04762109914719671,0.08004708319341879
0188,cdot_cos,Q,P-Q,46,9,10185,-0.02216082369961454,-0.016545269635980134,-0.04006207443198709,0.019722950896464836,996.0,0.6336337970256101,0.523339075385524,3.5494583244598132,-0.001718714871032463,0.13,0.9999999999999987,286.1824067936932,0.228488663273401,46,2026-10-08 02:01:26.269243,97.5,0.017090704241893104,0.18605839002894636,0.058325864887587286
0188,cdot_cos,R,Q-R,47,9,10235,0.036583259019762684,0.08128063174699438,0.05874408271937723,0.996755512340944,996.0,0.6744266159977498,0.5245739897055628,3.596298108805291,-0.009599436818498674,0.05,0.999999999999998,-6.381594107046172,0.23345580480714487,47,2026-10-08 02:01:26.319244,97.5,0.4400104961775521,0.4874886100943554,0.8158563794427942
0188,cdot_cos,S,R-S,48,9,10257,-0.0015086612894007233,-0.00518352925016105,-0.038091920309163405,0.023800457069562117,996.0,0.6823826580350456,0.5246034732886083,3.6345595014896666,-0.0019419926499036689,0.022,0.999999999999998,259.7189139720232,0.23842294466297936,48,2026-10-08 02:01:26.341243,97.5,0.019388288681707985,0.34157768875108346,0.3616382744225377
0188,cdot_cos,T,S-T,49,9,10554,-0.10235875407081625,0.011854732674776925,-0.10085009278141553,5.365490310208654e-05,996.0,0.6894560343027974,0.5246035397551547,3.672224801499142,-0.0017456674435405535,0.297,0.9999999999999984,2953.7446589592637,0.24339010353839788,49,2026-10-08 02:01:26.638243,97.5,0.8936292801801733,0.08282148154285296,0.023816081709602158
0188,cdot_cos,P,T-P,50,10,11051,0.024195344104542042,0.0009830208793789074,0.1265540981753583,0.9999956224832641,1001.0,0.7315786180715003,0.5258421590177059,3.718265590644391,-0.010765706935568796,0.497,0.9999999999999982,-7.282334261013796,0.2483572776275172,50,2026-10-08 02:01:27.135243,97.5,0.4326400236251462,0.05270559052414074,0.08475368967545838
0188,cdot_cos,Q,P-Q,51,10,11184,-0.00028112277068378797,-0.0003094671421130829,-0.02447646687522583,0.08421137899800302,1001.0,0.7418453912837933,0.5259464510071808,3.7560089676871042,-0.0027206657257460524,0.133,0.9999999999999978,77.13958905498698,0.25332442535648264,51,2026-10-08 02:01:27.268243,97.5,0.051973983444812154,0.1978507920637227,0.07719378355107577
0188,cdot_cos,R,Q-R,52,10,11233,0.03995606780517378,0.08763080417506242,0.04023719057585757,0.9806044608831689,1001.0,0.7842069287604505,0.527160716320659,3.8014100179524943,-0.011623643208174276,0.049,0.9999999999999981,-7.331986991316304,0.2582915668288969,52,2026-10-08 02:01:27.317244,97.5,0.4648981543082435,0.5149258877484569,0.8645211729930032
0188,cdot_cos,S,R-S,53,10,11255,-0.001969751240671313,-0.007051558131881837,-0.041925819045845095,0.016499836099757526,1001.0,0.7923081282831421,0.5271811450703915,3.8379366996888393,-0.002296395306979395,0.022,0.9999999999999973,456.5745835316258,0.2632587062968532,53,2026-10-08 02:01:27.339243,97.5,0.017219877543454453,0.3532016908584739,0.368236341940528
0188,cdot_cos,T,S-T,54,10,11552,-0.23143782172689076,-0.07843940855229842,-0.22946807048621945,1.9207467780912842e-10,1001.0,0.7997478031582234,0.5271811450706293,3.873974454315776,-0.0021296658997429856,0.297,0.9999999999999974,,0.2682258690088124,54,2026-10-08 02:01:27.636243,97.5,0.9246971532214296,0.08694966071381048,0.02504941035380888
0188,cdot_cos,P,T-P,55,11,12052,0.01749725880255396,0.0002068510862240416,0.2489350805294447,0.999999999971215,1058.0,0.8439562267471455,0.5284190909726489,3.9188608984911544,-0.013061946678560744,0.5,0.9999999999999972,-8.830984262706727,0.27319305041557757,55,2026-10-08 02:01:28.136243,97.5,0.4330264490243944,0.056468371593812905,0.08841684717784437
0188,cdot_cos,Q,P-Q,56,11,12202,-0.002521928942662462,-0.003093209500151893,-0.02001918774521642,0.12434950917171247,1058.0,0.8562161747520363,0.528573004817715,3.955478217407541,-0.0037466710139566215,0.15,0.9999999999999971,60.522662276471976,0.2781602010669278,56,2026-10-08 02:01:28.286243,97.5,0.08321891148166868,0.18949105693091423,0.08173298669927147
0188,cdot_cos,R,Q-R,57,11,12231,0.041121373436532944,0.07341960194127257,0.043643302379195406,0.9860085966952211,1058.0,0.9008035438264198,0.5297932441621056,3.999851321694334,-0.014077589789045932,0.029,0.9999999999999971,-8.46630525607937,0.2831273405793503,57,2026-10-08 02:01:28.315244,97.5,0.48005449615420476,0.9127505783809355,1.5374954853235703
0188,cdot_cos,S,R-S,58,11,12250,-0.003435746075564286,-0.008848765438748624,-0.04455711951209723,0.012814012597699868,1058.0,0.9091557082981305,0.5298090998883229,4.034905937593379,-0.0027164768725158692,0.019,0.9999999999999968,716.5305934786826,0.2880944793196435,58,2026-10-08 02:01:28.334244,97.5,0.015263408110585817,0.42541995371195446,0.4395876037742485
0188,cdot_cos,T,S-T,59,11,12490,-0.08828498611952003,0.02996774767261641,-0.08484924004395575,0.00025530382774359553,1058.0,0.9169695020674741,0.5298094157940342,4.069543384672872,-0.002564074504132427,0.24,0.9999999999999967,482.4299243504023,0.2930616405788339,59,2026-10-08 02:01:28.574244,97.5,0.9422943553114472,0.11255437145195775,0.032557474038931444
0188,cdot_cos,P,T-P,60,12,13110,0.0173252668613829,-0.0008370984421664009,0.10561025298090293,0.9999662669807038,1020.0,0.9631818065950702,0.5310465599097995,4.1134690121681725,-0.015608360834623327,0.62,0.9999999999999967,-10.543869678773028,0.29802884271882696,60,2026-10-08 02:01:29.194243,97.5,0.4335603427642486,0.044364161503307645,0.07453597504450996
0188,cdot_cos,Q,P-Q,61,12,13221,-0.022193941657932897,-0.012962790768118274,-0.0395192085193158,0.02077272717612543,1020.0,0.9719810623315756,0.5310722556413333,4.147806969518702,-0.003058915977074127,0.111,0.9999999999999962,488.38636257762386,0.302995990710992,61,2026-10-08 02:01:29.305243,97.5,0.016529987338304904,0.25140680481766553,0.07927257420275051
0188,cdot_cos,R,Q-R,62,12,13274,0.05041003329907815,0.08016378228925135,0.07260397495701104,0.9991579994693703,1020.0,1.018994117264592,0.5323080106742167,4.191397525959256,-0.01680938384784149,0.053,0.999999999999996,-11.127179339648729,0.3079631325485856,62,2026-10-08 02:01:29.358243,97.5,0.441303110887215,0.5230769438870291,0.887038772321065
0188,cdot_cos,S,R-S,63,12,13294,-0.001500751181833417,-0.0032709472702736123,-0.05191078448091157,0.006297397684807716,1020.0,1.0274272183836006,0.5323157980323704,4.225125720640612,-0.003099195419484835,0.02,0.9999999999999961,1760.5699080274433,0.3129302707841947,63,2026-10-08 02:01:29.378243,97.5,0.011988713803296101,0.41427973265944495,0.42165505595043173
0188,cdot_cos,T,S-T,64,12,13589,-0.08166940426610368,0.026512308272717094,-0.08016865308427026,0.00040289013661784403,1020.0,1.0355653065709698,0.532316296245533,4.258530428890305,-0.003014994946327195,0.295,0.9999999999999953,169.00491491602045,0.317897441943748,64,2026-10-08 02:01:29.673243,97.5,0.9724591249674639,0.09532475033595592,0.027586739618200556
0188,cdot_cos,P,T-P,65,13,14130,0.02057570468115624,0.00019375439801468043,0.10224510894725992,0.9999531680527978,998.0,1.0836688210818146,0.5335526353271606,4.3016389324219295,-0.018301226770762152,0.541,0.9999999999999957,-12.36410953240394,0.32286464455132086,65,2026-10-08 02:01:30.214243,97.5,0.43376289389626116,0.05613779669076106,0.08891592331024921
0188,cdot_cos,Q,P-Q,66,13,14259,-0.001144354248641791,-0.0011855959201517454,-0.02172005892979803,0.10738778972439991,998.0,1.0963064025903733,0.5336853850333398,4.3356806381447095,-0.004945661715475299,0.129,0.9999999999999948,100.60711574947734,0.3278317959873025,66,2026-10-08 02:01:30.343244,97.5,0.06717455887292978,0.23607653203485954,0.09796574812836162
0188,cdot_cos,R,Q-R,67,13,14309,0.040923416025678436,0.08614181797195561,0.042067770274320224,0.9837232612634759,998.0,1.1445765663468084,0.5349012111581255,4.378355187743059,-0.019411597617175584,0.05,0.9999999999999947,-11.898030159740598,0.3327989374413748,67,2026-10-08 02:01:30.393243,97.5,0.47462925554421076,0.5746073460970758,0.9654032751287023
0188,cdot_cos,S,R-S,68,13,14331,-0.0009292708342644404,-0.002918627263517515,-0.041852686859942874,0.016615944923876576,998.0,1.1537671372000808,0.5349217440025814,4.411077780802736,-0.003790690205994385,0.022,0.9999999999999944,760.7765911207575,0.3377660753444842,68,2026-10-08 02:01:30.415244,97.5,0.016230534027755508,0.40114460727241397,0.41775322060329373
0188,cdot_cos,T,S-T,69,13,14588,-0.08971806635452707,0.019048971802403662,-0.08878879552026263,0.00017389107345244182,998.0,1.1622269290667946,0.5349219588846109,4.443395585311498,-0.003516073337577846,0.257,0.9999999999999941,1277.9889926171331,0.3427332461448854,69,2026-10-08 02:01:30.672243,97.5,0.924868899038063,0.11363598217340459,0.03291747808059825
0188,cdot_cos,P,T-P,70,14,15128,0.023868623950745703,0.0015486794505689425,0.11358669030527277,0.9999845007326694,1017.0,1.2121760320372108,0.5361574506224525,4.485815151059278,-0.02127598086760885,0.54,0.9999999999999941,-14.37476835017798,0.3477004587435322,70,2026-10-08 02:01:31.212243,97.5,0.4339874001385845,0.057323021743383704,0.09249833883410409
0188,cdot_cos,Q,P-Q,71,14,15258,-0.0012354605216838546,-0.0012633387959689998,-0.025104084472429556,0.07961069932035317,1017.0,1.224135792549649,0.536255791637995,4.518571711934038,-0.005226974647697165,0.13,0.9999999999999932,163.19748307839657,0.3526676119821771,71,2026-10-08 02:01:31.342243,97.5,0.046401673410265,0.23832350644601258,0.09199815778798606
0188,cdot_cos,R,Q-R,72,14,15312,0.04013025110971007,0.08646955031264245,0.04136571163139393,0.9825901658546373,1017.0,1.274140143713174,0.5374693250488116,4.560578550604875,-0.022402008952897852,0.054,0.9999999999999934,-14.152914251979883,0.35763475407513434,72,2026-10-08 02:01:31.396243,97.5,0.46455568632760974,0.5508293324167604,0.9260065030282423
0188,cdot_cos,S,R-S,73,14,15333,-0.002294238819101219,-0.00751554078985342,-0.042424489928811294,0.01572911387253729,1017.0,1.2836253604506591,0.5374887474867689,4.592305969928982,-0.0043505504363155634,0.021,0.9999999999999928,929.4125977538743,0.36260189125290565,73,2026-10-08 02:01:31.417243,97.5,0.015776472257908666,0.43445865342130907,0.4516769874992874
0188,cdot_cos,T,S-T,74,14,15627,-0.2041786891090195,-0.042946670532218234,-0.2018844502899183,2.8278930550291067e-09,1017.0,1.292387407156869,0.5374887474902608,4.623653131551739,-0.004047527406908339,0.294,0.9999999999999925,86779499.0667083,0.3675690724682532,74,2026-10-08 02:01:31.711244,97.5,0.9278676191339382,0.10286024920768187,0.02980287995309506
0188,cdot_cos,P,T-P,75,15,16145,0.024840232922288465,-0.0011906442479740656,0.22901892203130797,0.9999999997993272,1000.0,1.344107186984776,0.5387233195907315,4.665480909740071,-0.024443048489574543,0.518,0.9999999999999922,-16.520315885066218,0.37253629202191696,75,2026-10-08 02:01:32.229243,97.5,0.43413059632400364,0.0603607100072906,0.09984513480290924
0188,cdot_cos,Q,P-Q,76,15,16256,-0.006862200347841533,-0.004976365716993317,-0.03170243327013,0.04348055697555389,1000.0,1.3549211027244221,0.5387769888095938,4.696949014832601,-0.005231846173871105,0.111,0.9999999999999911,357.955690858768,0.3775034437041913,76,2026-10-08 02:01:32.340243,97.5,0.025426232919860976,0.28413241233588465,0.0974226643211358
0188,cdot_cos,R,Q-R,77,15,16313,0.04791675414101114,0.084755376751675,0.05477895448885267,0.9952315212575789,1000.0,1.4071845825233424,0.5400051815772229,4.738526360075656,-0.02586628286949752,0.057,0.9999999999999913,-16.800649897539518,0.38247058642334636,77,2026-10-08 02:01:32.397243,97.5,0.4503478906625251,0.5411337065366242,0.9169031543670231
0188,cdot_cos,S,R-S,78,15,16333,-0.0025514938151817742,-0.006352228263886877,-0.05046824795619291,0.007241535147849254,1000.0,1.4166103452695973,0.5400141164303793,4.769275664471103,-0.004769181138952148,0.02,0.9999999999999907,2361.2141532862975,0.38743772278777605,78,2026-10-08 02:01:32.417243,97.5,0.011990604663265448,0.46194192206114315,0.471288137312742
0188,cdot_cos,T,S-T,79,15,16626,-0.1738169371557207,-0.015115126551864434,-0.17126544334053892,5.5973874509965234e-08,1000.0,1.4256622594057882,0.5400141164994416,4.799750579122658,-0.004609993518793399,0.293,0.9999999999999902,2304985.4091706607,0.3924049093440942,79,2026-10-08 02:01:32.710243,97.5,0.9660584052510633,0.10661128721691078,0.03089390490167538
0188,cdot_cos,P,T-P,80,16,17145,0.01614649856995934,0.001220498256150631,0.18996343572568003,0.9999999909584479,1018.0,1.479084559578707,0.541247701115514,4.841066741772784,-0.027793915183581624,0.519,0.9999999999999903,-18.793945192510506,0.39737213980995667,80,2026-10-08 02:01:33.229243,97.5,0.43424925428593186,0.06109889812544498,0.10293314098828289
0188,cdot_cos,Q,P-Q,81,16,17295,-0.025159956537642632,-0.019144299640179174,-0.041306455107601975,0.01750894453876081,1018.0,1.48908291566,0.5412692954220419,4.871423807387297,-0.0053153607634189234,0.15,0.9999999999999893,1040.9481958168597,0.4023393004700541,81,2026-10-08 02:01:33.379244,97.5,0.014567241398139268,0.21352229703530162,0.06665570720862046
0188,cdot_cos,R,Q-R,82,16,17332,0.03917400424489399,0.08937166207836343,0.06433396078253663,0.9981161670714443,1018.0,1.5431412486892975,0.542500043277381,4.912546982102477,-0.02934670385625783,0.037,0.9999999999999892,-19.525805378079337,0.40730643922756826,82,2026-10-08 02:01:33.416243,97.5,0.44092650283511375,0.8691488872496069,1.461036027818849
0188,cdot_cos,S,R-S,83,16,17355,-0.0010619956137009087,-0.0036411466870462372,-0.0402359998585949,0.01939774729045448,1018.0,1.553399933316471,0.5425239569834852,4.94262862832557,-0.005687224326747281,0.023,0.9999999999999887,989.3690014588836,0.41227357547023236,83,2026-10-08 02:01:33.439244,97.5,0.015605839164628524,0.4274089738980068,0.4460297663988477
0188,cdot_cos,T,S-T,84,16,17644,-0.06714744945398245,0.01037378081268276,-0.06608545384028154,0.0015885691371169718,1018.0,1.5628020614886058,0.5425259153762065,4.972332300427361,-0.005245456587055286,0.289,0.9999999999999877,225.57668586172264,0.4172407669653408,84,2026-10-08 02:01:33.728243,97.5,0.9192298120506988,0.11152214158540238,0.032533315474514934
0188,cdot_cos,P,T-P,85,17,18163,0.017418535271993496,0.00024402106158702349,0.08456598472597594,0.9997375489570232,984.0,1.6178597311528335,0.543758131616402,5.013202431101089,-0.0313386843815141,0.519,0.9999999999999878,-21.175851237215046,0.42220800875325915,85,2026-10-08 02:01:34.247243,97.5,0.4349081603447763,0.06321514840273572,0.10608414193492824
0188,cdot_cos,Q,P-Q,86,17,18294,-0.020922920686092118,-0.013594548396857283,-0.038341455958085614,0.02324168175942313,984.0,1.6284193855306455,0.5437867716018023,5.042871243530164,-0.006134463930278534,0.131,0.9999999999999863,880.0360788909652,0.4271751676411913,86,2026-10-08 02:01:34.378243,97.5,0.016430327738219244,0.25263091036618923,0.08060804868558719
0188,cdot_cos,R,Q-R,87,17,18342,0.038481714897509484,0.08317616787267075,0.0594046355836016,0.9969572675661931,984.0,1.6840490296687751,0.5450150152988253,5.083561822023887,-0.032961585988574495,0.048,0.9999999999999866,-21.841856077355732,0.43214230855793795,87,2026-10-08 02:01:34.426244,97.5,0.4431307034352142,0.6899089419803254,1.1589509195443677
0188,cdot_cos,S,R-S,88,17,18361,-0.0012241398915928464,-0.003968145858853523,-0.03970585478910233,0.020405767780561735,984.0,1.6946506439607567,0.5450401493806473,5.112929998306811,-0.00640719143570784,0.019,0.9999999999999859,1056.5094337246728,0.4371094431873966,88,2026-10-08 02:01:34.445244,97.5,0.015851880069448054,0.5321378241599389,0.5579796995779783
0188,cdot_cos,T,S-T,89,17,18643,-0.08180755294239413,0.010097998731286934,-0.08058341305080129,0.0003869288328992533,984.0,1.7042702669868528,0.5450406259643181,5.141903166801716,-0.005848508805227709,0.282,0.999999999999985,1172.2655739986453,0.44207663912596773,89,2026-10-08 02:01:34.727243,97.5,0.908895044260245,0.11753110237749785,0.034112138390411675
0188,cdot_cos,P,T-P,90,18,19147,0.01971116452447658,0.0014157478031898434,0.1015187174668707,0.999949731163378,974.0,1.7609381857016655,0.5462719947955694,5.182391372205741,-0.03510877610769279,0.504,0.9999999999999848,-23.762390731241098,0.44704388939644674,90,2026-10-08 02:01:35.231244,97.5,0.4345616450938902,0.07108523598037396,0.11243634665637439
0188,cdot_cos,Q,P-Q,91,18,19312,-0.0016930959761723016,-0.0030404629752004662,-0.02140426050064888,0.11037509503865747,974.0,1.7759241848550698,0.5464078796706142,5.212399179081353,-0.009476126756026233,0.165,0.9999999999999839,188.6350437693504,0.45201105885329,91,2026-10-08 02:01:35.396243,97.5,0.06687225405096336,0.21245603194844617,0.09082423729335916
0188,cdot_cos,R,Q-R,92,18,19337,0.029122342915358115,0.08030735723500716,0.030815438891530416,0.9527772463627237,974.0,1.8310486762446527,0.5475805722667934,5.252208561345406,-0.0355321337019089,0.025,0.9999999999999838,-22.218957492166545,0.4569781938858608,92,2026-10-08 02:01:35.421243,97.5,0.4803173467066831,1.3440848416545759,2.204979655583319
0188,cdot_cos,S,R-S,93,18,19356,-0.0022127973186088176,-0.01094994604746344,-0.031335140233966934,0.04499452864966506,974.0,1.8431284269377985,0.5476359392548347,5.281209963581775,-0.007931268193581023,0.019,0.9999999999999825,498.50762132358096,0.461945327734679,93,2026-10-08 02:01:35.440243,97.5,0.030807208293769563,0.5783854661812573,0.6357763522708326
0188,cdot_cos,T,S-T,94,18,19660,-0.08429206188077125,0.0020548339892343024,-0.08207926456216243,0.00033443674898681806,974.0,1.8530273239595405,0.5476363507839143,5.309531634744697,-0.006538250863037036,0.304,0.9999999999999825,3384.9790929162373,0.46691253589224874,94,2026-10-08 02:01:35.744244,97.5,0.8081104176727623,0.11207441848687201,0.03256216125573013
0188,cdot_cos,P,T-P,95,19,20121,0.01998199999489425,0.0021676561062466677,0.1042740618756655,0.9999615733550568,977.0,1.9112696733778167,0.5488665237383838,5.349689364089264,-0.0391596773584343,0.461,0.9999999999999818,-26.5177562040149,0.47187978742193293,95,2026-10-08 02:01:36.205244,97.5,0.4347273871134833,0.07985734916868878,0.12633915275114146
0188,cdot_cos,Q,P-Q,96,19,20271,-0.0014623561455398657,-0.0021550468120294305,-0.021444356140434117,0.10999181320734965,977.0,1.9266557998930716,0.5490018017119223,5.379097383976416,-0.010546757359286842,0.15,0.9999999999999808,211.51203888358202,0.4768469561228275,96,2026-10-08 02:01:36.355244,97.5,0.06634021718855611,0.24126702449506432,0.1025741767683656
0188,cdot_cos,R,Q-R,97,19,20313,0.03125078355716272,0.08950192127235869,0.032713139702702586,0.9604384085475318,977.0,1.983649780726336,0.5501827266509605,5.41867170189385,-0.03978572799676079,0.042,0.9999999999999807,-24.75938111806439,0.4818140953724986,97,2026-10-08 02:01:36.397243,97.5,0.47954811890476906,0.8221368678225569,1.3569995436491538
0188,cdot_cos,S,R-S,98,19,20334,-0.0019023822396229757,-0.01072354614714662,-0.0331531657967857,0.03796326460507338,977.0,1.9957152967901663,0.5502293935620541,5.446993358583282,-0.00857114980836032,0.021,0.9999999999999797,668.8803149140109,0.48678122901883975,98,2026-10-08 02:01:36.418243,97.5,0.026204628351079298,0.5290931031980892,0.5745483839919203
0188,cdot_cos,T,S-T,99,19,20620,-0.1515678382094023,-0.04768194740482659,-0.14966545596977934,4.598422151281637e-07,977.0,2.0058716910606558,0.5502293941273166,5.474713609731424,-0.0072552304892875095,0.286,0.9999999999999787,2327979.1441880967,0.49174843950052166,99,2026-10-08 02:01:36.704243,97.5,0.834122286915833,0.12226061681938376,0.035511868078634344
0188,cdot_cos,P,T-P,100,20,21098,0.019419035308884187,0.000752548609233131,0.1709868735182865,0.9999999424850099,980.0,2.065648369610854,0.5514583382366235,5.514583660081275,-0.04342585657215,0.478,0.9999999999999785,-29.432279148368632,0.49671570835531964,100,2026-10-08 02:01:37.182244,97.5,0.4347742589853616,0.07916086983344843,0.12505581286652317
0188,cdot_cos,Q,P-Q,101,20,21230,-0.0018010602838115072,-0.0019762174411297405,-0.021220095592695692,0.1121506201931094,980.0,2.0815494826214325,0.551596126189947,5.543472764951013,-0.011765689520975746,0.132,0.9999999999999774,229.77456510174684,0.5016828746456096,101,2026-10-08 02:01:37.314244,97.5,0.06782060538115674,0.28416466770098797,0.1204629773528683
0188,cdot_cos,R,Q-R,102,20,21285,0.03518224261430268,0.09126109416769797,0.03698330289811419,0.9735546090928892,980.0,2.1406678418839147,0.5527918977575278,5.582924811325869,-0.044512176110194056,0.055,0.9999999999999771,-27.38523600746707,0.5066500178553811,102,2026-10-08 02:01:37.369244,97.5,0.47918199426749447,0.6449290948744175,1.0748792593178584
0188,cdot_cos,S,R-S,103,20,21307,-0.0016221697251269105,-0.0069037667560967655,-0.03680441233942959,0.026898177191899634,980.0,2.1524916830576184,0.5528249269269837,5.610560549867747,-0.009052016982253193,0.022,0.9999999999999761,1073.6012958265371,0.5116171510586638,103,2026-10-08 02:01:37.391244,97.5,0.019893215045146302,0.5057272138457253,0.5374473260774418
0188,cdot_cos,T,S-T,104,20,21579,-0.09750044987733608,0.0021082572813008868,-0.09587828015220917,8.71204042638486e-05,980.0,2.1629198392931266,0.5528250339042782,5.637731582905506,-0.008024897117025396,0.272,0.9999999999999748,9601.288482219341,0.5165843644408127,104,2026-10-08 02:01:37.663244,97.5,0.8798607213308028,0.13180080271506733,0.03833880968936834
0188,cdot_cos,P,T-P,105,21,22078,0.022786159006393504,0.0012414801238681385,0.12028660888372958,0.9999919348030908,959.0,2.224191319734615,0.5540526240253627,5.677350288352988,-0.047908897799326555,0.499,0.9999999999999747,-32.48967224260902,0.5215516536275047,105,2026-10-08 02:01:38.162244,97.5,0.4349619476158437,0.07416228633696557,0.12278853795889468
0188,cdot_cos,Q,P-Q,106,21,22209,-0.009147788009621951,-0.01061971650010015,-0.03193394701601546,0.04255137747624059,959.0,2.2369338010574182,0.5541048455832889,5.704858909153704,-0.010131357789761096,0.131,0.9999999999999732,723.408904479175,0.5265188221476969,106,2026-10-08 02:01:38.293243,97.5,0.024022277394906182,0.2824516027399029,0.09727084979239084
0188,cdot_cos,R,Q-R,107,21,22264,0.03558258533072058,0.09814561444823149,0.044730373340342536,0.9873979220046315,959.0,2.2981936396524696,0.5553163007462825,5.7442368474008685,-0.04948818351384646,0.055,0.9999999999999732,-32.487232649066335,0.5314859655380701,107,2026-10-08 02:01:38.348243,97.5,0.45145605838841507,0.6675128629498918,1.1138152471827518
0188,cdot_cos,S,R-S,108,21,22285,-0.0007477196518883074,-0.0035089460747463196,-0.03633030498260889,0.028134940315824412,959.0,2.3103602159819063,0.5553508104163031,5.7713752869823205,-0.009987631482937277,0.021,0.9999999999999716,1144.6227103104143,0.5364530975681078,108,2026-10-08 02:01:38.369244,97.5,0.019159686172202192,0.543773068674073,0.5793607775922257
0188,cdot_cos,T,S-T,109,21,22558,-0.12066463538167348,-0.006727580016373942,-0.11991691572978518,8.361207989981456e-06,959.0,2.3210321085367807,0.5553508206718889,5.798033156604663,-0.008804049426259187,0.273,0.9999999999999701,115408.5273014088,0.5414203183295031,109,2026-10-08 02:01:38.642244,97.5,0.8742087402610647,0.13441449394497676,0.039091181519686186
0188,cdot_cos,P,T-P,110,22,23037,0.015004839513036673,0.0010967308278619894,0.13566947489471015,0.9999982000930738,1159.0,2.3837505296758636,0.5565770462955603,5.837429695254843,-0.05253184813962259,0.479,0.9999999999999702,-35.66048357596774,0.5463876146275973,110,2026-10-08 02:01:39.121243,97.5,0.43500163533183095,0.0782809770154301,0.13093616104192693
0188,cdot_cos,Q,P-Q,111,22,23167,-0.021386190954244818,-0.013037298704388545,-0.03639103046728149,0.027973499006057195,1159.0,2.3960252845175627,0.5566113383397462,5.864264755795972,-0.01044483367393521,0.13,0.9999999999999685,1227.3113331331526,0.551354785442622,111,2026-10-08 02:01:39.251244,97.5,0.017783973301410953,0.29031448260493214,0.09442119108999263
0188,cdot_cos,R,Q-R,112,22,23226,0.04022952841501186,0.06659039890649139,0.06161571936925668,0.9975458867093869,1159.0,2.459232295153146,0.5578338509713092,5.90355899811301,-0.05460248628525832,0.059,0.9999999999999684,-36.120406015654595,0.5563219305852238,112,2026-10-08 02:01:39.310244,97.5,0.44543168403558747,0.6355294014053666,1.0713052650098869
0188,cdot_cos,S,R-S,113,22,23247,-0.0021872150841534843,-0.004756320767075906,-0.04241674349916534,0.015740811127271895,1159.0,2.471017753883396,0.5578531360775026,5.93006060907583,-0.010338235193230915,0.021,0.9999999999999667,2295.255761003973,0.5612890617677705,113,2026-10-08 02:01:39.331244,97.5,0.013820446929922235,0.5407019619196979,0.5612123204880924
0188,cdot_cos,T,S-T,114,22,23536,-0.08639850477285521,0.04664802894241157,-0.08421128968870173,0.000271683583400459,1159.0,2.4819417775537733,0.5578534689334532,5.956245571216609,-0.009626719449550146,0.289,0.9999999999999653,2137.6086034845484,0.5662562960130743,114,2026-10-08 02:01:39.620243,97.5,0.9287548044345061,0.12984619628331812,0.03779938986289748
0188,cdot_cos,P,T-P,115,23,24196,0.02040099168962413,0.0015942716811900171,0.10679949646247934,0.9999699600064427,1078.0,2.546068855335154,0.5590782379060584,5.9954466188913385,-0.05733453510612947,0.66,0.9999999999999653,-38.95250183804232,0.5712236773617452,115,2026-10-08 02:01:40.280244,97.5,0.4351364486187426,0.057619487936199525,0.0971622390626977
0188,cdot_cos,Q,P-Q,116,23,24326,-0.021503100412164723,-0.01635084123999729,-0.04190409210178885,0.01653424748961622,1078.0,2.5579995016295567,0.5590984831485626,6.021675452032806,-0.010828165925863484,0.13,0.999999999999963,2297.150511809754,0.5761908502096976,116,2026-10-08 02:01:40.410244,97.5,0.013637331706803707,0.29409149218645714,0.09177420226463753
0188,cdot_cos,R,Q-R,117,23,24383,0.03598558998229948,0.06935532327535962,0.057488690394464206,0.9963346059834426,1078.0,2.6225326433036327,0.5603180729078717,6.060767137219036,-0.05941210794990372,0.057,0.9999999999999626,-39.83629876620289,0.5811579942409331,117,2026-10-08 02:01:40.467244,97.5,0.4414260391133675,0.6734639387352862,1.1321603802469469
0188,cdot_cos,S,R-S,118,23,24406,-0.0041356739580044165,-0.012048803222639412,-0.0401212639403039,0.019611683783572597,1078.0,2.6347743906453793,0.5603420718506297,6.086873438948096,-0.01143719263622005,0.023,0.9999999999999606,1999.0428660773655,0.5861251247275561,118,2026-10-08 02:01:40.490243,97.5,0.01507615625943705,0.5084039884430088,0.5322498844237676
0188,cdot_cos,T,S-T,119,23,24714,-0.10145743489100469,0.02526142343786682,-0.09732176093300027,7.568372776024603e-05,1078.0,2.645919226772011,0.5603421644647445,6.11261187009141,-0.010458690755636314,0.308,0.9999999999999589,10565.364496201706,0.5910923744204519,119,2026-10-08 02:01:40.798244,97.5,0.9106845264748413,0.12443324545120005,0.03618453287867452
0188,cdot_cos,P,T-P,120,24,25274,0.01964017799595161,0.0005063057157919342,0.1210976128869563,0.9999925479746878,1076.0,2.7114252698433186,0.5615654853116477,6.151642212605132,-0.0623276306821795,0.56,0.9999999999999585,-42.400111187384795,0.5960597333501585,120,2026-10-08 02:01:41.358243,97.5,0.43509183044286026,0.07423978997179843,0.11697507691304905
0188,cdot_cos,Q,P-Q,121,24,25405,-0.0011342291035498539,-0.0010669270192529827,-0.020774407099501464,0.11655099253295806,1076.0,2.7290677915404253,0.5617080172407457,6.17878877171117,-0.017045808665030252,0.131,0.9999999999999559,317.69598786546754,0.6010269091929693,121,2026-10-08 02:01:41.489243,97.5,0.07019498775778739,0.3174091122646666,0.1346757381458533
0188,cdot_cos,R,Q-R,122,24,25453,0.04508201379867743,0.07733416888774261,0.046216242902227284,0.9890789677793037,1076.0,2.794586457256661,0.5629171643294918,6.217623893995595,-0.0642309443718724,0.048,0.9999999999999558,-39.02348700667525,0.6059940492661582,122,2026-10-08 02:01:41.537244,97.5,0.47968920414717475,0.8069683710191511,1.364972202421581
0188,cdot_cos,S,R-S,123,24,25473,-0.0026359931772567853,-0.006412587844774014,-0.047718006975934216,0.009447565806210331,1076.0,2.806536755158264,0.5629287103791546,6.243182006274195,-0.011879661861786451,0.02,0.9999999999999544,4534.129337650677,0.610961177247943,123,2026-10-08 02:01:41.557244,97.5,0.012194148885273376,0.5833970074300643,0.5975148950801312
0188,cdot_cos,T,S-T,124,24,25769,-0.17537331718571983,0.022598535302588273,-0.17273732400846303,4.849092648367005e-08,1076.0,2.817922337553864,0.5629287104384161,6.268509418426557,-0.011365439507266982,0.296,0.9999999999999517,8677176.380529284,0.6159284307794073,124,2026-10-08 02:01:41.853244,97.5,0.9557638760953062,0.1321955802093304,0.03846480539054036
0188,cdot_cos,P,T-P,125,25,26350,0.021580659582914764,-0.00048617789985098476,0.1969539767686346,0.9999999954266174,1041.0,2.8847965386421874,0.5641504414271697,6.307394301597448,-0.0676420319663989,0.581,0.9999999999999521,-46.06299830091219,0.6208958181280232,125,2026-10-08 02:01:42.434243,97.5,0.43518821239969896,0.06828004598646605,0.11510189516062591
0188,cdot_cos,Q,P-Q,126,25,26463,-0.020001226577872157,-0.013620521937808005,-0.041581886160786924,0.017052918872911875,1041.0,2.8972637509901373,0.5641712687976909,6.332807458699699,-0.012785665462773913,0.113,0.9999999999999489,2633.8594422186657,0.6258629881480889,126,2026-10-08 02:01:42.547244,97.5,0.013698643628662709,0.35328453203721216,0.1103293128137159
0188,cdot_cos,R,Q-R,127,25,26520,0.047679509415351075,0.07918572256213355,0.06768073599322323,0.998639948532929,1041.0,2.9646388428825974,0.5653905480441437,6.371628567241977,-0.07000518551621711,0.057,0.9999999999999487,-46.928970717666765,0.6308301322492988,127,2026-10-08 02:01:42.604243,97.5,0.4415954153798212,0.6970826868845268,1.182019156008071
0188,cdot_cos,S,R-S,128,25,26541,-0.0019019599440529388,-0.0042820922862183385,-0.049581469359404017,0.007890349053470181,1041.0,2.9767311772949734,0.5654001785555198,6.396773489515099,-0.0127346430759719,0.021,0.9999999999999463,5946.781038242442,0.635797259398654,128,2026-10-08 02:01:42.625243,97.5,0.01113987798459492,0.5651079921988242,0.5758254482083811
0188,cdot_cos,T,S-T,129,25,26832,-0.07707595486227867,0.026405619280332034,-0.07517399491822573,0.0006554947825818176,1041.0,2.988373378554948,0.5654009786129562,6.421721355912003,-0.012309573510685958,0.291,0.999999999999944,531.2988117356308,0.6407645191870129,129,2026-10-08 02:01:42.916243,97.5,0.9660577884965937,0.13717112476266288,0.04000756446726673
0188,cdot_cos,P,T-P,130,26,27391,0.022876168578881643,0.0008714436912721927,0.0999521234411603,0.9999414360126839,1040.0,3.056564771906843,0.5666210477892495,6.460474650963613,-0.07301741862012606,0.559,0.9999999999999435,-49.75770742268859,0.6457319148003641,130,2026-10-08 02:01:43.475244,97.5,0.4354323073542923,0.0723613289688758,0.12198818130929368
0188,cdot_cos,Q,P-Q,131,26,27522,-0.01864801255550327,-0.014837913187771288,-0.04152418113438491,0.01714748326502195,1040.0,3.069273344342151,0.5666419631315103,6.48551446843444,-0.013789941223919277,0.131,0.9999999999999404,2831.771847561552,0.6506990961318433,131,2026-10-08 02:01:43.606244,97.5,0.013636888300709077,0.3102877180372851,0.09701200332296171
0188,cdot_cos,R,Q-R,132,26,27571,0.04074453460188421,0.07706655937401699,0.05939254715738748,0.9969536901531317,1040.0,3.137860154032612,0.56785756937687,6.524187539789999,-0.07536028763999758,0.049,0.9999999999999405,-50.64990958306246,0.6556662361211705,132,2026-10-08 02:01:43.655244,97.5,0.4417491218566244,0.830221712372393,1.3997308100094024
0188,cdot_cos,S,R-S,133,26,27593,-0.0015593482996977253,-0.0041520681226329065,-0.042303882901581935,0.015912206689634178,1040.0,3.1506350721546457,0.5678769648753602,6.549077422432492,-0.014220375790711764,0.022,0.9999999999999378,3152.273290643646,0.660633362537702,133,2026-10-08 02:01:43.677243,97.5,0.013575911925384111,0.5593920499895902,0.5806780964560817
0188,cdot_cos,T,S-T,134,26,27871,-0.08550324857417334,0.021117398094324176,-0.08394390027447561,0.0002788576355316773,1040.0,3.162473404232154,0.5678773047750003,6.573655839322853,-0.01322939250750916,0.278,0.9999999999999353,2915.5173065484287,0.6656006244050331,134,2026-10-08 02:01:43.955244,97.5,0.9278291267505424,0.14627389888186712,0.042583928336360335
0188,cdot_cos,P,T-P,135,27,28431,0.02308852409362257,0.001566467219461659,0.1085917726677959,0.9999747762124733,1058.0,3.231963359932964,0.5690957608547947,6.612296018381429,-0.07860225002539085,0.56,0.9999999999999348,-53.65220675735074,0.670568039829868,135,2026-10-08 02:01:44.515244,97.5,0.43531214249960126,0.07596637343218827,0.1240892066085892
0188,cdot_cos,Q,P-Q,136,27,28561,-0.00461522611012339,-0.003935406292056023,-0.02770375020374596,0.0629075564940443,1058.0,3.2475557424762047,0.5691723850785866,6.6376344595962165,-0.017870929782919077,0.13,0.9999999999999317,792.5864333380234,0.6755352236201608,136,2026-10-08 02:01:44.645243,97.5,0.033429043462191395,0.32649347612180046,0.11994140417877625
0188,cdot_cos,R,Q-R,137,27,28616,0.03972521356101704,0.0778864725105632,0.04434043967114043,0.9869159747965436,1058.0,3.316851663724632,0.5703740571181368,6.676058051711683,-0.08040776478520623,0.055,0.9999999999999313,-52.041516274018825,0.6805023668120895,137,2026-10-08 02:01:44.700243,97.5,0.4594403233973173,0.7491879142294635,1.2599258408804948
0188,cdot_cos,S,R-S,138,27,28637,-0.0014815605750675117,-0.004112918592134493,-0.041206774136084555,0.017676919029759493,1058.0,3.3299664130414457,0.5703955730760233,6.7006316819709815,-0.015408601445403073,0.021,0.9999999999999287,3020.974649736329,0.6854694914387731,138,2026-10-08 02:01:44.721244,97.5,0.014722640737660466,0.59900190716624,0.6245118722292275
0188,cdot_cos,T,S-T,139,27,28930,-0.15042137028293065,0.004331362215886441,-0.14893980970786314,4.935548002960414e-07,1058.0,3.342009743825614,0.5703955736767636,6.724865513635814,-0.014203341784535025,0.293,0.9999999999999257,2006290.5183194017,0.6904367708009408,139,2026-10-08 02:01:45.014244,97.5,0.9186432085445299,0.14132343002285994,0.04110351803470411
0188,cdot_cos,P,T-P,140,28,29489,0.01785038076086904,-4.539885180040625e-05,0.16827175104379968,0.9999999250538366,1039.0,3.4127819430348416,0.5716123161618297,6.763409045380969,-0.08444184865232404,0.559,0.9999999999999262,-57.72668229298641,0.6954042059569211,140,2026-10-08 02:01:45.573244,97.5,0.4352662522442256,0.08080027231100234,0.12660500752992418
0188,cdot_cos,Q,P-Q,141,28,29619,-0.0020715605076946316,-0.0020609486176173687,-0.019921941268563673,0.12538560446976527,1039.0,3.4323444482693146,0.5717648174047167,6.789332010205766,-0.02365104046347695,0.13,0.9999999999999221,398.62500159349906,0.7003713928634749,141,2026-10-08 02:01:45.703244,97.5,0.0765108448955275,0.346986755121324,0.1504808094959462
0188,cdot_cos,R,Q-R,142,28,29661,0.04352457458082179,0.07391747638830139,0.04559613508851642,0.9884061988166855,1039.0,3.502998499366386,0.5729664948413948,6.82768476730392,-0.08648498469411199,0.042,0.9999999999999222,-52.28852794667809,0.7053385283427148,142,2026-10-08 02:01:45.745243,97.5,0.4835840725391929,0.9953600364572294,1.6822393118350294
0188,cdot_cos,S,R-S,143,28,29680,-0.002777639529194695,-0.006475473037851346,-0.04630221411001648,0.01083085995284006,1039.0,3.515954691331722,0.5729796579646481,6.851841139930055,-0.01605025846155549,0.019,0.9999999999999196,5350.912916128012,0.7103056504728967,143,2026-10-08 02:01:45.764243,97.5,0.012420762709086932,0.6639033921185606,0.6819048402808442
0188,cdot_cos,T,S-T,144,28,29968,-0.15372597324906503,0.006678119252763527,-0.15094833371987035,4.0577665341118304e-07,1039.0,3.528226828266891,0.5729796584578009,6.875756890105652,-0.015257488184540584,0.288,0.9999999999999162,1607555.2487512664,0.7152729370307966,144,2026-10-08 02:01:46.052243,97.5,0.9493673888830394,0.14637875479778933,0.042611586580448835
0188,cdot_cos,P,T-P,145,29,30528,0.021857159291209204,1.1010063679408168e-05,0.17558313254027424,0.9999999632583725,1038.0,3.6002688540952485,0.5741945457533062,6.91421895268334,-0.09057297129355649,0.56,0.9999999999999161,-61.99380254255431,0.7202403944933701,145,2026-10-08 02:01:46.612243,97.5,0.4353761983283865,0.08053370013415549,0.12864647469349533
0188,cdot_cos,Q,P-Q,146,29,30678,-0.0011420557427524575,-0.0014284117654399723,-0.02299921503396166,0.0960050078237067,1038.0,3.6184245724171453,0.574311134150308,6.939428932754388,-0.023112988169620822,0.15,0.9999999999999122,578.6166107326959,0.7252075973498797,146,2026-10-08 02:01:46.762244,97.5,0.05400360239783755,0.3002251599640834,0.1210381221459785
0188,cdot_cos,R,Q-R,147,29,30700,0.04469281920751466,0.07673772249022345,0.04583487495026712,0.9886699302934122,1038.0,3.6903364020844736,0.5755112911319481,6.977704688278748,-0.09262081793726833,0.022,0.9999999999999118,-57.915615066172016,0.7301747194552861,147,2026-10-08 02:01:46.784243,97.5,0.4721512984221767,1.9329910630059894,3.268719530333102
0188,cdot_cos,S,R-S,148,29,30720,-0.0023575975928397464,-0.0055080686283661435,-0.047050416800354405,0.01007656034128767,1038.0,3.703476179189409,0.5755235186185169,7.001546900414784,-0.01712054898166618,0.02,0.9999999999999086,6174.635198385621,0.7351418408372576,148,2026-10-08 02:01:46.804243,97.5,0.012156138293344245,0.6409505825568318,0.6569888552467651
0188,cdot_cos,T,S-T,149,29,31007,-0.09452520376646606,0.028313977287747028,-0.0921676061736263,0.00012509129827659561,1038.0,3.715974425386747,0.5755236704110198,7.025162801960357,-0.016341128083342323,0.287,0.9999999999999054,5134.778618382373,0.7401091369388176,149,2026-10-08 02:01:47.091244,97.5,0.9534227405201073,0.14944438373719063,0.04354789615797203
0188,cdot_cos,P,T-P,150,30,31566,0.018610285997405652,-0.00034206044503045947,0.11313548976387171,0.999983803679132,1019.0,3.7892572554545563,0.5767366469165022,7.063553653446711,-0.0968498771412142,0.559,0.9999999999999051,-66.37288413583623,0.7450766158277624,150,2026-10-08 02:01:47.650244,97.5,0.43549427383698164,0.07800485040064865,0.13109629708016
0188,cdot_cos,Q,P-Q,151,30,31677,-0.02051560923733026,-0.013180040064376349,-0.03912589523473591,0.021567277666073293,1019.0,3.803183848134672,0.576762797808674,7.087381143602894,-0.01861881002893872,0.111,0.9999999999999006,2991.5257421511583,0.7500437965346033,151,2026-10-08 02:01:47.761244,97.5,0.014969773923972664,0.39480663620791195,0.12546479891996176
0188,cdot_cos,R,Q-R,152,30,31734,0.04624072438094433,0.07858104305434857,0.06675633361827459,0.9985118652232956,1019.0,3.8769043286927127,0.5779730465352383,7.125731522891905,-0.09962002779086696,0.057,0.9999999999999004,-66.92939722554307,0.7550109414367693,152,2026-10-08 02:01:47.818244,97.5,0.4434803706702076,0.7627622339113529,1.2933417641761527
0188,cdot_cos,S,R-S,153,30,31756,-0.0029728657939502826,-0.007002240790755914,-0.049213590174894614,0.008176142695371603,1019.0,3.8901387428005663,0.5779829526053257,7.149255534960054,-0.018086311205518856,0.022,0.9999999999998969,8230.68238621963,0.7599780627949327,153,2026-10-08 02:01:47.840243,97.5,0.01102009787614423,0.5892776174585279,0.601564277629706
0188,cdot_cos,T,S-T,154,30,32045,-0.11093317903779591,0.025408975538585215,-0.10796031324384563,2.6825507059142515e-05,1019.0,3.902832543860888,0.577982985106533,7.172581462268158,-0.01740541256492066,0.289,0.9999999999998931,20949.949172975095,0.7649453703621982,154,2026-10-08 02:01:48.129244,97.5,0.9616353667012497,0.15083961675149177,0.04392318705993667
0188,cdot_cos,P,T-P,155,31,32585,0.025934127797703935,0.0011515341142295593,0.13686730683549986,0.9999983984906313,1038.0,3.9773240412829285,0.5791940900287297,7.21090955312617,-0.10320292903553102,0.54,0.9999999999998932,-70.84234808904338,0.7699128577471195,155,2026-10-08 02:01:48.669244,97.5,0.4354620236499783,0.08433604016397633,0.1379472174482232
0188,cdot_cos,Q,P-Q,156,31,32715,-0.002114249152661226,-0.0020793550682027344,-0.02804837695036516,0.060955615997391466,1038.0,3.9939154672379824,0.5792678831354592,7.2350549067781875,-0.02325087083079533,0.13,0.9999999999998888,1083.4624228223547,0.7748800547161001,156,2026-10-08 02:01:48.799244,97.5,0.03210737878118712,0.3487068053798768,0.12762635350041474
0188,cdot_cos,R,Q-R,157,31,32768,0.04066279522119897,0.08133479942475468,0.04277704437386019,0.9847942909723651,1038.0,4.0679878106816965,0.5804595858889281,7.273139145662206,-0.10490205004420622,0.053,0.9999999999998885,-68.51639721040614,0.7798471968764128,157,2026-10-08 02:01:48.852243,97.5,0.45916007924512325,0.8299398358673509,1.3975913857304538
0188,cdot_cos,S,R-S,158,31,32789,-0.0019284716765007113,-0.005713669871308278,-0.04259126689769968,0.015479341966096658,1038.0,4.081889089839922,0.5804783100398332,7.2965006015255485,-0.019901727293265746,0.021,0.9999999999998848,4539.608935101353,0.7848143161380854,158,2026-10-08 02:01:48.873244,97.5,0.013967776438161331,0.6380549375658414,0.6619656742011972
0188,cdot_cos,T,S-T,159,31,33064,-0.1452421059507488,-0.007990065422404151,-0.1433136342742481,8.542173255573895e-07,1038.0,4.094786118059462,0.5804783110731068,7.319554381176502,-0.018524707375535455,0.275,0.9999999999998805,1332676.9863291532,0.7897816240113379,159,2026-10-08 02:01:49.148243,97.5,0.9283613528095934,0.1610610980596712,0.04689828443469162
0188,cdot_cos,P,T-P,160,32,33623,0.021946630716003387,0.00015786971259598145,0.16718873666675219,0.9999999167070486,920.0,4.170472693772741,0.5816874395468412,7.3578302066509185,-0.10980204315577063,0.559,0.9999999999998804,-75.49018798500484,0.7947491478946783,160,2026-10-08 02:01:49.707244,97.5,0.43548716394151193,0.08031317171701757,0.13539637873574054
0188,cdot_cos,Q,P-Q,161,32,33754,-0.019481102950255257,-0.017457344888740005,-0.04142773366625864,0.017306688523023278,920.0,4.1845762440390875,0.5817083569637953,7.381053109038394,-0.02068266417503462,0.131,0.9999999999998755,4260.534614590824,0.7997163490585871,161,2026-10-08 02:01:49.838243,97.5,0.01344843390741921,0.3436980002631008,0.10766068905608157
0188,cdot_cos,R,Q-R,162,32,33800,0.03716144165770753,0.09769479224748459,0.05664254460796279,0.9960206444445387,920.0,4.260521569841673,0.5829116820084695,7.4192559897654755,-0.1124814826841245,0.046,0.9999999999998753,-76.2876322697507,0.8046834857390124,162,2026-10-08 02:01:49.884243,97.5,0.44214215520333683,0.984758802530239,1.6509853435344723
0188,cdot_cos,S,R-S,163,32,33819,-0.0008360335257623062,-0.0036609896645012296,-0.03799747518346984,0.024015345762464644,920.0,4.275174053871869,0.5829406836024205,7.442489964897512,-0.021933953040974227,0.019,0.999999999999871,3122.1570026942404,0.8096506019812154,163,2026-10-08 02:01:49.903244,97.5,0.016112012226843136,0.7301894230630037,0.7711833700103292
0188,cdot_cos,T,S-T,164,32,34103,-0.11709179344504532,-0.008155103280642725,-0.11625575991928301,1.194797750709193e-05,920.0,4.288268767918067,0.5829406980309849,7.465284959563811,-0.01966577895196974,0.284,0.9999999999998668,157200.26037130944,0.8146179271366376,164,2026-10-08 02:01:50.187244,97.5,0.8910666132803187,0.15836764291885083,0.04610814804999256
0188,cdot_cos,P,T-P,165,33,34543,0.009729603366949417,0.0005745153479644915,0.12682139681199472,0.9999957350941575,1078.0,4.365126875049777,0.5841478087218497,7.503516042563607,-0.11654200990105376,0.44,0.9999999999998668,-80.25463752597749,0.8195853793145497,165,2026-10-08 02:01:50.627244,97.5,0.4355020046559864,0.11512859857764068,0.1746775162084304
0188,cdot_cos,Q,P-Q,166,33,34653,-0.006121210633829946,-0.004051446688275622,-0.015850814000779364,0.175743769022337,1078.0,4.389581934666391,0.584359847986205,7.528951626345599,-0.03751049708045187,0.11,0.9999999999998627,372.72112342443035,0.8245525678136907,166,2026-10-08 02:01:50.737243,97.5,0.12161229118227242,0.46204826947746436,0.2223187237874039
0188,cdot_cos,R,Q-R,167,33,34702,0.053253555085952954,0.07037888474740116,0.0593747657197829,0.9969484203454022,1078.0,4.466777494334819,0.5855620980574483,7.567131645323245,-0.1196808015246853,0.049,0.9999999999998619,-68.34709883548366,0.8295197074421286,167,2026-10-08 02:01:50.786243,97.5,0.5032949857505321,0.9271811218164019,1.5754195850699535
0188,cdot_cos,S,R-S,168,33,34724,-0.0012745127030659657,-0.00220921589281126,-0.05452806778901892,0.0048859840580597995,1078.0,4.4804456846043985,0.5855679877158024,7.58983025130363,-0.021407918838922572,0.022,0.9999999999998574,16685.667788667008,0.8344868252923195,168,2026-10-08 02:01:50.808243,97.5,0.010147863201584612,0.6136964519464722,0.6212813758899847
0188,cdot_cos,T,S-T,169,33,35002,-0.08434796747395287,0.04890644676766503,-0.0830734547708869,0.0003035496298258632,1078.0,4.493780138220464,0.5855683536195075,7.6123902684393405,-0.020948226972821737,0.278,0.9999999999998538,1256.319243772019,0.8394541578335627,169,2026-10-08 02:01:51.086244,97.5,0.9782948324776573,0.16433830779827616,0.04796566048944284
0188,cdot_cos,P,T-P,170,34,35621,0.02357911522598292,0.0007239558173331608,0.1079270826999358,0.9999730874402782,999.0,4.57181778374024,0.5867732228642735,7.650588532190127,-0.12373821966799493,0.619,0.9999999999998531,-85.31215577267263,0.8444217824183835,170,2026-10-08 02:01:51.705244,97.5,0.43574185692208706,0.07788274689331515,0.1260705097250023
0188,cdot_cos,Q,P-Q,171,34,35751,-0.002002051463625584,-0.0021190766565920673,-0.025581166689608505,0.07626833681669543,999.0,4.590198978874388,0.5868650762717499,7.674258522357975,-0.029453677947195226,0.13,0.9999999999998479,1026.4675455290794,0.8493889907970058,171,2026-10-08 02:01:51.835244,97.5,0.040716874228871026,0.3671935956001178,0.14139380872421314
0188,cdot_cos,R,Q-R,172,34,35801,0.03674647027242638,0.07724904109025307,0.03874852173605197,0.9776424703439138,999.0,4.667288118596271,0.5880419578332509,7.712099835804893,-0.12470737025717049,0.05,0.999999999999847,-80.93736483430862,0.8543561307635738,172,2026-10-08 02:01:51.885243,97.5,0.46588443712456923,0.9206100864798117,1.5417827944376583
0188,cdot_cos,S,R-S,173,34,35823,-0.0022699549953082137,-0.0074906501124943434,-0.0390164252677346,0.021793661363614658,999.0,4.682259987522369,0.5880681815287794,7.734831158013059,-0.024460436157102642,0.022,0.9999999999998425,3822.761517005095,0.8593232467729068,173,2026-10-08 02:01:51.907244,97.5,0.016600378431998405,0.6474277938441101,0.6805394966408297
0188,cdot_cos,T,S-T,174,34,36100,-0.10924441604504831,0.011551826026678213,-0.1069744610497401,2.9531901129406584e-05,999.0,4.6957749415254115,0.5880682170633406,7.757154412175326,-0.02214746228553146,0.277,0.9999999999998382,65090.8241049093,0.8642905892162468,174,2026-10-08 02:01:52.184243,97.5,0.9008332013005517,0.1673254927391701,0.04879044766441368
0188,cdot_cos,P,T-P,175,35,36620,0.02038021739642488,4.610809951347892e-05,0.12962463344147318,0.9999967550317934,999.0,4.774958310499869,0.5892709447365884,7.795323789438247,-0.1309280015409134,0.52,0.9999999999998378,-90.44486268586024,0.8692581526004944,175,2026-10-08 02:01:52.704243,97.5,0.4356820990087796,0.09642966298493576,0.1522757095662647
0188,cdot_cos,Q,P-Q,176,35,36750,-0.0007008423414950878,-0.0007654917175792026,-0.02108105973791997,0.1135075429422047,999.0,4.796061791029745,0.5894073967165241,7.819374757070551,-0.035260100465480296,0.13,0.9999999999998325,701.1103915127989,0.8742253650438939,176,2026-10-08 02:01:52.834244,97.5,0.06632385963765242,0.38449825711819147,0.16233446561442721
0188,cdot_cos,R,Q-R,177,35,36797,0.04414726993149045,0.0890210538017649,0.04484811227298554,0.987539968717493,999.0,4.874927857350599,0.5905939756244516,7.857343846466182,-0.13302977039921632,0.047,0.9999999999998319,-82.39626482532198,0.8791925023102474,177,2026-10-08 02:01:52.881243,97.5,0.47953145282631077,0.9933907428093217,1.6780014110820052
0188,cdot_cos,S,R-S,178,35,36818,-0.0015471132330638362,-0.004775007311162637,-0.045694383164554285,0.011484541597383201,999.0,4.889440520853821,0.5906077687025999,7.8796924929924685,-0.024715794426307697,0.021,0.9999999999998267,7852.777661976526,0.8841596160505616,178,2026-10-08 02:01:52.902244,97.5,0.012495597467838756,0.6720900918082523,0.6910792144391429
0188,cdot_cos,T,S-T,179,35,37119,-0.3227198931157752,-0.06820623579228137,-0.32117277988271137,2.5139249662248427e-14,999.0,4.903155641206546,0.5906077687026,7.9017954540617295,-0.02342506278817078,0.301,0.9999999999998214,,0.8891269927943727,179,2026-10-08 02:01:53.203244,97.5,0.9463900727511124,0.1562017454972346,0.045565183896095006
0188,cdot_cos,P,T-P,180,36,37619,0.007658377558011085,-0.0002514836263642685,0.3303782706737863,0.9999999999999898,1018.0,4.983473971643156,0.5918082322560259,7.9399427329338526,-0.13837342177694578,0.5,0.9999999999998215,-95.75331017817155,0.8940945614831681,180,2026-10-08 02:01:53.703244,97.5,0.4357392539591978,0.09506717943844656,0.16063666087322126
0188,cdot_cos,Q,P-Q,181,36,37749,-0.03610112166293472,-0.0229045168583697,-0.043759499220945804,0.013835967311137193,1018.0,4.998222820644992,0.5918248341855296,7.962191043077452,-0.025653510617291563,0.13,0.999999999999815,6789.566907540754,0.8990617779714408,181,2026-10-08 02:01:53.833244,97.5,0.012352002720803246,0.3673147064448246,0.11345268462950714
0188,cdot_cos,R,Q-R,182,36,37798,0.038658949418040066,0.076186086870037,0.0747600710809748,0.9993175283941976,1018.0,5.078975795318811,0.5930233699749221,8.000324898202066,-0.141672032445755,0.049,0.9999999999998148,-96.80021477478326,0.904028916981397,182,2026-10-08 02:01:53.882244,97.5,0.4409061428806729,1.0040300197354914,1.6480198913024178
0188,cdot_cos,S,R-S,183,36,37820,0.009526924412130872,-0.061048585117899054,-0.029132025005909196,0.05518111707413201,1018.0,5.09661776257907,0.5930895195755613,8.023168559114636,-0.03125146784718212,0.022,0.9999999999998092,1669.2551962755774,0.9089960302167054,183,2026-10-08 02:01:53.904243,97.5,0.02920859965007458,0.7210120293952698,0.8019076027390766
0188,cdot_cos,T,S-T,184,36,38138,-0.05142510196221472,0.007469991375828669,-0.06095202637434559,0.0026177404832942864,1018.0,5.1107003246122025,0.5930926575667792,8.045102478108804,-0.02502395430825645,0.318,0.9999999999998035,1984.5541642875928,0.9139634367627381,184,2026-10-08 02:01:54.222244,97.5,0.7796874936164648,0.150081110331115,0.04428478626771127
0188,cdot_cos,P,T-P,185,37,38637,0.020524027076371108,0.001139692008997107,0.07194912903858583,0.9991025363572261,1019.0,5.192069348749659,0.5942897651617969,8.083217034218636,-0.14580479556866913,0.499,0.9999999999998036,-100.89388937393652,0.918931027765074,185,2026-10-08 02:01:54.721244,97.5,0.4367590603239364,0.09697430596753605,0.16306417662817024
0188,cdot_cos,Q,P-Q,186,37,38767,-0.019070138745962036,-0.014277133206319636,-0.03959416582233315,0.02062458617895033,1019.0,5.2074806819678034,0.5943144654372988,8.105371101270768,-0.02787437385037802,0.13,0.9999999999997965,4774.457746797738,0.92389824832792,186,2026-10-08 02:01:54.851244,97.5,0.014541003253059476,0.37344339672118987,0.11854871706264639
0188,cdot_cos,R,Q-R,187,37,38822,0.03966327713708155,0.08663297475655285,0.05873341588304359,0.9967521472298215,1019.0,5.289164631897169,0.5955076177956888,8.143446656313186,-0.14898049506859834,0.055,0.9999999999997964,-101.50096956740325,0.9288653933597834,187,2026-10-08 02:01:54.906244,97.5,0.44357021353266984,0.8822143347638332,1.4851627259884608
0188,cdot_cos,S,R-S,188,37,38844,-0.0012659497029227573,-0.004123127260372773,-0.04092922684000431,0.018153000686672683,1019.0,5.304524258791825,0.5955293372488548,8.165489348773583,-0.02827239544266636,0.022,0.9999999999997907,5557.60307147142,0.9338325049916107,188,2026-10-08 02:01:54.928244,97.5,0.013989217503239821,0.6695224823423915,0.698164858848014
0188,cdot_cos,T,S-T,189,37,39096,-0.09148755629543211,0.016735199101280848,-0.09022160659250934,0.00015122256336190263,1019.0,5.318623621120234,0.595529518179981,8.18717975364626,-0.02602479796756997,0.252,0.9999999999997838,12422.39255563919,0.9387998565928949,189,2026-10-08 02:01:55.180243,97.5,0.9172605758899354,0.19170235841948716,0.05594985050955919
0188,cdot_cos,P,T-P,190,38,39656,0.02524774000624796,0.0013598117413995546,0.11673529630168007,0.9999885977835006,1018.0,5.401142247435247,0.5967253904348371,8.225294396160443,-0.15355260075092175,0.56,0.9999999999997846,-106.63998789628309,0.9437675356276961,190,2026-10-08 02:01:55.740243,97.5,0.4358245954852616,0.0905899912266504,0.1473546898482368
0188,cdot_cos,Q,P-Q,191,38,39786,-0.0014175912670841566,-0.001437670143399128,-0.026665331273332118,0.06914680031870427,1018.0,5.4200844112940825,0.5968080398125254,8.248053869859183,-0.03557927857694972,0.13,0.9999999999997775,1427.3951658640349,0.9487347603065245,191,2026-10-08 02:01:55.870244,97.5,0.0363054518698735,0.38753641669583194,0.14570895276027573
0188,cdot_cos,R,Q-R,192,38,39840,0.04011112417341397,0.08680426328325458,0.041528715440498125,0.9828599659667876,1018.0,5.501901715776163,0.5979822305228107,8.285887527953392,-0.15496185366783202,0.054,0.9999999999997768,-101.67221904001448,0.9537019044179839,192,2026-10-08 02:01:55.924243,97.5,0.4628280105535003,0.9014190316665582,1.5151352681866752
0188,cdot_cos,S,R-S,193,38,39863,-0.0010369367895637605,-0.0033627718856012257,-0.04114806096297773,0.0177765973424363,1018.0,5.517437666714071,0.5980034573429854,8.307732229784053,-0.02968683856403623,0.023,0.9999999999997704,5901.732528603663,0.9586690155397546,193,2026-10-08 02:01:55.947244,97.5,0.014700349628320017,0.648072929925945,0.675476127735123
0188,cdot_cos,T,S-T,194,38,40135,-0.15394994098303638,-0.010311565048673817,-0.15291300419347262,3.350392178035914e-07,1018.0,5.531713070552756,0.5980034577430483,8.329227043033356,-0.027351922506027804,0.272,0.9999999999997641,5836372.788041303,0.9636363998851946,194,2026-10-08 02:01:56.219244,97.5,0.9181764442952888,0.1799203645678041,0.05248310234810897
0188,cdot_cos,P,T-P,195,39,40674,0.02339295810944417,0.0003512067349306336,0.17734289909248055,0.9999999690512335,1019.0,5.615314345038956,0.5991969518517278,8.367332826626988,-0.1614421984866555,0.539,0.999999999999764,-112.35101623499774,0.9686040831634884,195,2026-10-08 02:01:56.758244,97.5,0.435797490977131,0.09289576739723632,0.1551044053547306
0188,cdot_cos,Q,P-Q,196,39,40805,-0.011891673866242894,-0.008768874632370844,-0.03528463197568706,0.031060910549087495,1019.0,5.631854707806977,0.5992340041098791,8.389278955951609,-0.03222701656081218,0.131,0.9999999999997562,3487.3767044952865,0.9735713131389304,196,2026-10-08 02:01:56.889244,97.5,0.018141924318337985,0.38195737240751043,0.12626231120626683
0188,cdot_cos,R,Q-R,197,39,40854,0.03800689270953022,0.07701940398024178,0.049898566575773115,0.9923480261251916,1019.0,5.715387176609724,0.6004171671740415,8.427259453732216,-0.16404010283758028,0.049,0.9999999999997558,-111.40737085981534,0.9785384516173533,197,2026-10-08 02:01:56.938244,97.5,0.4477403272573679,1.014816338469854,1.7047442612805466
0188,cdot_cos,S,R-S,198,39,40876,-0.001657919544088571,-0.004984274304953559,-0.03966481225361879,0.020485911899932173,1019.0,5.731306708977023,0.6004415799586792,8.448964879690385,-0.03153595286102881,0.022,0.9999999999997491,5427.654073179131,0.9835055600072727,198,2026-10-08 02:01:56.960243,97.5,0.01497032585955118,0.6903391768984246,0.7236151076044968
0188,cdot_cos,T,S-T,199,39,41154,-0.1203854828472417,0.025602631295554172,-0.11872756330315312,9.389234308723986e-06,1019.0,5.745762100393255,0.6004415911475885,8.47027392768271,-0.028711535984055868,0.278,0.9999999999997422,252430.04366775573,0.9884729632737951,199,2026-10-08 02:01:57.238244,97.5,0.906311514449445,0.17827354507762228,0.05199781084975451
0188,cdot_cos,P,T-P,200,40,41693,0.023124373366869205,-0.00020765190647019656,0.1435098562141109,0.9999991619699007,978.0,5.830426800040181,0.6016326677728261,8.508373783091896,-0.16944454128538244,0.539,0.999999999999742,-118.15613061272157,0.9934406732583473,200,2026-10-08 02:01:57.777244,97.5,0.43580736073638543,0.09730478772482494,0.15707736483659784
0188,cdot_cos,Q,P-Q,201,40,41823,-0.001851017464833203,-0.002078288096813643,-0.02497539083170241,0.08053496301402915,978.0,5.850656661560616,0.6017285390390024,8.530977545011504,-0.040850780088990096,0.13,0.9999999999997341,1341.3170215146067,0.9984079064373905,201,2026-10-08 02:01:57.907244,97.5,0.042942641298801765,0.40078872287599215,0.15561431938796189
0188,cdot_cos,R,Q-R,202,40,41866,0.04014467003570999,0.08099206228064242,0.041995687500543194,0.9836103457519376,978.0,5.934631867987939,0.6028988270544714,8.568805490462157,-0.17091547354563724,0.043,0.9999999999997338,-111.13904589078366,1.0033750376035329,202,2026-10-08 02:01:57.950243,97.5,0.4672044119428538,1.1596890517709415,1.952911777379603
0188,cdot_cos,S,R-S,203,40,41886,-0.002532247707759219,-0.007428149020749377,-0.04267691774346921,0.015352589217981747,978.0,5.950389920012917,0.6029170840943948,8.590249339893026,-0.03234341268749463,0.02,0.9999999999997261,7590.061775588699,1.0083421419415373,203,2026-10-08 02:01:57.970243,97.5,0.013781912232278495,0.759903594391842,0.7879026012489021
0188,cdot_cos,T,S-T,204,40,42172,-0.17419714750994078,-0.012653736480895563,-0.17166489980218155,5.383576656903534e-08,978.0,5.9650280117636125,0.602917084158415,8.611381587916386,-0.030121533657254437,0.286,0.9999999999997196,34705887.60342903,1.0133095677561625,204,2026-10-08 02:01:58.256243,97.5,0.9288910644212659,0.17545337300814948,0.051182138988446285
0188,cdot_cos,P,T-P,205,41,42671,0.024163914114001154,0.0015640457973452712,0.19836106162394193,0.9999999960129073,1059.0,6.050749249373578,0.6041056478976907,8.64947982451732,-0.17769572338920295,0.499,0.999999999999719,-124.16178018511853,1.018277256691083,205,2026-10-08 02:01:58.755244,97.5,0.4358364877936081,0.10654644298119453,0.17178604731456085
0188,cdot_cos,Q,P-Q,206,41,42802,-0.0005613296798940991,-0.0005430227045229698,-0.024725243793895253,0.08235954690139108,1059.0,6.071361361858845,0.604203482882913,8.671954785147625,-0.0431023011287386,0.131,0.9999999999997113,1375.718736550389,1.0232444957975988,206,2026-10-08 02:01:58.886244,97.5,0.044040284721613705,0.4038570652396905,0.15734437011653654
0188,cdot_cos,R,Q-R,207,41,42857,0.04323951867260843,0.08645158884496375,0.04380084835250253,0.9862189334957939,1059.0,6.156559800466377,0.6053743633512733,8.7098237943022,-0.17953042305414132,0.055,0.9999999999997105,-116.51754864137865,1.02821164168798,207,2026-10-08 02:01:58.941243,97.5,0.46770550172648134,0.9167900199601433,1.5490625201369568
0188,cdot_cos,S,R-S,208,41,42879,-0.0028044188146675846,-0.008247812649102295,-0.04604393748727602,0.011103998469241299,1059.0,6.17220826405446,0.6053875396285248,8.731026700711302,-0.03324606098252875,0.022,0.9999999999997028,11102.101092698567,1.033178746877577,208,2026-10-08 02:01:58.963244,97.5,0.012276714439613038,0.6924471196900156,0.7112937994583245
0188,cdot_cos,T,S-T,209,41,43151,-0.30062420896723335,-0.02279228624219266,-0.29781979015256577,2.450217188627994e-13,1059.0,6.187027473732738,0.6053875396285251,8.75198957074792,-0.031562069700668216,0.272,0.9999999999996954,,1.0381461686997167,209,2026-10-08 02:01:59.235244,97.5,0.9480434858514555,0.18673541994838647,0.054482388523079205
0188,cdot_cos,P,T-P,210,42,43730,0.019788232214950623,-0.00023702155912731017,0.320412441182184,0.9999999999999729,1099.0,6.273792332506383,0.6065735340105515,8.790089119078385,-0.18611525609630505,0.579,0.9999999999996955,-130.31527698433845,1.043113986236505,210,2026-10-08 02:01:59.814244,97.5,0.43586769361081446,0.0941169636965617,0.14985295124981815
0188,cdot_cos,Q,P-Q,211,42,43860,-0.002611011032938086,-0.0023844370967937376,-0.02239924324788871,0.10120323514976745,1099.0,6.296014917693356,0.6066934907587176,8.812735690345955,-0.0480804117335316,0.13,0.9999999999996868,1150.7051205791442,1.0480812284226542,211,2026-10-08 02:01:59.944243,97.5,0.05664698936520631,0.4189517715610158,0.170942962976721
0188,cdot_cos,R,Q-R,212,42,43903,0.04793623906596788,0.07270420179706896,0.05054725009890597,0.992813630701855,1099.0,6.382719793112247,0.6078695939007778,8.850718607881824,-0.1890187264108933,0.043,0.9999999999996861,-119.83499544987178,1.0530483585411403,212,2026-10-08 02:01:59.987243,97.5,0.4744346044491847,1.187936293650624,2.016392451602102
0188,cdot_cos,S,R-S,213,42,43921,-0.004791127701986837,-0.011209709732068094,-0.05272736676795472,0.005818263002799401,1099.0,6.39817743894731,0.6078764826356261,8.871668921022929,-0.03396936803592802,0.018,0.9999999999996779,22507.668213201556,1.0580154565151962,213,2026-10-08 02:02:00.005243,97.5,0.010416257355301543,0.8469043434308334,0.858758101947959
0188,cdot_cos,T,S-T,214,42,44230,-0.08493402909051793,0.041737153520794906,-0.0801429013885311,0.000403902571175538,1099.0,6.413208349475757,0.6078769608485292,8.892477033437368,-0.033110366310020414,0.309,0.9999999999996699,1796.2746726842495,1.062982940350398,214,2026-10-08 02:02:00.314244,97.5,0.9743900546488513,0.16638615328857118,0.04864372339303152
0188,cdot_cos,P,T-P,215,43,44829,0.01592860657975765,-0.00010610655215451836,0.10086263567027559,0.9999464106695579,1098.0,6.501004081679647,0.6090602415294392,8.930580019597027,-0.19474031987452645,0.599,0.9999999999996695,-136.5947709382057,1.067950815930004,215,2026-10-08 02:02:00.913243,97.5,0.4360593892485439,0.08669936940684332,0.1465705045140071
0188,cdot_cos,Q,P-Q,216,43,44979,-0.028270444431368405,-0.017165571060878123,-0.044199051011126055,0.013263233774104705,1098.0,6.517074194025155,0.6090759279165818,8.951555448313265,-0.035931403199974656,0.15,0.9999999999996594,10123.995744220876,1.072918089202284,216,2026-10-08 02:02:01.063244,97.5,0.012036873594965455,0.3475266536326327,0.10713408230338692
0188,cdot_cos,R,Q-R,217,43,45003,0.0462285399498842,0.07054468125697051,0.0744989843812526,0.9992999447360865,1098.0,6.605262077769437,0.6102571465408461,8.989653180638234,-0.19854345237035426,0.024,0.9999999999996586,-137.66465058207865,1.0778851920637071,217,2026-10-08 02:02:01.087244,97.5,0.44086128901487176,2.1742972954572983,3.6744951560117403
0188,cdot_cos,S,R-S,218,43,45022,0.002069093930618348,-0.06599221676882208,-0.04415944601926585,0.013313865388466484,1098.0,6.621440464207105,0.6102728754485475,9.01057508287951,-0.03671267492402324,0.019,0.9999999999996501,10288.7486225034,1.0828522888547185,218,2026-10-08 02:02:01.106244,97.5,0.01217907962592479,1.0319100981511962,0.8514940230351873
0188,cdot_cos,T,S-T,219,43,45328,-0.019693128735129413,0.008641062985219349,-0.02176222266574776,0.10699436610956531,1098.0,6.644474661499182,0.6103992695142751,9.033088342744433,-0.05241898048388119,0.306,0.9999999999996425,-124.26458053575297,1.0878197835440866,219,2026-10-08 02:02:01.412243,97.5,0.7410922831265303,0.17943032440157825,0.0752751545492709
0188,cdot_cos,P,T-P,220,44,45927,0.016750986922001634,-0.00048702121516783784,0.03644411565713104,0.972166892936427,1079.0,6.731251822740871,0.6115470235346975,9.070712373083019,-0.19890036382903872,0.599,0.9999999999996413,-127.62436962865769,1.0927876924227493,220,2026-10-08 02:02:02.011244,97.5,0.478807766114218,0.09093060043524717,0.14487005215640902
0188,cdot_cos,Q,P-Q,221,44,46038,-0.006594261939760026,-0.004277213473723981,-0.02334524886176166,0.09311657051675475,1079.0,6.753409520820608,0.6116568936053248,9.09293779075059,-0.051195603331721386,0.111,0.9999999999996314,1344.358474095221,1.0977549162033358,221,2026-10-08 02:02:02.122243,97.5,0.05584884944141982,0.5008770442836075,0.19961890161925325
0188,cdot_cos,R,Q-R,222,44,46093,0.052424712736274214,0.07686240748915184,0.05901897467603424,0.9968410449485661,1079.0,6.842446526571832,0.6128323729315596,9.13100109343571,-0.20718689513546654,0.055,0.9999999999996306,-132.70441114724807,1.102722061584298,222,2026-10-08 02:02:02.177243,97.5,0.47099804110559873,0.9528602311839133,1.61885465002225
0188,cdot_cos,S,R-S,223,44,46115,-0.0015067175135985795,-0.0029311957642843456,-0.05393143024987279,0.0051771269261586626,1079.0,6.858224146250839,0.6128384744063705,9.151634419719286,-0.03699696220712932,0.022,0.9999999999996213,27893.24519097194,1.107689160317099,223,2026-10-08 02:02:02.199244,97.5,0.010050774354985399,0.7093042129397986,0.7171645308639412
0188,cdot_cos,T,S-T,224,44,46407,-0.07269815885601989,0.03293491994304169,-0.07119144134242131,0.0009662072471374728,1079.0,6.873655911941183,0.6128396131207514,9.172147858582127,-0.03626835930493984,0.292,0.9999999999996119,639.8469312506627,1.1126566502359954,224,2026-10-08 02:02:02.491244,97.5,0.9801112278528215,0.18023816970767942,0.052848512638165875
0188,cdot_cos,P,T-P,225,45,47006,0.023840098754177638,-0.0008502698508086113,0.09653825761019753,0.9999183085989327,1058.0,6.963483237360124,0.6140173942127182,9.210265408358287,-0.2124944661542443,0.599,0.9999999999996113,-149.6255187413711,1.1176245925300534,225,2026-10-08 02:02:03.090244,97.5,0.4363454978324037,0.0915203221220672,0.1499621459414697
0188,cdot_cos,Q,P-Q,226,45,47118,-0.004687929781376635,-0.003230234208827687,-0.02852802853555427,0.058333052498233055,1058.0,6.98329725784342,0.6140860623545411,9.23174249379272,-0.047240098234831336,0.112,0.9999999999996003,2406.5653086336383,1.1225918210298513,226,2026-10-08 02:02:03.202244,97.5,0.030252392014155756,0.4895230286220607,0.17691089717228722
0188,cdot_cos,R,Q-R,227,45,47178,0.04813968260813275,0.07869104331876081,0.052827612389509386,0.9942380013177589,1058.0,7.073136395771465,0.6152557532125272,9.269767347285288,-0.2156318821549641,0.06,0.9999999999995999,-143.96264001759846,1.1275589736474032,227,2026-10-08 02:02:03.262244,97.5,0.45798333646360717,0.883113857931391,1.497318965467424
0188,cdot_cos,S,R-S,228,45,47199,-0.001792756576816333,-0.003939950419766705,-0.04993243918494908,0.007626936732127972,1058.0,7.089270920795187,0.6152647209440941,9.290298312452041,-0.03901771474846022,0.021,0.9999999999995892,19694.40834498271,1.132526068585745,228,2026-10-08 02:02:03.283243,97.5,0.01081834101559631,0.7539854241180336,0.7683107154153085
0188,cdot_cos,T,S-T,229,45,47503,-0.10477001653582116,0.033406283299729396,-0.10297725995900482,4.360553559460936e-05,1058.0,7.104803783584423,0.6152647722151398,9.310650246722057,-0.03764671959082205,0.304,0.9999999999995796,26740.144281381865,1.1374935910412043,229,2026-10-08 02:02:03.587244,97.5,0.9642377491530785,0.17493307370530056,0.05109494338564453
0188,cdot_cos,P,T-P,230,46,48064,0.027396724819585373,-0.0010106921392604431,0.13216674135540654,0.9999974673891093,1019.0,7.1956302296080095,0.6164398861279466,9.348778614104665,-0.22152877147709052,0.561,0.9999999999995786,-156.48019301128485,1.1424615088933066,230,2026-10-08 02:02:04.148243,97.5,0.43602336066555586,0.09760816143206207,0.1619009733040763
0188,cdot_cos,Q,P-Q,231,46,48176,-0.005045605062679203,-0.0036332663359861677,-0.03244232988226457,0.040577136060588166,1019.0,7.214320140711196,0.6164875404068879,9.369804491307868,-0.0459322819627918,0.112,0.9999999999995671,3684.800051863503,1.1474287408132025,231,2026-10-08 02:02:04.260243,97.5,0.02186336523790423,0.48810446079594216,0.16687420627845403
0188,cdot_cos,R,Q-R,232,46,48236,0.04430557082485751,0.07903703089094505,0.049351175887536715,0.9919319256732869,1019.0,7.3049656288263005,0.6176517793398146,9.407796729118072,-0.2242015642778344,0.06,0.9999999999995658,-153.12087345069338,1.152395893625747,232,2026-10-08 02:02:04.320243,97.5,0.4515227496517235,0.8926807829753525,1.5107581352517367
0188,cdot_cos,S,R-S,233,46,48255,-0.002941205159547075,-0.007335958977152953,-0.04724677598440458,0.009887368636910475,1019.0,7.321441834668239,0.617663377457789,9.428227391999183,-0.0410522688947868,0.019,0.9999999999995557,15791.294396903892,1.1573629832074674,233,2026-10-08 02:02:04.339243,97.5,0.011546552117230607,0.8465942115795042,0.8671687285230577
0188,cdot_cos,T,S-T,234,46,48565,-0.17033480846191693,-0.017558782914446958,-0.16739360330236985,8.164572278722644e-08,1019.0,7.337136208866322,0.6176633775535607,9.448437965171129,-0.03919025969110881,0.31,0.9999999999995445,19442160.25513608,1.1623305305444582,234,2026-10-08 02:02:04.649244,97.5,0.9535989913028197,0.17338806383096644,0.05062701354220342
0188,cdot_cos,P,T-P,235,47,49083,0.023500420832946158,-0.00022307996357104722,0.19383522929486308,0.9999999938013533,1019.0,7.428942434243438,0.61883570691241,9.486576983101687,-0.2306584145063021,0.518,0.9999999999995439,-163.322835319194,1.167298411726364,235,2026-10-08 02:02:05.167244,97.5,0.43600832062734857,0.10995975599580016,0.17723209532261802
0188,cdot_cos,Q,P-Q,236,47,49233,-0.0011588666120245312,-0.0015269338538010354,-0.024659287444970687,0.08284686685245918,1019.0,7.451054516077971,0.6189327688494369,9.508231051892503,-0.055978602880474994,0.15,0.9999999999995325,1799.6736617495915,1.1722657083646484,236,2026-10-08 02:02:05.317244,97.5,0.04413621388170915,0.37857579439775674,0.1474138788968856
0188,cdot_cos,R,Q-R,237,47,49256,0.045803162903347044,0.08275867223035675,0.046962029515371574,0.9898371133602336,1019.0,7.542515172562765,0.6200917078936388,9.546195989768844,-0.23303355798572506,0.023,0.9999999999995313,-152.7733110650254,1.1772328014903453,237,2026-10-08 02:02:05.340243,97.5,0.4677678828589822,2.348424895258376,3.976550281947573
0188,cdot_cos,S,R-S,238,47,49274,-0.0026978427116037284,-0.006759114544435313,-0.04850100561495077,0.008759242263449558,1019.0,7.559082061259856,0.6201019574602041,9.56647255359603,-0.04251464262240963,0.018,0.9999999999995199,18587.997272690212,1.1821998873396158,238,2026-10-08 02:02:05.358243,97.5,0.011319209148976756,0.9008501054058717,0.9203827053939506
0188,cdot_cos,T,S-T,239,47,49563,-0.19405700012701077,-0.0004891633483128168,-0.19135915741540704,7.891198157445997e-09,1019.0,7.574945776357376,0.620101957469438,9.586549103391679,-0.04079755451986394,0.289,0.9999999999995084,185956098.6109837,1.1871674170430466,239,2026-10-08 02:02:05.647244,97.5,0.9587853889877985,0.1879678413856451,0.054891747742284676
0188,cdot_cos,P,T-P,240,48,50102,0.01814299118764562,0.0002682863258688143,0.2121999913146564,0.9999999989656567,1038.0,7.667727473580759,0.621271394368478,9.624700647672274,-0.24003652352713178,0.539,0.9999999999995082,-170.37171408805307,1.1921353633491703,240,2026-10-08 02:02:06.186244,97.5,0.4360335649153444,0.10987922201300734,0.17213672954245376
0188,cdot_cos,Q,P-Q,241,48,50252,-0.0017295794916781227,-0.0022373687997551866,-0.019872570679323742,0.12591443952583556,1038.0,7.693395577687398,0.6214185437986958,9.647015852297693,-0.06691211940869671,0.15,0.9999999999994964,1176.5210633995107,1.1971026664732818,241,2026-10-08 02:02:06.336244,97.5,0.07521985781076959,0.39243080051796814,0.17112069404426222
0188,cdot_cos,R,Q-R,242,48,50282,0.0412301709198633,0.07977664006340059,0.042959750411541424,0.9850587533155531,1038.0,7.785456713736149,0.6225689558307755,9.684905937590097,-0.2415375001520505,0.03,0.9999999999994956,-151.7937711653252,1.202069769549659,242,2026-10-08 02:02:06.366244,97.5,0.48530670854004077,1.8192507822081114,3.0687045349583704
0188,cdot_cos,S,R-S,243,48,50304,-0.002990053071406018,-0.008565070337099407,-0.04422022399126932,0.013236243889629778,1038.0,7.802550624619885,0.6225844045640513,9.705136256362607,-0.04516423408900741,0.022,0.999999999999484,12711.28593897928,1.2070368599779298,243,2026-10-08 02:02:06.388243,97.5,0.012932887918848954,0.7534838905783174,0.776995949260708
0188,cdot_cos,T,S-T,244,48,50601,-0.08709896074839366,0.019502430935466455,-0.08410890767698764,0.0002744084290170427,1038.0,7.818610004921595,0.6225847248382764,9.725090159111513,-0.04252110660542572,0.297,0.999999999999472,8252.701204477482,1.2120044192121286,244,2026-10-08 02:02:06.685244,97.5,0.9397321750698262,0.18486582134494606,0.05407198754784644
0188,cdot_cos,P,T-P,245,49,51140,0.01713685524523578,0.0007007809512770089,0.10423581599362944,0.9999614298011549,1039.0,7.912360922498783,0.6237511113164742,9.763255190668541,-0.2496674994026387,0.539,0.9999999999994711,-177.59670286754488,1.2169723982677987,245,2026-10-08 02:02:07.224244,97.5,0.43618489273370437,0.10362013862940295,0.17393491201704556
0188,cdot_cos,Q,P-Q,246,49,51271,-0.021154263166286876,-0.014538916183165156,-0.038291118411522655,0.023353359815503707,1039.0,7.930312514364092,0.6237783343318754,9.783587117134537,-0.04814487341268431,0.131,0.9999999999994577,7402.656282576062,1.221939674706458,246,2026-10-08 02:02:07.355244,97.5,0.015210723397085058,0.42728844051789716,0.1370350524069375
0188,cdot_cos,R,Q-R,247,49,51325,0.041743912608488414,0.08701655474576231,0.06289817577477529,0.9978337132982176,1039.0,8.024310493914472,0.6249407770270593,9.821721539759247,-0.25356433501529296,0.054,0.9999999999994568,-176.7136242101826,1.2269068183208618,247,2026-10-08 02:02:07.409244,97.5,0.4448013139698618,1.0316551506960603,1.7407033250070416
0188,cdot_cos,S,R-S,248,49,51348,-0.000996351342882722,-0.00301460910485672,-0.042740263951371135,0.015259502396862624,1039.0,8.041731270639266,0.6249585426935936,9.84186325876557,-0.04732072864458283,0.023,0.9999999999994443,11609.111652082503,1.2318739083291537,248,2026-10-08 02:02:07.432243,97.5,0.012798594479632299,0.7310471415679811,0.7574250749910544
0188,cdot_cos,T,S-T,249,49,51640,-0.09236860805369836,0.019200230526095156,-0.09137225671081563,0.00013517636634069198,1039.0,8.057938662426599,0.6249587000693217,9.861688231990815,-0.044116907304411486,0.292,0.9999999999994319,20357.78565428813,1.236841474482438,249,2026-10-08 02:02:07.724244,97.5,0.929953059214103,0.1899109354151397,0.055504766394975626
0188,cdot_cos,P,T-P,250,50,52179,0.017818803528042673,0.00038358439492292376,0.11018741158174103,0.9999784103002224,1019.0,8.152639256921708,0.6261221754761936,9.899867247129308,-0.25922947590247203,0.539,0.9999999999994309,-184.88793774886014,1.2418094852588164,250,2026-10-08 02:02:08.263244,97.5,0.43612986018736066,0.10457675508403633,0.17569683579797532
0188,cdot_cos,Q,P-Q,251,50,52330,-0.02102725270379831,-0.015224565566100239,-0.03884605623184098,0.022150613075738065,1019.0,8.17067240440719,0.6261479312766188,9.920055507253359,-0.04970511349545036,0.151,0.999999999999417,8135.035951052268,1.246776802661969,251,2026-10-08 02:02:08.414243,97.5,0.014767178434059022,0.3740316665580448,0.11942481778465205
0188,cdot_cos,R,Q-R,252,50,52358,0.04095245799753172,0.08078103106449078,0.06197971070133003,0.9976312510969043,1019.0,8.265596820222237,0.6273071917617699,9.958199660230468,-0.26312180261279616,0.028,0.9999999999994159,-184.09726877694996,1.2517438987632048,252,2026-10-08 02:02:08.442244,97.5,0.44437136417780054,2.0103025075672853,3.3901577076802525
0188,cdot_cos,S,R-S,253,50,52378,-0.0012553350824146268,-0.003554081998035944,-0.04220779307994635,0.016059579445321236,1019.0,8.283249344830958,0.6273258412780182,9.978235056068206,-0.049265345270661676,0.02,0.9999999999994029,11467.131613217452,1.2567109811877735,253,2026-10-08 02:02:08.462244,97.5,0.013024663114093097,0.8502407841424198,0.8826262304360455
0188,cdot_cos,T,S-T,254,50,52678,-0.10480981212926549,0.01557640463082826,-0.10355447704685086,4.121935079974392e-05,1019.0,8.299606451587934,0.627325889144348,9.997936187052812,-0.04574385805502255,0.3,0.9999999999993898,73569.1921896668,1.261678577766974,254,2026-10-08 02:02:08.762244,97.5,0.9259058409915276,0.1866630334480431,0.05452368918991961
0188,cdot_cos,P,T-P,255,51,53198,0.01866797575733716,0.0009176684282784987,0.12347778788660266,0.9999940913325611,1038.0,8.395247164899784,0.6284864046080605,10.036129892661394,-0.26893070730536806,0.52,0.9999999999993893,-192.3169972559958,1.2666465855435423,255,2026-10-08 02:02:09.282243,97.5,0.43609085793347835,0.10920428787189249,0.18392444867663457
0188,cdot_cos,Q,P-Q,256,51,53328,-0.02195521448609794,-0.01587899428608241,-0.0406231902434351,0.018692544821009714,1038.0,8.413178910974702,0.6285080836648336,10.056136423685459,-0.050763831077603544,0.13,0.9999999999993746,10063.485626304753,1.271613870225797,256,2026-10-08 02:02:09.412243,97.5,0.013600027814269054,0.4374213183377735,0.1379365082686016
0188,cdot_cos,R,Q-R,257,51,53382,0.037223093562499386,0.07621360567332544,0.059178308048597326,0.9968895886463267,1038.0,8.508976707667605,0.6296634951390646,10.094280856562317,-0.2726845986970454,0.054,0.9999999999993737,-192.07076662202695,1.2765810137949185,257,2026-10-08 02:02:09.466244,97.5,0.44315449458452444,1.055993174488292,1.7740332720907943
0188,cdot_cos,S,R-S,258,51,53403,-0.00196154697011026,-0.005817869708096125,-0.039184640532609644,0.021446742333815657,1038.0,8.527226173819438,0.6296883360151668,10.11429947189577,-0.052295043847224,0.021,0.9999999999993601,8872.052416466677,1.2815480958634053,258,2026-10-08 02:02:09.487243,97.5,0.014781944758472568,0.8279402176870778,0.8690221977063166
0188,cdot_cos,T,S-T,259,51,53677,-0.09035633068485394,0.01867296764569465,-0.08839478371474367,0.00018070004188779648,1038.0,8.543750196810462,0.6296885453096485,10.133885222156172,-0.047447314229993556,0.274,0.9999999999993466,23162.24288080082,1.2865156595657057,259,2026-10-08 02:02:09.761244,97.5,0.9028753356797012,0.206374175849623,0.06030665325191468
0188,cdot_cos,P,T-P,260,52,54236,0.018064285136662094,-0.00038395424116031686,0.10842061582151603,0.999974351762218,1019.0,8.640319222185031,0.630846010064117,10.172093523697546,-0.27876558380354466,0.559,0.9999999999993461,-199.849082817008,1.2914837738394955,260,2026-10-08 02:02:10.320243,97.5,0.43613871381055047,0.10207643072178772,0.17275317598312842
0188,cdot_cos,Q,P-Q,261,52,54347,-0.027301514019934907,-0.01728767381844671,-0.045365799156597,0.011853996239691179,1019.0,8.657871646357421,0.6308597220040193,10.191858254660909,-0.05100427239089135,0.111,0.9999999999993302,16610.436818975642,1.2964510267728562,261,2026-10-08 02:02:10.431243,97.5,0.011498554139143906,0.5154621403540163,0.15812994749900802
0188,cdot_cos,R,Q-R,262,52,54405,0.04234816921850755,0.0731576556548332,0.06964968323844245,0.9988772424304903,1019.0,8.754751817343623,0.6320143979418642,10.230054303848947,-0.28300965773490006,0.058,0.9999999999993291,-200.9268382062458,1.3014181781850358,262,2026-10-08 02:02:10.489243,97.5,0.44052898332424123,0.9875146490398771,1.6703477756241676
0188,cdot_cos,S,R-S,263,52,54427,-0.0027492286284673535,-0.006594749004552301,-0.045097397846974904,0.012164476230852827,1019.0,8.772423345646047,0.6320284504641642,10.24978661013004,-0.05196147108611361,0.022,0.999999999999315,16441.75911739384,1.3063852599958,263,2026-10-08 02:02:10.511244,97.5,0.01171917402844797,0.7806713587335988,0.8032512864738193
0188,cdot_cos,T,S-T,264,52,54735,-0.09000448378965739,0.021436480697329258,-0.08725525516119004,0.0002019300255726851,1019.0,8.789101357127901,0.6320286837338194,10.269258181633282,-0.049136224725705155,0.308,0.9999999999993007,12111.503995749712,1.3113529055219488,264,2026-10-08 02:02:10.819244,97.5,0.944123553609617,0.18533327364918953,0.054149387928098466
0188,cdot_cos,P,T-P,265,53,55255,0.015348320068456359,-0.0009041956890954552,0.10535280385811376,0.9999654095514409,980.0,8.886588642213948,0.6331830846564128,10.307481562349933,-0.288700381633619,0.52,0.9999999999993004,-207.52249259270815,1.3163209763499562,265,2026-10-08 02:02:11.339243,97.5,0.43613562835665376,0.11084165183450857,0.18747554824239696
0188,cdot_cos,Q,P-Q,266,53,55386,-0.029233680817416317,-0.018392572685546272,-0.04458200088587268,0.012783361226628548,980.0,8.90437667503579,0.6331978324340812,10.327152105849493,-0.05302043385424094,0.131,0.9999999999992845,15980.709302676029,1.3212882732212476,266,2026-10-08 02:02:11.470243,97.5,0.011736194179656425,0.4411470782257224,0.13578651009040069
0188,cdot_cos,R,Q-R,267,53,55423,0.04017575136145141,0.07481889087603806,0.06940943217886773,0.9988506625532325,980.0,9.002169176709087,0.6343494031428691,10.365362686441927,-0.2929925216912492,0.037,0.9999999999992838,-208.38675906370716,1.3262553823265106,267,2026-10-08 02:02:11.507244,97.5,0.44085543496850343,1.5641425906172726,2.643040585764778
0188,cdot_cos,S,R-S,268,53,55445,-0.0037067304506359588,-0.01000361556976052,-0.04388248181208737,0.013673308572568264,980.0,9.020123226741468,0.6343651564234695,10.385013219249695,-0.05413820932197405,0.022,0.9999999999992688,15162.195001103584,1.3312224619844264,268,2026-10-08 02:02:11.529243,97.5,0.01213166918787261,0.7998051815063322,0.8160931832900625
0188,cdot_cos,T,S-T,269,53,55755,-0.05757066881857442,0.010468538733499164,-0.053863938367938465,0.005211129014895774,980.0,9.037360604695365,0.6343711601893135,10.404468654992229,-0.05207830627280443,0.31,0.9999999999992543,343.1018301983617,1.3361901290921114,269,2026-10-08 02:02:11.839243,97.5,0.9612180888442357,0.1864743303417406,0.05560444501257173
0188,cdot_cos,P,T-P,270,54,56235,0.02547268791984386,0.0018456171848477672,0.08304335673841828,0.9996955585494108,1018.0,9.135737311553347,0.6355221397193008,10.44270252925208,-0.2987221442005151,0.48,0.999999999999254,-214.29037745825605,1.3411581498985892,270,2026-10-08 02:02:12.319244,97.5,0.43794451523907546,0.12650494323973954,0.20495147262079572
0188,cdot_cos,Q,P-Q,271,54,56384,-0.00023696942146000683,-0.0003094795782655893,-0.025709657341303867,0.07539040401777933,1018.0,9.158805350205515,0.6356088763200768,10.463451092037516,-0.07050735843900663,0.149,0.9999999999992376,2631.1243894717963,1.346125489870956,271,2026-10-08 02:02:12.468243,97.5,0.039291332804730746,0.40453062166296,0.15481905135683222
0188,cdot_cos,R,Q-R,272,54,56420,0.041928616544815014,0.09121271855669505,0.042165585966275024,0.9838752639583908,1018.0,9.25628743680891,0.636740014683963,10.501393828842069,-0.2995178826960667,0.036,0.9999999999992374,-202.46022199287185,1.3510925959474551,272,2026-10-08 02:02:12.504243,97.5,0.46552142109324174,1.6054893784349409,2.707835738983169
0188,cdot_cos,S,R-S,273,54,56443,-0.002033916731252973,-0.006893012279773986,-0.043962533276067986,0.01356844594648143,1018.0,9.274400585452831,0.636755603471757,10.520937709627463,-0.05600176587659341,0.023,0.9999999999992222,15621.234956700764,1.3560596757199521,273,2026-10-08 02:02:12.527244,97.5,0.012927932908432341,0.7626876285150237,0.7875282019096375
0188,cdot_cos,T,S-T,274,54,56694,-0.1736779519181004,-0.0018051719527716697,-0.17164403518684743,5.3945396134698625e-08,1018.0,9.2913710677206,0.6367556035337343,10.54018919600756,-0.052568239295763416,0.251,0.9999999999992069,55399733.55638829,1.3610272369188603,274,2026-10-08 02:02:12.778244,97.5,0.9367717628116786,0.23163607401670278,0.06761148313852361
0188,cdot_cos,P,T-P,275,55,57253,0.018673850007635145,0.0010112366963334156,0.19235180192573553,0.9999999928367402,1039.0,9.390681894609216,0.6379037107028898,10.578444905480975,-0.30913253808103425,0.559,0.9999999999992071,-223.46720382731698,1.3659954569314963,275,2026-10-08 02:02:13.337244,97.5,0.4360714436739459,0.10882224397637197,0.17765800874528687
0188,cdot_cos,Q,P-Q,276,55,57383,-0.008817699963486728,-0.008372536195034658,-0.027491549971121874,0.06413829385189283,1039.0,9.413034336486184,0.6379772948155066,10.59888374827199,-0.07002517006158078,0.13,0.9999999999991904,3249.442841888634,1.3709627629967882,276,2026-10-08 02:02:13.467244,97.5,0.032889831218285266,0.4667442714661864,0.17194186059206537
0188,cdot_cos,R,Q-R,277,55,57437,0.03994537798634641,0.08120039502999983,0.04876307794983314,0.9914598518561706,1039.0,9.512035405190424,0.6391139449805884,10.636984924419005,-0.3117238817014709,0.054,0.99999999999919,-212.64124975734856,1.375929906956985,277,2026-10-08 02:02:13.521244,97.5,0.46053724431668264,1.0882531124622679,1.833353124152592
0188,cdot_cos,S,R-S,278,55,57457,-0.0019081724073645979,-0.0055976409773581546,-0.04185355039371101,0.016614569253225245,1039.0,9.53056567263211,0.6391329793734717,10.656485326691095,-0.05870713694842186,0.02,0.9999999999991743,13292.60913674312,1.380896978058597,278,2026-10-08 02:02:13.541243,97.5,0.013436070430468332,0.8914912013281651,0.9265133720842478
0188,cdot_cos,T,S-T,279,55,57732,-0.10507783698418974,0.024622866036122,-0.10316966457682514,4.2795179409644916e-05,1039.0,9.547695053243551,0.639133028400977,10.675635260845597,-0.05437050644989753,0.275,0.9999999999991582,88453.01171153187,1.3858646059154303,279,2026-10-08 02:02:13.816243,97.5,0.9233372602159219,0.2133472150810918,0.06228865676887871
0188,cdot_cos,P,T-P,280,56,58292,0.020004420001658123,1.1370708968225337e-05,0.12508225698584785,0.9999949469832115,1018.0,9.64790664092671,0.6402778605351154,10.713906936052648,-0.31959474515442265,0.56,0.9999999999991583,-231.67085443852523,1.3908328645806192,280,2026-10-08 02:02:14.376243,97.5,0.436103045973336,0.1129577408339918,0.1789492637199265
0188,cdot_cos,Q,P-Q,281,56,58442,-0.0015304511143595003,-0.0020224722003315413,-0.021534871116017623,0.10913085043172442,1018.0,9.674207722977622,0.6404027013784634,10.735114875336276,-0.0844194037811762,0.15,0.9999999999991419,1883.80128703189,1.3958002205160782,281,2026-10-08 02:02:14.526243,97.5,0.061679896242931756,0.4205997393434539,0.17534054700607982
0188,cdot_cos,R,Q-R,282,56,58468,0.046943992729698805,0.08866210252137013,0.04847444384405831,0.9912182433587058,1018.0,9.774086562729746,0.6415357391991962,10.77322652453978,-0.3222300342964276,0.026,0.9999999999991414,-209.88763672642912,1.4007673016332292,282,2026-10-08 02:02:14.552243,97.5,0.47806188012335155,2.2692507282697783,3.8414938366201614
0188,cdot_cos,S,R-S,283,56,58487,-0.0005376227598553469,-0.001414007310440316,-0.04748161548955415,0.009665714514898054,1018.0,9.79220876084765,0.641546780093827,10.792496805053377,-0.05881997337311906,0.019,0.9999999999991247,23857.673651409958,1.4057343680203114,283,2026-10-08 02:02:14.571244,97.5,0.011353357573936703,0.9317787865040958,0.9537999009423304
0188,cdot_cos,T,S-T,284,56,58790,-0.15518817042148728,0.014973955638670244,-0.15465054766163192,2.8282749602570377e-07,1018.0,9.809494156616902,0.6415467804168915,10.811547989661085,-0.05620545773806358,0.303,0.999999999999108,8092860.484008891,1.4107020754965156,284,2026-10-08 02:02:14.874244,97.5,0.9545482251404904,0.195373157316595,0.05704751078960847
0188,cdot_cos,P,T-P,285,57,59310,0.01906276365800268,0.00034215907568926066,0.17425093407948997,0.9999999581622216,1019.0,9.910604894181507,0.6426882417431904,10.849835906889272,-0.3302922020692655,0.52,0.9999999999991083,-240.11916831200065,1.415670280744815,285,2026-10-08 02:02:15.394243,97.5,0.43612293734878144,0.12332977562791254,0.19444372608577923
0188,cdot_cos,Q,P-Q,286,57,59461,-0.0017251194324096328,-0.0023143912508149975,-0.020787883090412313,0.11641577158501341,1019.0,9.93775712326993,0.6428210209817226,10.871099829918624,-0.089258698967964,0.151,0.9999999999990917,1815.2951151539487,1.4206376462884207,286,2026-10-08 02:02:15.545243,97.5,0.06717915341351069,0.4209499240594994,0.17981608667830365
0188,cdot_cos,R,Q-R,287,57,59490,0.03916775068034198,0.07833993618572958,0.04089287011275161,0.9817837109869697,1019.0,10.037731771247476,0.6439399307941333,10.909044247447063,-0.33029363635618725,0.029,0.9999999999990912,-215.41945089292992,1.425604732377914,287,2026-10-08 02:02:15.574244,97.5,0.4820248761887856,2.051698764276037,3.447401654398102
0188,cdot_cos,S,R-S,288,57,59511,-0.0016149802788050537,-0.004653473485638201,-0.04078273095914703,0.018409339371804674,1019.0,10.05675565159794,0.6439608964112641,10.928388806763227,-0.06322338590001457,0.021,0.999999999999074,12738.487438246728,1.4305718009192065,288,2026-10-08 02:02:15.595244,97.5,0.014636571144589543,0.8683260956955321,0.9058990643078668
0188,cdot_cos,T,S-T,289,57,59809,-0.1145751965114978,0.019315459214101226,-0.11296021623269276,1.6475476451961137e-05,1019.0,10.074201467266688,0.6439609151742394,10.947345561086017,-0.05808412232946801,0.298,0.9999999999990568,273904.5110169677,1.4355395156312425,289,2026-10-08 02:02:15.893243,97.5,0.9153217254259783,0.20041626818248187,0.05854300559982264
0188,cdot_cos,P,T-P,290,58,60329,0.020573676704937538,-0.0006191424293959747,0.13514887321643534,0.9999981063739694,999.0,10.1762037474347,0.6450989395479602,10.985649253282208,-0.3411312405420825,0.52,0.9999999999990569,-248.71797542190302,1.4405077562817763,290,2026-10-08 02:02:16.413243,97.5,0.4361666596219619,0.11663729243421934,0.19615823109233085
0188,cdot_cos,Q,P-Q,291,58,60439,-0.01889244209784825,-0.011204590988138427,-0.03946611880278579,0.020878279966023303,999.0,10.195504251398276,0.6451226821515312,11.004979053354383,-0.0649323555014929,0.11,0.9999999999990375,11633.049602743331,1.4454750319797594,291,2026-10-08 02:02:16.523244,97.5,0.014212402018794318,0.5521852487904559,0.1754591269416007
0188,cdot_cos,R,Q-R,292,58,60497,0.0430651943023463,0.07707598180547243,0.061957636400194555,0.9976261595954619,999.0,10.2976845021686,0.6462563395468518,11.043243703271324,-0.3453140470883984,0.058,0.9999999999990375,-247.32489087465618,1.4504421857473988,292,2026-10-08 02:02:16.581243,97.5,0.4439863581481136,1.0407324425557851,1.761728461557314
0188,cdot_cos,S,R-S,293,58,60519,-0.003171137212602677,-0.00806469172332735,-0.04623633151494898,0.010899895711920491,999.0,10.316229214734747,0.6462687166474322,11.062349069424549,-0.06303934471459673,0.022,0.9999999999990198,22806.205745784642,1.4554092543513113,293,2026-10-08 02:02:16.603244,97.5,0.011358892207527345,0.8212485372258514,0.8429414802794033
0188,cdot_cos,T,S-T,294,58,60828,-0.12159066111334796,0.012918504279600744,-0.11841952390074528,9.675503724332988e-06,999.0,10.333819437806538,0.6462687276341184,11.081210885627176,-0.05989955101195967,0.309,0.9999999999990019,285781.68788685737,1.4603770133964682,294,2026-10-08 02:02:16.912243,97.5,0.9489324623864073,0.1949253919015641,0.05692628825822197
0188,cdot_cos,P,T-P,295,59,61328,0.014407712921686584,0.00011022785341351396,0.13599837403503454,0.9999982568961492,1019.0,10.436693106929914,0.6474034146016595,11.119529530359028,-0.35184289368248023,0.5,0.9999999999990018,-257.2897645093752,1.4653452397314755,295,2026-10-08 02:02:17.412243,97.5,0.4361562028590313,0.12339272250743782,0.20574733824675207
0188,cdot_cos,Q,P-Q,296,59,61458,-0.020148078774828222,-0.011648941289703509,-0.03455579169651481,0.03327236284593609,1019.0,10.457212160313976,0.6474411399001991,11.139009597485844,-0.07059165457851135,0.13,0.9999999999989824,7455.242237739963,1.4703125684744827,296,2026-10-08 02:02:17.542243,97.5,0.018607332418542198,0.47531407513689944,0.1578388721850907
0188,cdot_cos,R,Q-R,297,59,61505,0.04254896504926403,0.08184534589877834,0.06269704382409225,0.9977909071202664,1019.0,10.560274766465508,0.648571612060789,11.177291866891077,-0.35614013841958425,0.047,0.9999999999989823,-252.59222986268924,1.4752796954433194,297,2026-10-08 02:02:17.589243,97.5,0.4485267923843746,1.2976200832683726,2.1928214074794057
0188,cdot_cos,S,R-S,298,59,61525,-0.0015307449913280185,-0.004160151032277441,-0.04407971004059205,0.013416380115452752,1019.0,10.579188448141203,0.6485868011721041,11.19635524343795,-0.06573561456295411,0.02,0.9999999999989639,19119.25706719702,1.4802467567917814,298,2026-10-08 02:02:17.609244,97.5,0.012061153994971402,0.9165656419472867,0.945684083784748
0188,cdot_cos,T,S-T,299,59,61807,-0.09128304153506966,0.018491031251497505,-0.08975229654374164,0.0001583017988890847,1019.0,10.5969373921434,0.648586980388818,11.215128416441067,-0.06179447481914281,0.282,0.9999999999989448,21990.91623625351,1.4852144680166368,299,2026-10-08 02:02:17.891244,97.5,0.9382130816806875,0.21540242423976516,0.0629395177382855
0188,cdot_cos,P,T-P,300,60,62347,0.018520866505549002,8.50491729077708e-07,0.10980390804061867,0.9999775877628391,1018.0,10.70067541541243,0.6497182381617786,11.253461258624469,-0.36270681327076204,0.54,0.9999999999989454,-265.9980294889782,1.4901828278935327,300,2026-10-08 02:02:18.431243,97.5,0.4362107927646713,0.11696709206796634,0.1921074504982056
0188,cdot_cos,Q,P-Q,301,60,62477,-0.010588344117743533,-0.009390724313478734,-0.029109210623292536,0.055297203686460294,1018.0,10.723261851576803,0.64978074599235,11.27328623086228,-0.07943251580970437,0.13,0.9999999999989257,4531.820971415436,1.4951501623298058,301,2026-10-08 02:02:18.561243,97.5,0.02826231665315004,0.48539867823112265,0.1737418166490201
0188,cdot_cos,R,Q-R,302,60,62523,0.04217077830145654,0.07974997423327426,0.05275912241920007,0.9941996191757947,1018.0,10.826879071752522,0.650903707804371,11.311512123705976,-0.36600604219714206,0.046,0.9999999999989254,-255.1943648659735,1.500117286235401,302,2026-10-08 02:02:18.607244,97.5,0.457044348059609,1.3340466761972885,2.25254826468955
0188,cdot_cos,S,R-S,303,60,62543,-0.001516587808661978,-0.0040155414162561425,-0.04368736611011852,0.013932257855876167,1018.0,10.845994145786953,0.6509194326171874,11.330498029344342,-0.06790314728204559,0.02,0.9999999999989065,18957.48447980342,1.5050843450272104,303,2026-10-08 02:02:18.627244,97.5,0.012399254009972044,0.9250157359515843,0.9557537017215623
0188,cdot_cos,T,S-T,304,60,62826,-0.10784284382517677,0.01896496889865414,-0.10632625601651478,3.1458497497837166e-05,1018.0,10.863879701190585,0.6509194681228327,11.349180414369645,-0.0636439555722096,0.283,0.9999999999988873,119958.15516998514,1.510052076137727,304,2026-10-08 02:02:18.910244,97.5,0.9352679890075605,0.21640792796619873,0.06319984241566122
0188,cdot_cos,P,T-P,305,61,63365,0.019714115157066715,-0.0002650560212150812,0.12755695898224348,0.999996030250131,998.0,10.968481033015822,0.652047266246498,11.38752779856294,-0.37375022216868714,0.539,0.9999999999988878,-274.9661132514176,1.5150204704669366,305,2026-10-08 02:02:19.449243,97.5,0.4361734601985574,0.11752353249569895,0.19406555069617132
0188,cdot_cos,Q,P-Q,306,61,63496,-0.01105436128514308,-0.009162340473948991,-0.030768476442209793,0.047429195890740544,998.0,10.990570069220949,0.6521007148139306,11.407115915856991,-0.07937852349332629,0.131,0.9999999999988668,5507.5694787611055,1.5199878132560969,306,2026-10-08 02:02:19.580243,97.5,0.024515365229799916,0.4829711019757628,0.1686185969857034
0188,cdot_cos,R,Q-R,307,61,63537,0.041280569831892454,0.07738466094562202,0.052334931117035535,0.9939561735427498,998.0,11.095019461733472,0.6532199338670039,11.445350129985595,-0.3769403863056141,0.041,0.9999999999988667,-265.865615846331,1.5249549234624489,307,2026-10-08 02:02:19.621243,97.5,0.4541110133695728,1.5075936314370537,2.5475461588420174
0188,cdot_cos,S,R-S,308,61,63556,-0.0032679945711153536,-0.008680137404111603,-0.044548564403007807,0.012824568388935873,998.0,11.114192746998787,0.6532343636103939,11.46422884120117,-0.06957917632044334,0.019,0.999999999998847,21300.531941502595,1.529921977058424,308,2026-10-08 02:02:19.640243,97.5,0.012065188050569085,0.9791254150020023,1.0091202771218788
0188,cdot_cos,T,S-T,309,61,63823,-0.1021156676161757,0.0172377363955611,-0.09884767304506034,6.522202456184238e-05,998.0,11.132226227503548,0.6532344369951516,11.482825784842975,-0.06555249758788213,0.267,0.9999999999988269,54870.77777375448,1.5348896836081687,309,2026-10-08 02:02:19.907244,97.5,0.9404218025558307,0.2312506047250515,0.06754112548599397
0188,cdot_cos,P,T-P,310,62,64363,0.018744660144111327,-4.627782773593683e-05,0.12086032776028703,0.99999237356139,1060.0,11.237680569921965,0.6543587233351815,11.521186643150696,-0.3848702440275547,0.54,0.9999999999988275,-284.01816785497357,1.5398581178999746,310,2026-10-08 02:02:20.447244,97.5,0.43619042840858807,0.1254254963920542,0.195285819293365
0188,cdot_cos,Q,P-Q,311,62,64514,-0.00023876069195819316,-0.0002978725755307359,-0.01898342083606952,0.13576919366001167,1060.0,11.267685763606966,0.6545112353461,11.542444176126956,-0.11014833276665309,0.151,0.9999999999988083,1801.3132841566248,1.5448255203616905,311,2026-10-08 02:02:20.598243,97.5,0.08257001609260677,0.447437327185011,0.19870989195365185
0188,cdot_cos,R,Q-R,312,62,64536,0.0489745882522664,0.07994840364584338,0.04921334894422459,0.9918236665719201,1060.0,11.372806642731838,0.6556244033062588,11.58064878703607,-0.38762029931040176,0.022,0.999999999998808,-249.26334252753978,1.5497925784999507,312,2026-10-08 02:02:20.620243,97.5,0.4887840722020911,2.8158238782466474,4.778221778403268
0188,cdot_cos,S,R-S,313,62,64555,-0.0027329031587528347,-0.006068474215759673,-0.051707491411019234,0.006422654449948744,1060.0,11.391582014249819,0.6556316061901524,11.599320079639746,-0.06961009521270725,0.019,0.9999999999987877,44150.39986724136,1.554759629600124,313,2026-10-08 02:02:20.639244,97.5,0.010374032276329305,0.9725834950067642,0.9881774483147678
0188,cdot_cos,T,S-T,314,62,64863,-0.16312217382846936,0.011100293956159121,-0.16038927066971653,1.6163032529637933e-07,1060.0,11.409764815542095,0.6556316063714167,11.61783454564845,-0.067522576102024,0.308,0.9999999999987671,11516435.867567606,1.5597274646184878,314,2026-10-08 02:02:20.947244,97.5,0.9695571395517393,0.2021033566534676,0.0590350691307677
0188,cdot_cos,P,T-P,315,63,65423,0.017947695829210204,-9.9292399900394e-05,0.18106986965767957,0.9999999784806286,1078.0,11.516077681948355,0.6567522130342794,11.65620854981822,-0.396336980935277,0.56,0.9999999999987671,-293.42535229377853,1.5646959925154555,315,2026-10-08 02:02:21.507244,97.5,0.4362091627167337,0.12110154725324236,0.1898444042968921
0188,cdot_cos,Q,P-Q,316,63,65553,-0.0019924352565495224,-0.0018793350068658597,-0.019940131085759726,0.1251912436624399,1078.0,11.545398548465727,0.6568923805687772,11.67718787099719,-0.10993421059891248,0.13,0.9999999999987471,2043.2889210943893,1.5696633447266564,316,2026-10-08 02:02:21.637243,97.5,0.07388690301280092,0.5202311181247997,0.22554512705670668
0188,cdot_cos,R,Q-R,317,63,65597,0.046814261088319424,0.07478433013967078,0.04880669634486895,0.9914957860097086,1078.0,11.651337772660803,0.6580015188028709,11.715397523949688,-0.39891365832271913,0.044,0.9999999999987463,-260.54412231124985,1.5746304612184383,317,2026-10-08 02:02:21.681243,97.5,0.4846074837278182,1.4207193405752445,2.4077096407971834
0188,cdot_cos,S,R-S,318,63,65616,-0.002444268119289873,-0.005157391673620549,-0.0492585292076093,0.008140687835098335,1078.0,11.670421850436348,0.6580106182694624,11.734023778171645,-0.07224745318168371,0.019,0.999999999998725,35899.48947646792,1.5795975092387649,318,2026-10-08 02:02:21.700243,97.5,0.010872800862843363,0.9862127954062447,1.004425146081339
0188,cdot_cos,T,S-T,319,63,65862,-0.07785757102438172,0.035827460598425905,-0.07541330290509185,0.0006403871609405057,1078.0,11.68881385888624,0.6580113340740155,11.752471776841238,-0.06973927303857083,0.246,0.9999999999987043,3504.001381853532,1.5845651914421615,319,2026-10-08 02:02:21.946244,97.5,0.9646739570517833,0.25517876415712193,0.07476426199143033
0188,cdot_cos,P,T-P,320,64,66501,0.020013269042666815,-0.00022343776272504073,0.09787084006704853,0.9999282611881524,1059.0,11.795969802401652,0.6591281429804218,11.790856386129589,-0.40785705796874416,0.639,0.9999999999987046,-302.75348180932406,1.5895339826090438,320,2026-10-08 02:02:22.585243,97.5,0.43648096915946744,0.10524790366415995,0.16769318234023808
0188,cdot_cos,Q,P-Q,321,64,66632,-0.002480734651893658,-0.002409981421650483,-0.022494003694560474,0.10036592318269989,1059.0,11.823320679769036,0.6592401433252376,11.811272353964837,-0.1046826155811283,0.131,0.9999999999986819,2706.9063303877338,1.5945013432734272,321,2026-10-08 02:02:22.716243,97.5,0.055236583609274734,0.5127388080005929,0.20878532341514722
0188,cdot_cos,R,Q-R,322,64,66673,0.0496807542991438,0.07990539571859603,0.052161488951037456,0.9938537331982263,1059.0,11.930307370097808,0.6603482432644221,11.849539852499602,-0.4111598796607273,0.041,0.9999999999986817,-276.5790821224613,1.5994684499049752,322,2026-10-08 02:02:22.757244,97.5,0.4745459563994747,1.5377592385705146,2.6094314714334406
0188,cdot_cos,S,R-S,323,64,66692,-0.0015809842080585286,-0.003405728131062385,-0.05126173850720233,0.0067060302427116,1059.0,11.949416937331819,0.660355714227922,11.868059755127051,-0.07382899231843619,0.019,0.9999999999986594,45152.260126057634,1.6044354946582748,323,2026-10-08 02:02:22.776243,97.5,0.010367449174515531,0.9894556314009711,1.005766696526902
0188,cdot_cos,T,S-T,324,64,67001,-0.09913124830821886,0.03058966821894356,-0.09755026410016034,7.401633330049528e-05,1059.0,11.967906684091044,0.6603557966865926,11.886418623217919,-0.07154681204922292,0.309,0.9999999999986372,27676.656120700554,1.6094033726926715,324,2026-10-08 02:02:23.085243,97.5,0.9686056447587128,0.20467793487734123,0.0598373681528342
0188,cdot_cos,P,T-P,325,65,67560,0.018554104387391395,-0.0003036925968092005,0.11768535269561026,0.9999896065242598,1019.0,12.075907901086016,0.6614689565822363,11.924815699068313,-0.4194537793099785,0.559,0.9999999999986372,-312.53997617259716,1.6143719786140345,325,2026-10-08 02:02:23.644243,97.5,0.4362985095050075,0.1160966923725073,0.19320432378349034
0188,cdot_cos,Q,P-Q,326,65,67670,-0.015163603624059649,-0.008477530648175854,-0.03371770801145105,0.036003325659982974,1019.0,12.097702786163508,0.6615090012392888,11.943870930631837,-0.0850988038439447,0.11,0.9999999999986123,8349.552726281197,1.6193392838614193,326,2026-10-08 02:02:23.754244,97.5,0.019662915877534663,0.5904418098927086,0.1981353188862914
0188,cdot_cos,R,Q-R,327,65,67729,0.044755300139122475,0.077824445406031,0.059918903763182124,0.9971056411845842,1019.0,12.205805099262411,0.6626171101392229,11.982213838298701,-0.4236758977066776,0.059,0.9999999999986122,-305.544963931684,1.6243064419848552,327,2026-10-08 02:02:23.813244,97.5,0.44971477097204765,1.0811232534972959,1.8322425948966752
0188,cdot_cos,S,R-S,328,65,67751,-0.0033189168621685448,-0.008012338265080314,-0.04807421700129102,0.009128023455959207,1019.0,12.225275330076188,0.6626272461200372,12.000704855339965,-0.07670745785832246,0.022,0.9999999999985894,34231.36312150946,1.6292734924235235,328,2026-10-08 02:02:23.835244,97.5,0.01085348929730807,0.8658404998493907,0.8850104915353219
0188,cdot_cos,T,S-T,329,65,68039,-0.1038991095415572,0.02541178409818385,-0.10058019267938866,5.5085508872386874e-05,1019.0,12.243902081255785,0.6626273072878817,12.018985773309714,-0.07349880584191995,0.288,0.9999999999985664,52456.516081747686,1.6342413281759867,329,2026-10-08 02:02:24.123244,97.5,0.9572833606206343,0.22127340449033037,0.06467621937359762
0188,cdot_cos,P,T-P,330,66,68579,0.021927109293222787,0.00180036501149378,0.12582621883477998,0.999995300531007,1059.0,12.352728811062619,0.6637368197424834,12.057393323971025,-0.43095361634620977,0.54,0.9999999999985658,-322.1728688323608,1.6392099172984242,330,2026-10-08 02:02:24.663244,97.5,0.436288841839675,0.12605323291957668,0.20153098112376697
0188,cdot_cos,Q,P-Q,331,66,68729,-0.0011628213889125325,-0.0014190430035324491,-0.02308993068213532,0.09524012512079583,1059.0,12.380039572808927,0.6638423964395725,12.077569501228586,-0.10873236602555225,0.15,0.999999999998542,3052.0110896129736,1.6441773466205667,331,2026-10-08 02:02:24.813244,97.5,0.0516412477273817,0.4501594821326786,0.18207174497539097
0188,cdot_cos,R,Q-R,332,66,68765,0.041028464938603265,0.08242061125695059,0.0421912863275158,0.9839149693985514,1059.0,12.487776655702422,0.6649321380803958,12.115655902313616,-0.4305831632073972,0.036,0.9999999999985412,-295.34596561687283,1.6491444354955134,332,2026-10-08 02:02:24.849244,97.5,0.47356007350298396,1.7767453657984158,2.992696747041526
0188,cdot_cos,S,R-S,333,66,68786,-0.0016162136628079492,-0.00461583359187156,-0.04264467860141122,0.0154001788356044,1059.0,12.507965239146413,0.6649491807222654,12.13419963616339,-0.0810990044754302,0.021,0.9999999999985169,20506.45442210646,1.6541114801703818,333,2026-10-08 02:02:24.870244,97.5,0.013442257090561167,0.9275490516001484,0.9613611163805235
0188,cdot_cos,T,S-T,334,66,69078,-0.11183346794913161,0.022412967218580108,-0.11021725428632366,2.1526973664530878e-05,1059.0,12.526733715869629,0.6649492045448371,12.152405904280775,-0.07551184242425485,0.292,0.999999999998493,234532.2798544178,1.6590793469928773,334,2026-10-08 02:02:25.162244,97.5,0.9286804784552865,0.21989974488627578,0.06427560521649056
0188,cdot_cos,P,T-P,335,67,69638,0.02238623930671538,-0.00030409758457616696,0.134219707255847,0.9999979268130197,1019.0,12.636386690159998,0.6660549322308108,12.190822860536105,-0.4427046342432156,0.56,0.999999999998493,-332.0824796890243,1.6640480367229293,335,2026-10-08 02:02:25.722244,97.5,0.43629762237985026,0.12223694077696363,0.1958088826613746
0188,cdot_cos,Q,P-Q,336,67,69768,-0.001058194007699359,-0.00109866664724888,-0.02344443331441474,0.0923031449973925,1019.0,12.663639089539828,0.6661569028472976,12.210874165143629,-0.11060862803788925,0.13,0.999999999998468,3256.7813910240984,1.6690154120738008,336,2026-10-08 02:02:25.852243,97.5,0.04966562957094028,0.5252675584983854,0.2096338413833037
