record_id,input,event,transition,event_index,k,peak,value_cos,value_sin,value_return,x_input,rr,knowledge,decision,decision_norm,entropy,delta_t,cosine_similarity,delta_h_over_delta_d,frobenius_norm,matrix_size,timestamp,scale,P,zdot,zdot_back
0053,cdot_cos,Q,P-Q,1,0,1316,-0.028953429672988102,-0.013856352724029467,-0.05721440031576638,0.0742507827927983,1006.0,0.0003688141468534582,0.5000922035356682,0.5000922035356682,,,1.0,,0.004967141530112327,1,2026-10-07 23:31:17.400243,44.1,,,
0053,cdot_cos,R,Q-R,2,0,1341,0.091020707301377,0.08489705817413436,0.1199741369743651,0.9949878194757985,1006.0,0.007510972328699039,0.5013277617456797,0.708984519854888,-1.0149050259392987e-05,,0.9999999999999999,,0.009934283060224654,2,2026-10-07 23:31:17.425244,44.1,,,
0053,cdot_cos,S,R-S,3,0,1371,-0.024914513583305244,-0.10766854487779089,-0.11593522088468225,0.005983529049044904,1006.0,0.009250503182513654,0.5013351919518982,0.8683380240829834,-5.258063638411493e-06,0.03,1.0000000000000002,0.6582571838709422,0.014901424594171795,3,2026-10-07 23:31:17.455244,44.1,0.39447962217466354,0.07034652395965434,0.0579843617938205
0053,cdot_cos,T,S-T,4,0,1666,-0.07333350890557401,0.03063744847502463,-0.04841899532226877,0.10571500271588669,1006.0,0.011731763766278299,0.5014664662658126,1.0029329325317398,-9.388702996990152e-06,0.295,1.0,-0.031465708983050455,0.01986856617049087,4,2026-10-07 23:31:17.750243,44.1,0.6440631717132471,0.025242318366694175,0.008411052826320832
0053,cdot_cos,P,T-P,5,1,2226,0.03839553402283498,-0.0010621811491440343,0.11172904292840899,0.9928057347394776,938.0,0.024143471018863216,0.5026992958958847,1.1240697978661154,-8.029678740528018e-05,0.56,1.0,-0.0575165316266314,0.024835707889587243,5,2026-10-07 23:31:18.310244,44.1,0.41350941905281335,0.013913505004861824,0.022163762951044493
0053,cdot_cos,Q,P-Q,6,1,2328,-0.019823594975416626,-0.012084562675201287,-0.0582191289982516,0.07126199076824748,938.0,0.027314889371723543,0.5027877853297942,1.231573522972463,-2.942934052389957e-05,0.102,1.0,0.5748420419709119,0.029802849451715175,6,2026-10-07 23:31:18.412243,44.1,0.1775575842375666,0.09019094722287412,0.031092336792748303
0053,cdot_cos,R,Q-R,7,1,2352,0.08998209870615348,0.10074870672433799,0.1098056936815701,0.9921738766948724,938.0,0.042542424252329535,0.504019794625461,1.3335110324473114,-0.00019182180096972653,0.024,1.0,-0.13181106751141433,0.03476999096927581,7,2026-10-07 23:31:18.436243,44.1,0.4288792825044271,0.3820206775381099,0.6344806200252496
0053,cdot_cos,S,R-S,8,1,2376,-0.009560246936717299,-0.1185989822376044,-0.09954234564287077,0.012251043656860465,938.0,0.04565188189355282,0.504035006805366,1.4256262850851573,-4.9451726697848033e-05,0.024,1.0,9.358952836562064,0.03973713250574455,8,2026-10-07 23:31:18.460243,44.1,0.056192569768912445,0.12621999865554256,0.12956073505097024
0053,cdot_cos,T,S-T,9,1,2665,-0.109445483003807,0.01287128030000937,-0.09988523606708971,0.012069402598873503,938.0,0.04860098418779558,0.5040499934333896,1.5121499803172795,-5.012339269531308e-05,0.289,1.0000000000000002,-0.04481768656722664,0.044704274483037404,9,2026-10-07 23:31:18.749243,44.1,0.986689133561591,0.036786129370510644,0.010204506208452448
0053,cdot_cos,P,T-P,10,2,3164,0.03836290416135236,-0.0009898865995183468,0.14780838716515937,0.9985260728185904,919.0,0.06691426466970797,0.5052898397147453,1.5978667720923154,-0.0003814533241654533,0.499,0.9999999999999999,-0.2672346858256199,0.049671417040266744,10,2026-10-07 23:31:19.248243,44.1,0.41953896060382806,0.022911742322462205,0.036699960885595975
0053,cdot_cos,Q,P-Q,11,2,3262,-0.0176109590464898,-0.01084353576819245,-0.05597386320784216,0.07809995201125453,919.0,0.07146690302561286,0.505386812038003,1.6761784296432658,-0.00011359894132243166,0.098,0.9999999999999998,2.7621735134806316,0.05463855870215793,11,2026-10-07 23:31:19.346244,44.1,0.094619181193778,0.12664224136122976,0.04645549342760088
0053,cdot_cos,R,Q-R,12,2,3289,0.09574334645562864,0.10820933299907466,0.11335430550211845,0.9932999977759884,919.0,0.091736143976509,0.5066200990063119,1.7549835033664278,-0.0005964501613482027,0.027,1.0,-0.3915157075630583,0.05960570017747153,12,2026-10-07 23:31:19.373244,44.1,0.4450620343489759,0.4470086961826622,0.7507126278109685
0053,cdot_cos,S,R-S,13,2,3314,-0.016977762654967535,-0.08611453880700845,-0.11272110911059617,0.00688842254241226,919.0,0.09560537261947662,0.5066286514472653,1.8266755805524195,-0.00013069730761108297,0.025,0.9999999999999999,54.4584705434337,0.0645728416838899,13,2026-10-07 23:31:19.398243,44.1,0.028336644545788475,0.152957567167816,0.15476914571870448
0053,cdot_cos,T,S-T,14,2,3604,-0.12326552055946223,0.009188326464987451,-0.1062877579044947,0.009127535362806836,919.0,0.0993840223348998,0.5066399838917529,1.895673238308472,-0.00013284817113387785,0.29,1.0,-0.18979696085434716,0.06953998444377095,14,2026-10-07 23:31:19.688244,44.1,0.9839399712133511,0.04567373327970404,0.013029826604907545
0053,cdot_cos,P,T-P,15,3,4083,0.04096303516358904,-0.0014355272910988256,0.16422855572305128,0.9992849760984155,956.0,0.12209613792170496,0.5078806190902209,1.9670131798573838,-0.0009069201922428659,0.479,0.9999999999999999,-0.6239320164903273,0.0745071284583773,15,2026-10-07 23:31:20.167244,44.1,0.4259142509164216,0.02923893007742466,0.04741569016034478
0053,cdot_cos,Q,P-Q,16,3,4178,-0.019435739572585223,-0.010760144102035192,-0.06039877473617426,0.06515656708623839,956.0,0.12739491734907263,0.5079615092562811,2.0318460374861624,-0.00023834456182713625,0.095,0.9999999999999998,8.2652275669397,0.0794742702859517,16,2026-10-07 23:31:20.262244,44.1,0.0605019138359407,0.15572657522113684,0.055776625551238655
0053,cdot_cos,R,Q-R,17,3,4205,0.09864560676195036,0.10168360713371367,0.11808134633453558,0.9945538611890213,956.0,0.15168418721372096,0.5091961675017952,2.0994695832745642,-0.0012220230446326622,0.027,1.0000000000000002,-0.7967212679132669,0.0844414116886191,17,2026-10-07 23:31:20.289243,44.1,0.4471062448000123,0.5335146688154735,0.8996025875795677
0053,cdot_cos,S,R-S,18,3,4232,-0.017862442796718708,-0.09452880865961907,-0.11650804955866907,0.005835138862418357,956.0,0.1562047094651082,0.5092034110388494,2.1603671102031554,-0.00025091118521088963,0.027,1.0,134.06597524932218,0.08940855315155916,18,2026-10-07 23:31:20.316243,44.1,0.02085125694145693,0.16963696248024754,0.16742675005137939
0053,cdot_cos,T,S-T,19,3,4523,-0.11041031592250529,0.026495237224746233,-0.09254787312578658,0.01660411515432152,956.0,0.16084458318765432,0.5092240227848203,2.219656055461482,-0.0002651976509467809,0.291,0.9999999999999999,-0.6931225407134957,0.0943756970779534,19,2026-10-07 23:31:20.607244,44.1,0.9475543221159014,0.053259067554259625,0.015944583238990114
0053,cdot_cos,P,T-P,20,4,5039,0.0356849364169709,-0.0012507890633832596,0.14609525233947618,0.9984105882573269,998.0,0.1872014867816873,0.5104633532812869,2.282861516680794,-0.0016535808848072483,0.516,0.9999999999999999,-1.1202687562508895,0.09934284365548585,20,2026-10-07 23:31:21.123244,44.1,0.43187365095753766,0.03176355258965814,0.05107927053107166
0053,cdot_cos,Q,P-Q,21,4,5136,-0.019980893537139995,-0.010254642765914805,-0.0556658299541109,0.07908364657230306,998.0,0.19362456946018153,0.5105615147862816,2.339686789663236,-0.00044092111988624166,0.097,1.0,12.353720177638042,0.10430998573955665,21,2026-10-07 23:31:21.220243,44.1,0.06390949612430917,0.1758810838251191,0.06621734720097144
0053,cdot_cos,R,Q-R,22,4,5162,0.09329882593839466,0.09112448837465742,0.11327971947553465,0.9932780719328967,998.0,0.2213224170437604,0.5117943358979176,2.400528220197093,-0.0020714834516395546,0.026,1.0000000000000002,-1.3226268729204387,0.10927712700748092,22,2026-10-07 23:31:21.246243,44.1,0.45514138700471674,0.6313020536698605,1.0653018301376491
0053,cdot_cos,S,R-S,23,4,5191,-0.02062075114338237,-0.08266648034640436,-0.11391957708177702,0.006536124145817571,998.0,0.22645227625101427,0.5118024478420267,2.4545183143897575,-0.00041400681518760337,0.029,1.0,204.32545073779224,0.11424426840239654,23,2026-10-07 23:31:21.275244,44.1,0.01825163069378407,0.18440486068358913,0.17689169680185748
0053,cdot_cos,T,S-T,24,4,5482,-0.10058796871647514,0.03664569154539014,-0.07996721757309277,0.028566050946648006,998.0,0.23201789896340858,0.5118379009219104,2.50748337789078,-0.00045990263111546386,0.291,0.9999999999999998,-1.2945508846728901,0.11921141387274792,24,2026-10-07 23:31:21.566243,44.1,0.9050232576371223,0.06030068663981513,0.019125851245341247
0053,cdot_cos,P,T-P,25,5,6037,0.02659368950890831,-0.0014553917987101502,0.12718165822538346,0.9963475978923136,1023.0,0.2615472758753867,0.5130743823084671,2.5653719133319144,-0.002626553735523284,0.555,1.0,-1.7522715084626885,0.12417856422842331,25,2026-10-07 23:31:22.121243,44.1,0.43827766212330094,0.03301567012589297,0.05320608452608666
0053,cdot_cos,Q,P-Q,26,5,6133,-0.029878730019349282,-0.014123703269264175,-0.05647241952825759,0.0765315401224703,1023.0,0.26866529280314977,0.5131693526016922,2.6166605454155336,-0.0006801304208304351,0.096,1.0,20.49507533983175,0.12914570659264654,26,2026-10-07 23:31:22.217243,44.1,0.05716357750971862,0.19740890963296637,0.07414600966419889
0053,cdot_cos,R,Q-R,27,5,6160,0.08774331352793131,0.08176570005681967,0.11762204354728059,0.9944430427350626,1023.0,0.2994497865249162,0.514403297984751,2.672917945947599,-0.003151318859181399,0.027,0.9999999999999998,-2.0026724620704335,0.13411284769899823,27,2026-10-07 23:31:22.244244,44.1,0.4564957252923958,0.675254529152126,1.1401664341394981
0053,cdot_cos,S,R-S,28,5,6189,-0.0245717443764532,-0.12348758315106978,-0.11231505790438451,0.007012010853236599,1023.0,0.3051290373773646,0.5144119981673805,2.722012440045639,-0.0006186821179067994,0.029,0.9999999999999998,291.1015606390434,0.13907998895665685,28,2026-10-07 23:31:22.273243,44.1,0.016679090810431077,0.23721171681838013,0.1958362362913227
0053,cdot_cos,T,S-T,29,5,6480,-0.0743652301651436,0.03414627345242066,-0.049793485788690396,0.10011993073931603,1023.0,0.31320806610038227,0.5145362214468859,2.770862354647173,-0.0009001228517379107,0.291,0.9999999999999994,-2.2656037978675045,0.14404713637952696,29,2026-10-07 23:31:22.564243,44.1,0.7314918160229502,0.06941795516014201,0.02776298530246629
0053,cdot_cos,P,T-P,30,6,7060,0.03286461368075076,-0.0003747624699064537,0.10722984384589436,0.9912406541200437,1058.0,0.3455302872805672,0.5157659987288525,2.824966722639342,-0.0038358947304829834,0.58,0.9999999999999999,-2.38723866654157,0.14901429168019154,30,2026-10-07 23:31:23.144243,44.1,0.4651747492316377,0.0352049601629209,0.05572796755204304
0053,cdot_cos,Q,P-Q,31,6,7165,-0.016612211943934026,-0.009137917545494728,-0.04947682562468479,0.1013851391974864,1058.0,0.3540458198893705,0.5158917711346742,2.87236382378333,-0.001073228985622349,0.105,0.9999999999999998,21.965595130442065,0.1539814346733317,31,2026-10-07 23:31:23.249243,44.1,0.07621763287388145,0.20006520859243757,0.08110031056003122
0053,cdot_cos,R,Q-R,32,6,7190,0.08889827812930406,0.08582781905943788,0.1055104900732381,0.9905571770414187,1058.0,0.3875439810849791,0.5171204894056987,2.9252752436790153,-0.004474657338488829,0.025,0.9999999999999998,-2.768273601100228,0.15894857548840347,32,2026-10-07 23:31:23.274244,44.1,0.46759444553371543,0.7941369929265674,1.3399264478243444
0053,cdot_cos,S,R-S,33,6,7214,-0.02343784809876553,-0.07926907898853719,-0.1123361262280696,0.007005544547483206,1058.0,0.3937526695356989,0.5171291785837923,2.970680968427858,-0.000873756419643565,0.024,0.9999999999999994,414.4121434795821,0.16391571639701674,33,2026-10-07 23:31:23.298244,44.1,0.01622547908672273,0.28321414552963964,0.25869535211332323
0053,cdot_cos,T,S-T,34,6,7519,-0.08994269926113405,0.04562294575682279,-0.06650485116236851,0.05055268718727912,1058.0,0.4011382600704018,0.5171918802261393,3.0157209797275786,-0.0010574590884553634,0.305,0.9999999999999998,-2.9297903840403405,0.16888286664680421,34,2026-10-07 23:31:23.603244,44.1,0.8405315174627386,0.0696833780203851,0.024215050933452283
0053,cdot_cos,P,T-P,35,7,8118,0.03449418524383782,-0.0016556425815381184,0.12443688450497187,0.995879560959664,1059.0,0.4362595301281338,0.5184269793102108,3.067055378352087,-0.0052965894238337875,0.599,0.9999999999999996,-3.432218831710393,0.1738500279182475,35,2026-10-07 23:31:24.202244,44.1,0.4491713033253305,0.03668589620105729,0.05863317204963601
0053,cdot_cos,Q,P-Q,36,7,8216,-0.018364242363610266,-0.008814105459265321,-0.05285842760744809,0.0885833155313639,1059.0,0.44508796371926845,0.5185368304785694,3.1112209927245424,-0.0014012578254832882,0.098,0.9999999999999996,35.46008346160279,0.1788171711432274,36,2026-10-07 23:31:24.300243,44.1,0.0620458198547378,0.2292823571280999,0.09008605705239454
0053,cdot_cos,R,Q-R,37,7,8241,0.09086763032988943,0.08164257807560389,0.1092318726934997,0.9919749152147543,1059.0,0.4811988721252414,0.5197668425122909,3.1616182843934206,-0.006022671315662797,0.025,0.9999999999999996,-3.7572099812690016,0.18378431164793194,37,2026-10-07 23:31:24.325243,44.1,0.46424810452191156,0.8549796266056364,1.4444363362389168
0053,cdot_cos,S,R-S,38,7,8267,-0.025631485408771342,-0.08057233006995877,-0.11649911573866077,0.0058374248293759645,1059.0,0.4878369450495503,0.5197740800076835,3.2041026274639726,-0.0011582081260614325,0.026,0.9999999999999994,672.1196941322586,0.18875145234713556,38,2026-10-07 23:31:24.351244,44.1,0.014995718461890763,0.2937441245647983,0.25531049708880393
0053,cdot_cos,T,S-T,39,7,8558,-0.08331631181587659,0.04542682406292104,-0.05768482640710525,0.07283730211986679,1059.0,0.4964735666026109,0.5198643861914232,3.2465520615271943,-0.0015306452336414078,0.291,0.9999999999999996,-4.124159522163263,0.19371860484725176,39,2026-10-07 23:31:24.642244,44.1,0.7840203261505886,0.07937481714096395,0.02967911186618766
0053,cdot_cos,P,T-P,40,8,9177,0.03358143949877964,-0.0003079815999570553,0.11689775131465624,0.9942637158151375,1061.0,0.5340330886255913,0.5210969761534816,3.2957066650838667,-0.00696757309029561,0.619,0.9999999999999993,-4.410978528150976,0.19868577349080546,40,2026-10-07 23:31:25.261244,44.1,0.45825992212661204,0.038230055685092225,0.06067774155570341
0053,cdot_cos,Q,P-Q,41,8,9283,-0.016604661642596667,-0.009396462025743442,-0.05018610114137631,0.0985707441768294,1061.0,0.5438023755407551,0.5212191606792643,3.337431057169979,-0.0018954704196128107,0.106,0.9999999999999988,41.51182515290419,0.20365291763419827,41,2026-10-07 23:31:25.367244,44.1,0.06884435436593803,0.227505884687238,0.09216308410531855
0053,cdot_cos,R,Q-R,42,8,9308,0.08768756959086955,0.08552213797574736,0.10429223123346622,0.9900411745757665,1061.0,0.5822643361792857,0.522446234624514,3.3858385925338483,-0.007794781749226754,0.025,0.9999999999999987,-4.807624962172577,0.20862005777278994,42,2026-10-07 23:31:25.392244,44.1,0.46915208484133364,0.911636190642775,1.5384784255412276
0053,cdot_cos,S,R-S,43,8,9332,-0.02457612630208777,-0.08507849018758246,-0.11226369589295733,0.007027799766085861,1061.0,0.5893841850728938,0.5224549440488533,3.4259661944100315,-0.0015013289704886635,0.024,0.9999999999999989,722.6026122476462,0.21358719802933063,43,2026-10-07 23:31:25.416243,44.1,0.015117213370760454,0.3264342941230898,0.2966603705670025
0053,cdot_cos,T,S-T,44,8,9637,-0.09010417474916757,0.04542153346687089,-0.0655280484470798,0.05266074664650638,1061.0,0.597933182297194,0.5225202051188705,3.466006948640128,-0.0018267731809682153,0.305,0.9999999999999991,-4.986804696789601,0.21855435443704319,44,2026-10-07 23:31:25.721244,44.1,0.8368147988790918,0.07948278320749534,0.028029499096066387
0053,cdot_cos,P,T-P,45,9,10238,0.03362500337514878,0.0004305243035788067,0.12372917812431636,0.9957494900894501,1035.0,0.637868682829466,0.5237540639048035,3.513449090984225,-0.008879964099657392,0.601,0.9999999999999988,-5.716368031010958,0.2235215295008304,45,2026-10-07 23:31:26.322243,44.1,0.4519058272020842,0.04197997931166522,0.0664484201868085
0053,cdot_cos,Q,P-Q,46,9,10346,-0.015409170854615963,-0.00922620681683512,-0.04903417422976474,0.10317750657860571,1035.0,0.6483931174298156,0.5238818974858137,3.5531399265347763,-0.0024356830558918516,0.108,0.9999999999999987,50.41148806784221,0.22848867446989102,46,2026-10-07 23:31:26.430244,44.1,0.07095000490270184,0.23712269385595633,0.09744846852175636
0053,cdot_cos,R,Q-R,47,9,10372,0.08696105292678419,0.0906129660424251,0.10237022378140015,0.989169793479722,1035.0,0.6890871847023525,0.5251072855212849,3.5999542042173034,-0.009790538671277028,0.026,0.9999999999999979,-6.002062532426163,0.233455814273814,47,2026-10-07 23:31:26.456243,44.1,0.47179027216302794,0.9284171373603366,1.5651564335591108
0053,cdot_cos,S,R-S,48,9,10402,-0.02103610706170676,-0.08082340790697976,-0.10799715998849095,0.008470369031941195,1035.0,0.6966708085725531,0.5251177773685194,3.6381227080020992,-0.0018903897491299208,0.03,0.9999999999999982,752.9797895080367,0.23842295456398546,48,2026-10-07 23:31:26.486243,44.1,0.015312111336222515,0.25032540555002447,0.2527874623400206
0053,cdot_cos,T,S-T,49,9,10696,-0.13608151427747892,0.01681233093019162,-0.11504540721577215,0.0062215052637445084,1035.0,0.704106709035354,0.5251254836399821,3.675878412152886,-0.0018736533005747854,0.294,0.9999999999999979,2.171795872499709,0.24339011382707176,49,2026-10-07 23:31:26.780244,44.1,0.9911072548605496,0.08450658860220692,0.025292178444900847
0053,cdot_cos,P,T-P,50,10,11273,0.03633144952726361,-0.0017094005622777361,0.17241296380474253,0.9995015016738826,1000.0,0.7463606826706508,0.526363358896627,3.7219510346336158,-0.011021761572068262,0.577,0.9999999999999978,-7.390169746415682,0.24835729511091004,50,2026-10-07 23:31:27.357243,44.1,0.4360474598526734,0.04589134620768673,0.0732304569069269
0053,cdot_cos,Q,P-Q,51,10,11370,-0.015473016770876563,-0.008595706536689736,-0.05180446629814017,0.0924083706734849,1000.0,0.7570653225590245,0.5264777898527794,3.7598034929018884,-0.0028941369087037367,0.097,0.9999999999999977,71.02645067949659,0.2533244400330236,51,2026-10-07 23:31:27.454243,44.1,0.06030701153203406,0.27646598633058483,0.11035711225127492
0053,cdot_cos,R,Q-R,52,10,11395,0.0947717375855631,0.09097381676819599,0.11024475435643967,0.9923228008143161,1000.0,0.7999950840187843,0.5277064233700463,3.805345174188763,-0.012017465921211746,0.025,0.9999999999999976,-7.42559020594121,0.2582915793750146,52,2026-10-07 23:31:27.479244,44.1,0.46805360585601286,1.015595418095725,1.7171904583903919
0053,cdot_cos,S,R-S,53,10,11421,-0.02360774930931244,-0.07730309147275416,-0.11837948689487554,0.005375384054727282,1000.0,0.8078450934638107,0.527713077942097,3.841809235930682,-0.002269140443070308,0.026,0.9999999999999973,1464.906443843345,0.2632587190234937,53,2026-10-07 23:31:27.505243,44.1,0.013622352795795283,0.3116150539035228,0.30192344019332507
0053,cdot_cos,T,S-T,54,10,11715,-0.1106711102738805,0.041202752523311854,-0.08706336096456807,0.021051767939150055,1000.0,0.8161990668217675,0.5277391393351767,3.878074864565136,-0.0024391399647245514,0.294,0.9999999999999969,-6.523040465808823,0.26822588217731436,54,2026-10-07 23:31:27.799244,44.1,0.9326768431906268,0.0895565840153528,0.028414875367199777
0053,cdot_cos,P,T-P,55,11,12273,0.03694506754585361,-0.001697861569423611,0.14761617781973413,0.9985135447243519,977.0,0.8605043648648382,0.5289750899495604,3.9229843048112514,-0.013351668924989497,0.558,0.9999999999999969,-8.829259707683354,0.2731930702994986,55,2026-10-07 23:31:28.357243,44.1,0.44161548256988953,0.04953940396281369,0.07940017570442778
0053,cdot_cos,Q,P-Q,56,11,12369,-0.01667633819544405,-0.009371491728579505,-0.05362140574129766,0.08590409516310002,977.0,0.8714850416442675,0.5290814048465567,3.959282745245286,-0.0034181193304710917,0.096,0.9999999999999962,93.4351617239819,0.27816021591071893,56,2026-10-07 23:31:28.453243,44.1,0.054686152024322005,0.2914265730957916,0.11438204978572267
0053,cdot_cos,R,Q-R,57,11,12395,0.09465260005395848,0.0934700688898818,0.11132893824940253,0.9926786057947626,977.0,0.9164582668992302,0.5303097499078301,4.003750864440851,-0.014447525775782987,0.026,0.9999999999999961,-8.979078268022246,0.2831273549543912,57,2026-10-07 23:31:28.479244,44.1,0.4660737296698575,1.023424159122375,1.7297394328831774
0053,cdot_cos,S,R-S,58,11,12421,-0.019882023527202575,-0.08736296258699051,-0.11453462358116105,0.006362336705650927,977.0,0.924703097918631,0.5303176215242783,4.038778732833977,-0.0027274605658957063,0.026,0.9999999999999961,1488.9019665763644,0.28809449423977407,58,2026-10-07 23:31:28.505243,44.1,0.013608491757880162,0.3263515928407149,0.3171088853615722
0053,cdot_cos,T,S-T,59,11,12715,-0.10738940839038495,0.032313634945840476,-0.08750738486318238,0.020651983913539302,977.0,0.9334285497269473,0.5303431724880706,4.073643257602638,-0.0029130408180858738,0.294,0.9999999999999953,-7.263140979677176,0.2930616616888342,59,2026-10-07 23:31:28.799244,44.1,0.9382801455686909,0.09355878996045552,0.029678407511279925
0053,cdot_cos,P,T-P,60,12,13250,0.037184177082719344,-0.001494022567274977,0.14457358547310428,0.9983004573743441,939.0,0.9797156664153789,0.5315780935484272,4.117586265902722,-0.015905841590373983,0.535,0.9999999999999958,-10.521158954513396,0.29802885635605725,60,2026-10-07 23:31:29.334244,44.1,0.4418180330835589,0.053758252205832656,0.08651797511856364
0053,cdot_cos,Q,P-Q,61,12,13347,-0.018197497068593218,-0.010325408518461544,-0.055381674151312565,0.0800011191169561,939.0,0.9909498795871883,0.5316770402711212,4.152530500928805,-0.003976431296591762,0.097,0.9999999999999948,120.56397593562507,0.30299600295107293,61,2026-10-07 23:31:29.431243,44.1,0.049785610948134024,0.2998289251982957,0.11581663063721023
0053,cdot_cos,R,Q-R,62,12,13373,0.0946235659732779,0.10146773751241907,0.11282106304187112,0.9931416667950471,939.0,1.0378824779038482,0.5329051646522993,4.196099533630236,-0.017097015221262453,0.026,0.9999999999999949,-10.683432497353479,0.3079631416049598,62,2026-10-07 23:31:29.457243,44.1,0.4642093878928727,1.0689216049701642,1.8050999352561528
0053,cdot_cos,S,R-S,63,12,13399,-0.014724544519209853,-0.10124004440204028,-0.10934811049248774,0.00798438037498646,939.0,1.0465338030456368,0.532915036584884,4.229882041289828,-0.003237915383887191,0.026,0.9999999999999943,1403.8892302422985,0.31293028051986516,63,2026-10-07 23:31:29.483244,44.1,0.013839148361036455,0.33434201525942653,0.33274327468417575
0053,cdot_cos,T,S-T,64,12,13692,-0.11550077931341221,0.019350098473860405,-0.10077623479420236,0.011609754508482307,939.0,1.0552682626973384,0.5329293909043522,4.263435198414176,-0.003296283925384207,0.293,0.9999999999999939,-4.066270200161826,0.3178974525257351,64,2026-10-07 23:31:29.776243,44.1,0.9824484775198596,0.09715696989471805,0.02981044249727512
0053,cdot_cos,P,T-P,65,13,14189,0.03223918264127468,-0.0014084576843906582,0.1477399619546869,0.998521625034961,923.0,1.1034677874039416,0.5341637581999623,4.306565976273822,-0.018676458809311354,0.497,0.9999999999999937,-12.459966282827711,0.3228646516863383,65,2026-10-07 23:31:30.273243,44.1,0.4388902284660304,0.059452161469410805,0.0969809350233464
0053,cdot_cos,Q,P-Q,66,13,14287,-0.029966602567251963,-0.01618680081832651,-0.06220578520852664,0.060467571173760955,923.0,1.1143637111979328,0.5342384946201542,4.3401741372743965,-0.004337464337613651,0.098,0.9999999999999932,191.86086830075706,0.3278317994250261,66,2026-10-07 23:31:30.371244,44.1,0.03666813228024457,0.3051226565333108,0.11118289585705285
0053,cdot_cos,R,Q-R,67,13,14312,0.09550205911532457,0.10472251532360857,0.12546866168257653,0.9960621233831067,923.0,1.1632718280844705,0.5354693790614138,4.383005857823677,-0.01998751037110196,0.025,0.9999999999999929,-12.714472219238395,0.3327989375733586,67,2026-10-07 23:31:30.396243,44.1,0.45703684614917806,1.1622786107980776,1.9563246754615093
0053,cdot_cos,S,R-S,68,13,14340,-0.0016497531240525973,-0.13121475612926223,-0.09715181223937716,0.01359459800812947,923.0,1.1724776417378366,0.5354861756410003,4.41573221813728,-0.0038581569303745376,0.028,0.9999999999999922,960.2760703531188,0.3377660764285342,68,2026-10-07 23:31:30.424243,44.1,0.01528955877390942,0.35083179504506934,0.3287790590487909
0053,cdot_cos,T,S-T,69,13,14629,-0.07099738581506268,0.009759391977902716,-0.06934763269101009,0.044863462033109036,923.0,1.1829184086069944,0.5355416053743884,4.448542770618357,-0.004412461376609658,0.289,0.9999999999999916,-10.000128312972988,0.3427332529577982,69,2026-10-07 23:31:30.713243,44.1,0.8819477158254924,0.10402512740147202,0.0361272210005458
0053,cdot_cos,P,T-P,70,14,15112,0.033320987412475016,-0.0028708995083376663,0.1043183732275377,0.9900525349684643,895.0,1.2326041653758875,0.5367646098078298,4.4908950264389365,-0.021526486774537956,0.483,0.9999999999999917,-13.993428748064135,0.3477004595072235,70,2026-10-07 23:31:31.196243,44.1,0.4515714087095501,0.06309989066153864,0.10286906163331902
0053,cdot_cos,Q,P-Q,71,14,15203,-0.029222799691192833,-0.015058017938174682,-0.06254378710366784,0.059626276802006634,895.0,1.2438729029860407,0.5368382517272713,4.52347962639703,-0.005005301678045969,0.091,0.9999999999999909,224.3448462749605,0.35266760731335683,71,2026-10-07 23:31:31.287244,44.1,0.03685598972328982,0.3407813254022558,0.12383228143025532
0053,cdot_cos,R,Q-R,72,14,15229,0.10303118140818024,0.10926724952359276,0.13225398109937309,0.9970775334541158,895.0,1.294626366599098,0.5380694598941579,4.56567088152772,-0.0230994845520996,0.026,0.9999999999999903,-14.69628236775674,0.35763474524433675,72,2026-10-07 23:31:31.313244,44.1,0.4568887109551021,1.1589441352856453,1.9520562928098972
0053,cdot_cos,S,R-S,73,14,15258,0.0048709249992588246,-0.1549722870116261,-0.09816025640892141,0.013010954197963961,895.0,1.3041379980208943,0.5380855230041414,4.597404839348992,-0.004431791706981603,0.029,0.9999999999999902,1162.1468609951444,0.36260188396780113,73,2026-10-07 23:31:31.342243,44.1,0.014813408584380294,0.33859599137314156,0.3279872904067665
0053,cdot_cos,T,S-T,74,14,15551,-0.07501474631160596,0.006647146542918341,-0.07988567131086478,0.02866601470507111,895.0,1.3142649340987402,0.5381209133151783,4.6290912450459825,-0.004754088470190699,0.293,0.9999999999999897,-9.106920899131524,0.3675690665770693,74,2026-10-07 23:31:31.635243,44.1,0.9344533265906027,0.10528493051239671,0.03456292176739244
0053,cdot_cos,P,T-P,75,15,16007,0.03764784095589221,-0.001444180331199365,0.11266258726749817,0.9930938996983248,944.0,1.3658349673011587,0.5393467213914728,4.6708797467435295,-0.024770521215613378,0.456,0.9999999999999896,-16.32917349176797,0.3725362782741301,75,2026-10-07 23:31:32.091244,44.1,0.4457153540755821,0.07025884673515952,0.11309217807547914
0053,cdot_cos,Q,P-Q,76,15,16102,-0.01797459879907902,-0.010046616502653634,-0.05562243975497123,0.0792231185326614,944.0,1.3783410023212057,0.5394444887650024,4.702768164566636,-0.006150421562889215,0.095,0.9999999999999885,190.45310291661323,0.37750342790384145,76,2026-10-07 23:31:32.186244,44.1,0.04843895381817173,0.34176660539423304,0.13164247389523148
0053,cdot_cos,R,Q-R,77,15,16129,0.10455603635581442,0.10918731414222091,0.12253063515489344,0.9955198164391498,944.0,1.430770622326063,0.5406727750515428,4.744384489112243,-0.026384382690035686,0.027,0.9999999999999883,-16.473326576117763,0.3824705656579326,77,2026-10-07 23:31:32.213243,44.1,0.46445454309522877,1.1457543872793658,1.9418377779576774
0053,cdot_cos,S,R-S,78,15,16160,-0.01992949276797725,-0.07688582934116522,-0.12448552912379168,0.004111645539800523,944.0,1.4402117392342915,0.5406778470432009,4.775137593736751,-0.004855728664991703,0.031,0.9999999999999875,4244.615424516946,0.387437704482052,78,2026-10-07 23:31:32.244244,44.1,0.011870952388707464,0.3013743482093407,0.3045521583299505
0053,cdot_cos,T,S-T,79,15,16449,-0.17802064739368692,-0.013631631399761113,-0.15809115462570966,0.000937065453570821,944.0,1.4494558319150421,0.5406790029753622,4.805660239076371,-0.004785336932862201,0.289,0.9999999999999865,60.89607546599848,0.39240489220341424,79,2026-10-07 23:31:32.533243,44.1,0.9853977817232115,0.10867123764346778,0.031986479864189135
0053,cdot_cos,P,T-P,80,16,16951,0.030316440419630022,0.0005950739228162201,0.20833708781331695,0.9998977170801893,1016.0,1.5030237145922158,0.5419121909669103,4.8470101413773925,-0.02832132546897887,0.502,0.9999999999999868,-19.085483071051932,0.3973721226160206,80,2026-10-07 23:31:33.035244,44.1,0.43559858060853407,0.0665381525141589,0.10670892963580422
0053,cdot_cos,Q,P-Q,81,16,17058,-0.023103245300658583,-0.013283981324900631,-0.0534196857202886,0.08660521641421835,1016.0,1.5162601370392577,0.5420189784632081,4.878170979717977,-0.007156177117579477,0.107,0.9999999999999858,198.19875065129554,0.4023392757916772,81,2026-10-07 23:31:33.142244,44.1,0.05194314951395272,0.3146764153078413,0.12370488268263381
0053,cdot_cos,R,Q-R,82,16,17084,0.09892839475244077,0.10487944500066736,0.12203164005309936,0.9954205906557164,1016.0,1.5703644674680939,0.5432460899626708,4.919302746460453,-0.029890918769954665,0.026,0.9999999999999858,-18.52703822132778,0.40730641281969754,82,2026-10-07 23:31:33.168243,44.1,0.467390464092196,1.2298020621729058,2.08093578572447
0053,cdot_cos,S,R-S,83,16,17115,-0.014743554355017254,-0.10434442389061943,-0.11367194910745802,0.006607418147311044,1016.0,1.5802098442722488,0.543254233565657,4.949281788648629,-0.00555193359588753,0.031,0.9999999999999847,2988.7244276333777,0.4122735512477776,83,2026-10-07 23:31:33.199244,44.1,0.012476911646110854,0.3269037108021933,0.3175928001340281
0053,cdot_cos,T,S-T,84,16,17408,-0.10245753959714099,0.03538882510380635,-0.08771398524212373,0.020468510584842663,1016.0,1.5906324975378299,0.5432794607346387,4.979238682208913,-0.0059152255792816934,0.293,0.9999999999999836,-14.400822528203934,0.4172407458786197,84,2026-10-07 23:31:33.492243,44.1,0.9404315429565316,0.11180829892216738,0.03557219544566934
0053,cdot_cos,P,T-P,85,17,17967,0.02912272101016221,-0.0006735254293756476,0.1315802606073032,0.9969896663722454,1058.0,1.6457295074406388,0.5445079661121801,5.0201155910911766,-0.03190176333009824,0.559,0.9999999999999837,-21.15297028884294,0.42220800040468426,85,2026-10-07 23:31:34.051244,44.1,0.4428252835675545,0.06256367559302187,0.09856352397640245
0053,cdot_cos,Q,P-Q,86,17,18073,-0.01764161432825656,-0.009694942693701261,-0.04676433533841877,0.1128147028796654,1058.0,1.6605786868508283,0.5446469442280134,5.050848191122369,-0.008783217890494613,0.106,0.9999999999999822,166.3466604147501,0.427175154725514,86,2026-10-07 23:31:34.157243,44.1,0.07192531032368886,0.3323438923962755,0.14008659820933475
0053,cdot_cos,R,Q-R,87,17,18098,0.09301581953540058,0.09092943547872322,0.11065743386365715,0.9924602118144844,1058.0,1.7161864126286492,0.5458692687117389,5.091529802362221,-0.03357763172389708,0.025,0.9999999999999821,-20.284641405391813,0.43214229080846434,87,2026-10-07 23:31:34.182244,44.1,0.477868080726342,1.3157714359472639,2.2243090311128366
0053,cdot_cos,S,R-S,88,17,18122,-0.01799763176540913,-0.10506448174972438,-0.11101345130080971,0.00742320704757062,1058.0,1.7263672586481915,0.545878409147717,5.120793606151751,-0.0062672526093020976,0.024,0.9999999999999811,2987.8639465352244,0.43710942700163885,88,2026-10-07 23:31:34.206244,44.1,0.012808685603858982,0.555213263627452,0.4242019174809282
0053,cdot_cos,T,S-T,89,17,18428,-0.05865111398168507,0.030535554013173743,-0.040653482216275946,0.14272750661710287,1058.0,1.742836649282767,0.5460541481424527,5.151464750442032,-0.010216253525779918,0.306,0.9999999999999802,-22.470829097535688,0.4420766315221994,89,2026-10-07 23:31:34.512243,44.1,0.6794028651382553,0.11819433344936138,0.053821538021488306
0053,cdot_cos,P,T-P,90,18,19025,0.02774879650403308,-0.0013827230766319842,0.08639991048571816,0.9783367371349142,1061.0,1.7987021907192007,0.5472584535030507,5.191749780851976,-0.03536090650747002,0.597,0.9999999999999797,-20.878967913257664,0.4470439101368848,90,2026-10-07 23:31:35.109244,44.1,0.49111045866919845,0.05949204633888908,0.09357712133405988
0053,cdot_cos,Q,P-Q,91,18,19123,-0.0197069604201255,-0.00923825075629141,-0.04745575692415858,0.10979870462074943,1061.0,1.8138701526114005,0.5473935784000011,5.221802198823664,-0.009792841674003627,0.098,0.999999999999978,189.21801541016623,0.45201106388008605,91,2026-10-07 23:31:35.207244,44.1,0.07346888379446102,0.3693691060973025,0.15477512134897778
0053,cdot_cos,R,Q-R,92,18,19149,0.0912934906264811,0.08212210401224232,0.1110004510466066,0.9925725675432159,1061.0,1.871098535514272,0.548614778599804,5.26212837156141,-0.03767078357298581,0.026,0.999999999999978,-22.828314230117414,0.45697819938516643,92,2026-10-07 23:31:35.233243,44.1,0.4770941319476131,1.3002897706006404,2.201091650110441
0053,cdot_cos,S,R-S,93,18,19174,-0.028204346691159128,-0.088111667543485,-0.11949783731764022,0.005118029398723849,1061.0,1.8814852206826338,0.5486210740039029,5.290710310825183,-0.006962507407306618,0.025,0.9999999999999768,4877.888008967316,0.4619453349992706,93,2026-10-07 23:31:35.258244,44.1,0.012148862777741926,0.4628039644423376,0.41546740673447324
0053,cdot_cos,T,S-T,94,18,19466,-0.0925430803830219,0.05043541229324294,-0.06433873369186277,0.055339526588752526,1061.0,1.8942387337363888,0.5486891430919283,5.31973888708401,-0.00860155076152512,0.292,0.9999999999999755,-24.079114349345275,0.4669125431090874,94,2026-10-07 23:31:35.550244,44.1,0.8265027156730455,0.12159135112636814,0.04367641456765428
0053,cdot_cos,P,T-P,95,19,20086,0.031049683413645935,-0.001119575829648994,0.12359276379666784,0.995723952167901,1060.0,1.9524945697404328,0.5499135962657427,5.359895021048884,-0.04000980242639464,0.62,0.999999999999975,-25.650839359603953,0.471879843965839,95,2026-10-07 23:31:36.170244,44.1,0.4561133546534082,0.05952054118601339,0.0939610258129741
0053,cdot_cos,Q,P-Q,96,19,20189,-0.016614529329952374,-0.008926273631155607,-0.047664212743598305,0.10890338120795469,1060.0,1.9680442048070454,0.5500474795980983,5.389342968233155,-0.010883720081264332,0.103,0.999999999999973,217.54823272370092,0.4768470003563831,96,2026-10-07 23:31:36.273243,44.1,0.06883006678715936,0.3604888949811935,0.1509673307438123
0053,cdot_cos,R,Q-R,97,19,20214,0.09036200940735441,0.08485381809727094,0.10697653873730678,0.9911431285393493,1060.0,2.0267552821065586,0.5512656327880339,5.429337164745789,-0.041851383911139226,0.025,0.9999999999999729,-25.421814009708335,0.48181413465329465,97,2026-10-07 23:31:36.298244,44.1,0.4771408237525927,1.39228323687143,2.3484430919805277
0053,cdot_cos,S,R-S,98,19,20237,-0.014260460595801994,-0.14082670802157127,-0.1046224700031564,0.009816254171004716,1060.0,2.037658366650617,0.5512776942928463,5.457371079832712,-0.007907512786855997,0.023,0.9999999999999711,2814.2318601215784,0.48678126875002564,98,2026-10-07 23:31:36.321243,44.1,0.013669197482732985,0.6975350154341543,0.47404715408949155
0053,cdot_cos,T,S-T,99,19,20542,-0.043119061252456035,0.023140078771589117,-0.028858600656654042,0.21880151090844255,1060.0,2.0588418928165297,0.5515465261208986,5.487818981216738,-0.015483007584425878,0.305,0.99999999999997,-28.179307682634775,0.4917484883776784,99,2026-10-07 23:31:36.626244,44.1,0.6130688775729016,0.13096489708002293,0.06945418415053374
0053,cdot_cos,P,T-P,100,20,21146,0.03820890805859504,0.0008296367559004253,0.08132796931105107,0.97305291790526,1058.0,2.117546953869431,0.5527417066474902,5.527417424380498,-0.04372216376173628,0.604,0.9999999999999695,-23.62752366610419,0.49671580303698515,100,2026-10-07 23:31:37.230243,44.1,0.5242024203761848,0.06246561070258026,0.09719380969023375
0053,cdot_cos,Q,P-Q,101,20,21258,-0.006116374631911412,-0.004669903968553449,-0.04432528269050645,0.12403688893146383,1058.0,2.1343003505452467,0.5528940150668639,5.556516488010935,-0.012702156043881828,0.112,0.9999999999999669,203.66574510734978,0.5016829639756287,101,2026-10-07 23:31:37.342243,44.1,0.0869775096765222,0.34213948127049293,0.1495838988912122
0053,cdot_cos,R,Q-R,102,20,21284,0.08680237185711027,0.09238197522703981,0.09291874648902168,0.983660843822707,1058.0,2.1941861976740213,0.5541015263645725,5.596151514151443,-0.04619874081003941,0.026,0.9999999999999662,-27.740183325587985,0.5066500976530472,102,2026-10-07 23:31:37.368243,44.1,0.4842983852428693,1.3659484468885064,2.303301812645179
0053,cdot_cos,S,R-S,103,20,21310,-0.021907372783864287,-0.046273150481447776,-0.10870974464097456,0.00821047822191391,1058.0,2.205329669783449,0.5541116026244999,5.623618982560083,-0.00873762450893506,0.026,0.9999999999999641,3717.7600192217737,0.5116172317594149,103,2026-10-07 23:31:37.394243,44.1,0.01374150875771407,0.4222744005938191,0.42859508113183375
0053,cdot_cos,T,S-T,104,20,21604,-0.15622775053884813,0.03235369105902672,-0.13432037775498384,0.0026686012312022262,1058.0,2.2161444665049,0.5541148776397058,5.650885560651083,-0.008522220865469103,0.294,0.9999999999999626,65.77179949479097,0.5165844558856786,104,2026-10-07 23:31:37.688244,44.1,0.9750412225565915,0.12301878740906168,0.036785022862077944
0053,cdot_cos,P,T-P,105,21,22204,0.045562410629679924,0.00021668583102399505,0.20179016116852805,0.999863485897131,1055.0,2.2776647167799773,0.5553416173906481,5.690558649259866,-0.04924520641160654,0.6,0.9999999999999621,-33.19610823310763,0.5215517865320686,105,2026-10-07 23:31:38.288243,44.1,0.43738426798408464,0.06447006024192274,0.10253375045846225
0053,cdot_cos,Q,P-Q,106,21,22311,-0.004711647005297218,-0.0033445425969732367,-0.050274057634977144,0.0982266241679336,1055.0,2.293508538795207,0.5554620962155349,5.718832790499397,-0.012900169109029379,0.107,0.9999999999999591,301.6715786922859,0.5265189474727668,106,2026-10-07 23:31:38.395243,44.1,0.059760652586270176,0.3616245702509733,0.14807310294607418
0053,cdot_cos,R,Q-R,107,21,22336,0.09482068566356995,0.09404189882634283,0.09953233266886717,0.9877436117471085,1055.0,2.3550523748136856,0.5566732379197715,5.758273246071889,-0.05092979356616778,0.025,0.999999999999958,-31.39981417872796,0.5314860798166258,107,2026-10-07 23:31:38.420243,44.1,0.47392470263476105,1.4578546165940942,2.461753440739134
0053,cdot_cos,S,R-S,108,21,22360,-0.01701867419702555,-0.02514999694496227,-0.1118393598605955,0.007159600303593769,1055.0,2.366401269624912,0.5566820143666619,5.785209693660918,-0.009538858029813784,0.024,0.9999999999999565,4716.138097056423,0.5364532122415789,108,2026-10-07 23:31:38.444243,44.1,0.013047067227457363,0.4642075425065987,0.47287061713443174
0053,cdot_cos,T,S-T,109,21,22663,-0.2401876252213447,0.03160939604104232,-0.22316895102431916,5.31812895919823e-05,1055.0,2.3773343368540023,0.5566820795577054,5.811932037148675,-0.00923271789041568,0.303,0.9999999999999539,4696.046000558308,0.541420447492021,109,2026-10-07 23:31:38.747243,44.1,0.9673855245889758,0.12196227882375162,0.03608273012901114
0053,cdot_cos,P,T-P,110,22,23259,0.04786603785950708,-0.0028782847623559276,0.2880536630808518,0.9999969585299286,1023.0,2.4403104105921054,0.557907554942209,5.851384327728591,-0.053979669788797716,0.596,0.9999999999999534,-36.51395406567762,0.5463877945804549,110,2026-10-07 23:31:39.343244,44.1,0.43650329787439096,0.06594962635311878,0.10566455325185084
0053,cdot_cos,Q,P-Q,111,22,23355,-0.005356087124720096,-0.003520813382731605,-0.053222124984227175,0.08729689774914454,1023.0,2.45594629146692,0.5580145022285411,5.879048170074462,-0.013620234272993807,0.096,0.9999999999999495,377.3769012752663,0.5513549529608144,111,2026-10-07 23:31:39.439244,44.1,0.051653523535018585,0.410069526059371,0.16287375911265092
0053,cdot_cos,R,Q-R,112,22,23382,0.09963139930436721,0.09242190145175318,0.1049874864290873,0.9903389809153681,1023.0,2.5190437595955046,0.559227385807563,5.918306949562653,-0.055815101329780244,0.027,0.9999999999999489,-34.78888475908963,0.5563220850826275,112,2026-10-07 23:31:39.466244,44.1,0.4695521921675552,1.381432137965447,2.336943264021657
0053,cdot_cos,S,R-S,113,22,23410,-0.01912807995470145,-0.026809789176009225,-0.11875947925906866,0.005286527972851909,1023.0,2.530543626917054,0.5592338584173877,5.944738051546618,-0.010325116214231248,0.028,0.9999999999999459,7028.074663509599,0.5612892180862998,113,2026-10-07 23:31:39.494244,44.1,0.012206824396433443,0.4049087679211527,0.4107095471981927
0053,cdot_cos,T,S-T,114,22,23703,-0.24414464246221676,0.02154567054034696,-0.2250165625075153,4.90201349006009e-05,1023.0,2.541718650599089,0.5592339184355528,5.9709849020146075,-0.010078510866235482,0.293,0.9999999999999436,4108.845173231662,0.5662564577465231,114,2026-10-07 23:31:39.787244,44.1,0.9758284943345391,0.1289508591264593,0.03814001256667289
0053,cdot_cos,P,T-P,115,23,24282,0.04717840451246741,0.00036126411310698946,0.29132304697468414,0.9999973669008057,1015.0,2.606108830365159,0.5604579099554785,6.010242126053476,-0.05890221497204454,0.579,0.9999999999999425,-39.888923502323834,0.5712238164386995,115,2026-10-07 23:31:40.366244,44.1,0.43653173818496416,0.06945865682016225,0.11120929147853192
0053,cdot_cos,Q,P-Q,116,23,24390,-0.005694147424625459,-0.004281336323680717,-0.052872551937092865,0.0885330391460321,1015.0,2.622151775196837,0.5605662387289644,6.037483848358115,-0.014904115745240372,0.108,0.9999999999999386,406.1533959169227,0.5761909813258044,116,2026-10-07 23:31:40.474244,44.1,0.05223110243251,0.3720520514579997,0.14854578547849903
0053,cdot_cos,R,Q-R,117,23,24415,0.09290893136860305,0.09913541566315873,0.09860307879322851,0.9872374536285179,1015.0,2.686472073480087,0.5617738264239438,6.076513705162276,-0.06063653123504212,0.025,0.9999999999999379,-37.870885634174364,0.581158111650094,117,2026-10-07 23:31:40.499244,44.1,0.4703841079518974,1.523019577380138,2.5728119313300013
0053,cdot_cos,S,R-S,118,23,24445,-0.019641348415715392,-0.03387391128711381,-0.11255027978431845,0.006940151430264589,1015.0,2.698302754065844,0.561782313036397,6.102518646418844,-0.011313052000548957,0.03,0.9999999999999348,5811.916062660126,0.5861252446501987,118,2026-10-07 23:31:40.529243,44.1,0.01278000013612492,0.38754881402414865,0.39435601952522903
0053,cdot_cos,T,S-T,119,23,24741,-0.2088318911178046,0.0031497019341801247,-0.1891905427020892,0.00023792837145987785,1015.0,2.709725002321536,0.5617826039812637,6.12832539468921,-0.010969654542496895,0.296,0.9999999999999319,1180.2836118538632,0.5910924941050746,119,2026-10-07 23:31:40.825243,44.1,0.9691805975855418,0.1303974005749559,0.03858867653950016
0053,cdot_cos,P,T-P,120,24,25297,0.03837817721453062,-0.0022345196167403397,0.24721006833233522,0.999981578322012,982.0,2.775498015206218,0.5630050291624819,6.167411819500313,-0.06402878637829684,0.556,0.999999999999931,-43.404809268510924,0.5960598612988647,120,2026-10-07 23:31:41.381243,44.1,0.4366269075485896,0.07356070514946009,0.11829678576381626
0053,cdot_cos,Q,P-Q,121,24,25392,-0.016365419410692247,-0.008542852396218303,-0.054743596625222865,0.08209682173473866,982.0,2.7915245064477356,0.5631053544534933,6.194159695568859,-0.01583333303434692,0.095,0.9999999999999264,480.3918618930269,0.6010270222726302,121,2026-10-07 23:31:41.476243,44.1,0.047647580504541806,0.43175129861922124,0.16869990780545033
0053,cdot_cos,R,Q-R,122,24,25418,0.09689335793254106,0.09387720673833323,0.11325877734323331,0.9932719028293341,982.0,2.85753076194387,0.5643187572445904,6.233105207659961,-0.06613004194506848,0.026,0.9999999999999256,-41.45095864271726,0.6059941521361332,122,2026-10-07 23:31:41.502244,44.1,0.4673986403284956,1.499064550148528,2.5387021344667025
0053,cdot_cos,S,R-S,123,24,25443,-0.02464244049249228,-0.06712189962065714,-0.12153579842503334,0.004680174556226738,982.0,2.869475863055459,0.5643244728374525,6.25866197274556,-0.012132606399015703,0.025,0.9999999999999223,9447.39012185674,0.6109612820431652,123,2026-10-07 23:31:41.527244,44.1,0.011671506610748773,0.47403176748607834,0.47780404446356783
0053,cdot_cos,T,S-T,124,24,25740,-0.16452262751572083,0.014961338780893943,-0.13988018702322855,0.002089547004245806,982.0,2.881232350318174,0.5643270246598187,6.28408059917981,-0.011990434560101225,0.297,0.9999999999999187,55.71384622927779,0.6159285410343817,124,2026-10-07 23:31:41.824243,44.1,0.9882129136767802,0.13279129961703962,0.03958413219769266
0053,cdot_cos,P,T-P,125,25,26279,0.03761136180074344,-0.0010063099425144158,0.20213398931646426,0.9998655399458163,956.0,2.9483538950279806,0.5655476994838067,6.323016344877149,-0.06935144982411132,0.539,0.9999999999999183,-46.99123315790854,0.6208959187976504,125,2026-10-07 23:31:42.363244,44.1,0.4373129461039833,0.07743771244332988,0.12452976755066196
0053,cdot_cos,Q,P-Q,126,25,26380,-0.017085204430841463,-0.010286453082034748,-0.054696566231584906,0.0822532505847064,956.0,2.9647102043320834,0.5656480822847529,6.349384888470503,-0.017140776885683724,0.101,0.9999999999999135,520.1157214807811,0.625863084446974,126,2026-10-07 23:31:42.464243,44.1,0.047549109674138855,0.41413886100845,0.16194365647626546
0053,cdot_cos,R,Q-R,127,25,26405,0.09375978637859299,0.10189073171235706,0.11084499080943445,0.9925218537293469,956.0,3.0320099449516875,0.5668589404125309,6.388176750240109,-0.07147860283193685,0.025,0.9999999999999125,-44.875468644676644,0.6308302129338084,127,2026-10-07 23:31:42.489243,44.1,0.46757426321821466,1.5925341989499842,2.6919896247841635
0053,cdot_cos,S,R-S,128,25,26430,-0.017463670653709122,-0.07654232912532773,-0.1112234570323021,0.0073552795454263735,956.0,3.0443369142795826,0.5668679107547605,6.413379222111154,-0.013266172752730149,0.025,0.9999999999999081,6489.432464157437,0.6357973419511915,128,2026-10-07 23:31:42.514244,44.1,0.012425120868386534,0.4856549389467357,0.49307877311580484
0053,cdot_cos,T,S-T,129,25,26719,-0.16424837920766264,-0.007638084634703373,-0.1467847085539535,0.0015418863284944657,956.0,3.0562926918990243,0.5668697912009202,6.4384040989850195,-0.012918105238301758,0.289,0.999999999999904,185.09836755371677,0.6407646063438318,129,2026-10-07 23:31:42.803244,44.1,0.973415594027254,0.1391111882495393,0.041369472731632065
0053,cdot_cos,P,T-P,130,26,27235,0.039761682739937534,-0.0018222638675708237,0.20401006194760019,0.9998762153906574,939.0,3.1247431810878163,0.5680888073490252,6.477209935387647,-0.07488469032267428,0.516,0.9999999999999039,-50.83327663927936,0.6457319910346675,130,2026-10-07 23:31:43.319244,44.1,0.4371436696666686,0.08302567945567575,0.13265598679998458
0053,cdot_cos,Q,P-Q,131,26,27333,-0.012123980357504888,-0.007567964642904757,-0.05188566309744242,0.09210849209592245,939.0,3.1419751930972817,0.5682010617462506,6.503359436123283,-0.019111919799246015,0.098,0.9999999999998989,496.8426351391933,0.6506991572162656,131,2026-10-07 23:31:43.417243,44.1,0.05402982019528391,0.43781093322857256,0.1758368572394422
0053,cdot_cos,R,Q-R,132,26,27358,0.09707265647958913,0.10456227777143084,0.10919663683709402,0.991962535638209,939.0,3.2105541240006166,0.5694095393910039,6.542018586123466,-0.07704971845214867,0.025,0.999999999999898,-47.94279720807788,0.6556662848917079,132,2026-10-07 23:31:43.442244,44.1,0.4714447270830929,1.619985098956862,2.7431572361333956
0053,cdot_cos,S,R-S,133,26,27388,-0.02330354298280566,-0.048309272941027666,-0.12037619946239478,0.004924526808148962,939.0,3.222974448045125,0.5694155367417146,6.566821364850814,-0.01413234957588417,0.03,0.9999999999998938,10490.860366698733,0.6606334158692461,133,2026-10-07 23:31:43.472243,44.1,0.011655110654594465,0.40889516230525985,0.41401080148360714
0053,cdot_cos,T,S-T,134,26,27679,-0.20428940618401056,-0.028250285617292828,-0.1809858632012049,0.0003416177133752841,939.0,3.235087833738932,0.5694159527811832,6.591467245179603,-0.013835660079705943,0.291,0.9999999999998895,713.1282453021126,0.6656006910221078,134,2026-10-07 23:31:43.763244,44.1,0.9787844575381036,0.14067670100085658,0.04162675496153738
0053,cdot_cos,P,T-P,135,27,28174,0.03570197822675058,-0.0020553310387691603,0.23999138441076115,0.9999746731479621,942.0,3.3048482880276233,0.570633350528247,6.630161478645224,-0.08063299452303044,0.495,0.9999999999998888,-54.86894862786397,0.6705680827248551,135,2026-10-07 23:31:44.258244,44.1,0.4367423141808304,0.08698077082692757,0.14093021068422457
0053,cdot_cos,Q,P-Q,136,27,28271,-0.022489530383975533,-0.012238801029044514,-0.05819150861072611,0.07134264856111694,942.0,3.3211987968575905,0.5707201726403089,6.6556849091060375,-0.019146704345289475,0.097,0.9999999999998832,708.186989668058,0.6755352504518581,136,2026-10-07 23:31:44.355244,44.1,0.040303176493289655,0.4449813222274035,0.16856194670069213
0053,cdot_cos,R,Q-R,137,27,28297,0.09324227970077982,0.09901671633021253,0.11573181008475536,0.9939628802393197,942.0,3.3911746645397396,0.5719293441683939,6.694262519781382,-0.08295198132566714,0.026,0.9999999999998828,-52.76776329775919,0.6805023779030526,137,2026-10-07 23:31:44.381243,44.1,0.4633913753571501,1.5924578234641091,2.6913795262365054
0053,cdot_cos,S,R-S,138,27,28323,-0.01552376093042359,-0.1017388687383198,-0.1087660406312034,0.008190286475972574,942.0,3.404006603677724,0.5719393042338822,6.718766713709575,-0.015399023283759757,0.026,0.9999999999998778,6782.380911205136,0.6854695059224907,138,2026-10-07 23:31:44.407244,44.1,0.01244005284415907,0.49385074685359687,0.4935361206917126
0053,cdot_cos,T,S-T,139,27,28618,-0.1216963508793017,0.021658591442444957,-0.1061725899488781,0.009173584837981742,942.0,3.4168549033761266,0.5719504600022545,6.743197650752474,-0.015476825302934039,0.295,0.9999999999998731,-6.9741515400678145,0.6904367935316547,139,2026-10-07 23:31:44.702244,44.1,0.9949856130370252,0.14209117923221865,0.043553558299669524
0053,cdot_cos,P,T-P,140,28,29116,0.036215465239850766,-0.00038856629509049817,0.15791181611915245,0.9990555011003907,979.0,3.487840399424733,0.5731649464420491,6.781780327264567,-0.0864964655091543,0.498,0.9999999999998728,-58.47709606229215,0.6954042056176,140,2026-10-07 23:31:45.200243,44.1,0.4399607094183456,0.08932017500519067,0.1425411567241094
0053,cdot_cos,Q,P-Q,141,28,29223,-0.01516917223756596,-0.009369091166056767,-0.05138463747741673,0.0939729222824704,979.0,3.5058177976812965,0.5732791380340858,6.807313902815936,-0.022186346455810024,0.107,0.9999999999998669,563.1773575120477,0.700371381622667,141,2026-10-07 23:31:45.307244,44.1,0.055098381277791424,0.4160934771078289,0.16801306781834968
0053,cdot_cos,R,Q-R,142,28,29248,0.09139512766559464,0.10220701220819932,0.1065642999031606,0.9909821057652503,979.0,3.5768844035258085,0.5744828563250123,6.845754632763979,-0.08875712167837316,0.025,0.9999999999998661,-55.304281512018385,0.7053385075968075,142,2026-10-07 23:31:45.332243,44.1,0.47235093840578296,1.681944098986916,2.8426642337804786
0053,cdot_cos,S,R-S,143,28,29271,-0.01874775552767528,-0.06512525281731867,-0.11014288319326992,0.007711500165369445,979.0,3.5899150026306423,0.5744922198269112,6.869929079970341,-0.016467430219275627,0.023,0.9999999999998611,7720.369178030913,0.7103056328801622,143,2026-10-07 23:31:45.355244,44.1,0.012402481835128047,0.5569068287436723,0.5665477871666887
0053,cdot_cos,T,S-T,144,28,29575,-0.17643697128271843,-0.007269039481965595,-0.15768921575504316,0.0009538075108498197,979.0,3.6025021176480174,0.5744933779608168,6.893921855699336,-0.0159638250736506,0.304,0.9999999999998562,434.841897996194,0.7152729368327251,144,2026-10-07 23:31:45.659244,44.1,0.9689457575174909,0.13960842517416283,0.04140498360978646
0053,cdot_cos,P,T-P,145,29,30095,0.03767169284275311,-0.0020465640936331844,0.21410866412547153,0.9999206999176735,961.0,3.6747969251365333,0.5757070515371696,6.932432283269463,-0.09270202221658173,0.52,0.9999999999998557,-63.22803646556667,0.720240382450212,145,2026-10-07 23:31:46.179244,44.1,0.4370121815449079,0.08647510212858418,0.13902847593945367
0053,cdot_cos,Q,P-Q,146,29,30194,-0.016764377261026194,-0.009853364594633488,-0.05443607010377931,0.08312461574985663,961.0,3.692436223861745,0.5758079048031889,6.957514852773042,-0.02289657152870589,0.099,0.9999999999998495,692.1486377499699,0.7252075556644371,146,2026-10-07 23:31:46.278244,44.1,0.047419137073609396,0.45477360335637473,0.17817473459809735
0053,cdot_cos,R,Q-R,147,29,30220,0.09454457262643609,0.09981183454679159,0.11130894988746229,0.9926721965498109,961.0,3.7648420986010955,0.5770118019984275,6.9958977839014445,-0.09506302256481107,0.026,0.9999999999998487,-59.94403120259931,0.7301746812771823,147,2026-10-07 23:31:46.304243,44.1,0.46806727618528676,1.6456993733463972,2.784841336128868
0053,cdot_cos,S,R-S,148,29,30245,-0.019861666729812665,-0.08008020455984072,-0.11440623935624876,0.00639822966530672,961.0,3.7780125912757576,0.5770195587207192,7.019747382778767,-0.017490133522599403,0.025,0.999999999999843,10000.730479323007,0.7351418068136568,148,2026-10-07 23:31:46.329243,44.1,0.01185225543261194,0.5273739722343507,0.5268197069864833
0053,cdot_cos,T,S-T,149,29,30535,-0.13056877366410086,0.030479315775215263,-0.11070710693428819,0.007523413859978723,961.0,3.791210797212813,0.5770286794813424,7.043534148803924,-0.017588106449645938,0.29,0.9999999999998377,-10.74174962966097,0.7401091124477446,149,2026-10-07 23:31:46.619244,44.1,0.9944450780581489,0.14946642858772244,0.04551105495536363
0053,cdot_cos,P,T-P,150,30,31056,0.03360609676373657,0.00018458754319883154,0.16417487042783743,0.9992832824731702,955.0,3.8647031198566366,0.5782396583637635,7.081962094475323,-0.09898220941552344,0.521,0.999999999999837,-67.21347840777374,0.745076579618084,150,2026-10-07 23:31:47.140243,44.1,0.43941524360574985,0.08818188777468586,0.14106012023766515
0053,cdot_cos,Q,P-Q,151,30,31165,-0.018683153814690722,-0.011879841447639046,-0.05228925057842729,0.09063089154020487,955.0,3.8830963242740357,0.5783494428813517,7.106878573081753,-0.0250682085985565,0.109,0.99999999999983,673.264340370674,0.7500437621076678,151,2026-10-07 23:31:47.249243,44.1,0.05241746360040789,0.42177431976058005,0.16874499465503773
0053,cdot_cos,R,Q-R,152,30,31190,0.08916077326189925,0.10700008441850008,0.10784392707658998,0.9914726877580826,955.0,3.956649921564443,0.5795499420686493,7.145173209772053,-0.10135746001474949,0.025,0.9999999999998296,-63.54794090941928,0.7550108859895349,152,2026-10-07 23:31:47.274244,44.1,0.4711045436189557,1.7465368431280393,2.9421438916162934
0053,cdot_cos,S,R-S,153,30,31222,-0.009584065609273098,-0.0911813860358099,-0.09874483887117234,0.012684017524924871,955.0,3.9704231664304377,0.5795652941221308,7.168828426975404,-0.019190867276394123,0.032,0.9999999999998239,5352.156494084315,0.7599780155508876,153,2026-10-07 23:31:47.306243,44.1,0.01382126942830944,0.42462209859821937,0.4304139020623321
0053,cdot_cos,T,S-T,154,30,31514,-0.12105605100561301,0.01614304624142482,-0.11147198539633991,0.007275688426627169,955.0,3.983825735874729,0.5795741001551206,7.1923270914427535,-0.01873830125754673,0.292,0.9999999999998176,51.39272353071138,0.7649453335948461,154,2026-10-07 23:31:47.598243,44.1,0.9761374002635135,0.15079370449792795,0.04589921042565553
0053,cdot_cos,P,T-P,155,31,32011,0.026234384234071102,-0.0001397140177524352,0.1472904352396841,0.9984920697479062,958.0,4.058486689857228,0.5807821290767762,7.230680908304277,-0.10545617577939487,0.497,0.999999999999817,-71.78460131815439,0.7699128047065089,155,2026-10-07 23:31:48.095244,44.1,0.4394145706426188,0.09292989356619949,0.15022324744969517
0053,cdot_cos,Q,P-Q,156,31,32116,-0.03080184924292913,-0.017513712724000013,-0.05703623347700024,0.07479267491831913,958.0,4.076198050079531,0.5808725784568215,7.2550979977531425,-0.02530254031048996,0.105,0.9999999999998099,886.1711979534051,0.7748799870253434,156,2026-10-07 23:31:48.200243,44.1,0.04209569448914145,0.4415007535040787,0.16867962116479807
0053,cdot_cos,R,Q-R,157,31,32141,0.09177889996076583,0.10453748422656439,0.12258074920369495,0.9955296626307022,958.0,4.151201848093084,0.5820759871972692,7.293393049983819,-0.10828477014817114,0.025,0.999999999999809,-68.95598066440172,0.7798471098943464,157,2026-10-07 23:31:48.225244,44.1,0.4647138949702115,1.786006923086969,3.000151920542109
0053,cdot_cos,S,R-S,158,31,32165,0.000538989932721287,-0.14239293801035782,-0.09123991002804453,0.017572695726062442,958.0,4.16549839623388,0.5820972205620552,7.316850440858311,-0.020863999558557514,0.024,0.9999999999998028,4117.141652805805,0.7848142326274672,158,2026-10-07 23:31:48.249243,44.1,0.015145840277403037,0.6227401493091866,0.5956895058664887
0053,cdot_cos,T,S-T,159,31,32453,-0.07220916207763518,0.013399411127143114,-0.07274815201035648,0.03885854832261884,958.0,4.181093375259925,0.5821441728769167,7.34056054956515,-0.022839969625676144,0.288,0.9999999999997965,-42.084614420965806,0.7897815591768644,159,2026-10-07 23:31:48.537244,44.1,0.9171229926700838,0.15800460874127517,0.05414923272932372
0053,cdot_cos,P,T-P,160,32,32969,0.0353717836962022,-4.68767791893933e-05,0.10758094577383738,0.9913740748017285,1002.0,4.256509050868854,0.5833415324615583,7.3787534816293965,-0.11156508500146814,0.516,0.9999999999997963,-74.10064321015817,0.7947490666556516,160,2026-10-07 23:31:49.053244,44.1,0.4514562885904183,0.09364248232829804,0.14615441009482413
0053,cdot_cos,Q,P-Q,161,32,33076,-0.008544061439120253,-0.006292582691682218,-0.04391584513532245,0.12601208090421126,1002.0,4.277732417022729,0.583493656960155,7.403706524914875,-0.031752759787866694,0.107,0.9999999999997884,524.6513608908967,0.7997162533678918,161,2026-10-07 23:31:49.160243,44.1,0.0809798000051018,0.4541890420098758,0.1983492163913488
0053,cdot_cos,R,Q-R,162,32,33100,0.10044930184097695,0.10737973736376051,0.1089933632800972,0.9918907478757937,1002.0,4.353705505858968,0.5846905315295862,7.441897548283436,-0.1148643692395594,0.024,0.999999999999788,-69.44053418328676,0.8046833743732319,162,2026-10-07 23:31:49.184243,44.1,0.4850210358396542,1.8688763815385236,3.165545368176629
0053,cdot_cos,S,R-S,163,32,33124,-0.019635480758764857,-0.06882330080853127,-0.1200847825997418,0.004987904991504679,1002.0,4.367438483336578,0.5846965477216074,7.46490783433869,-0.020978709915125605,0.024,0.999999999999781,15605.495800854065,0.8096504960187044,163,2026-10-07 23:31:49.208243,44.1,0.01138700160148627,0.5674259360356296,0.5722073949004184
0053,cdot_cos,T,S-T,164,32,33413,-0.16056339637091152,0.01408799042022661,-0.14092791561214665,0.0019953846174003637,1002.0,4.380941950788678,0.5846989544598608,7.487802126635744,-0.020692494437913826,0.289,0.9999999999997738,118.92256119354695,0.8146178351829416,164,2026-10-07 23:31:49.497243,44.1,0.9862633706007184,0.15680764546606457,0.04672480087231897
0053,cdot_cos,P,T-P,165,33,33971,0.03992010305278614,-0.0014800419242407012,0.20048349942369767,0.9998553895446455,1001.0,4.458073302415963,0.5859044220208993,7.5260806697456255,-0.11931820065042958,0.558,0.9999999999997734,-81.81531332750694,0.8195854004938694,165,2026-10-07 23:31:50.055244,44.1,0.4375443456460906,0.08766723356641327,0.1382282287227332
0053,cdot_cos,Q,P-Q,166,33,34074,-0.006858364004241544,-0.004834500324334223,-0.046778467057027685,0.1127523424907647,1001.0,4.478778583448795,0.5860402967124608,7.55060327960207,-0.03238141040526497,0.103,0.9999999999997651,639.8306354631782,0.8245525865148169,166,2026-10-07 23:31:50.158243,44.1,0.06823656840989716,0.47457559874637856,0.20102214594982612
0053,cdot_cos,R,Q-R,167,33,34098,0.0987926117078529,0.10099203878657252,0.10565097571209445,0.9906149510661243,1001.0,4.555835875757717,0.5872334940021848,7.5887314317175365,-0.12172593930423795,0.024,0.9999999999997643,-74.87825330179828,0.8295197061539699,167,2026-10-07 23:31:50.182244,44.1,0.47999431522930835,1.896189935461053,3.2107205128717453
0053,cdot_cos,S,R-S,168,33,34122,-0.019991677188147122,-0.06375030896693576,-0.11878428889600003,0.005280777646633697,1001.0,4.569795700350926,0.5872398519753396,7.611500674707419,-0.022274128184835672,0.024,0.9999999999997565,15642.062131911296,0.8344868264520243,168,2026-10-07 23:31:50.206244,44.1,0.011505817263403393,0.5774257683655581,0.5816593580503607
0053,cdot_cos,T,S-T,169,33,34430,-0.15380096705705487,0.03349058802013378,-0.13380928986890775,0.002729265700460808,1001.0,4.583552312639264,0.5872431379568724,7.634163051304404,-0.022016499385944476,0.308,0.999999999999749,78.40238793607178,0.8394541939431902,169,2026-10-07 23:31:50.514244,44.1,0.988366573677353,0.14942419323890224,0.04466432561148744
0053,cdot_cos,P,T-P,170,34,34972,0.03451257295251649,-0.0003494783762680204,0.18831354000957135,0.9997526916089594,1017.0,4.6618410033860895,0.5884462951270393,7.672403340476743,-0.12644517637321312,0.542,0.9999999999997486,-86.79554057994608,0.8444217703879062,170,2026-10-07 23:31:51.056243,44.1,0.43784904878899383,0.09054390130532323,0.144444078868682
0053,cdot_cos,Q,P-Q,171,34,35079,-0.016605854030326446,-0.009813120171003097,-0.051118426982842934,0.09497725535717584,1017.0,4.681701901654234,0.5885605412233049,7.696430244591019,-0.03241545172037714,0.107,0.9999999999997389,823.0454057195683,0.8493889625117222,171,2026-10-07 23:31:51.163244,44.1,0.05498094520741673,0.45842417849423067,0.18561587166490415
0053,cdot_cos,R,Q-R,172,34,35105,0.09061356070891885,0.09604546971195856,0.10721941473924529,0.9912366598759257,1017.0,4.759943777583855,0.5897523066111612,7.7345314923874575,-0.12892799876863345,0.026,0.9999999999997384,-80.98284111259734,0.8543560825209308,172,2026-10-07 23:31:51.189243,44.1,0.4730391629126622,1.7795620282953657,3.009302920370024
0053,cdot_cos,S,R-S,173,34,35135,-0.020712489762613966,-0.07898633846418428,-0.11132605047153282,0.007322319823843214,1017.0,4.774239127125593,0.5897611063464296,7.757098745398824,-0.023786785699223434,0.03,0.9999999999997299,11948.224561509822,0.8593232069000766,173,2026-10-07 23:31:51.219244,44.1,0.012032400849327721,0.48002313205273894,0.47651165139127966
0053,cdot_cos,T,S-T,174,34,35431,-0.12250973518410134,0.042038034480777135,-0.10179724542148738,0.011104277183960853,1017.0,4.788745165507019,0.5897744510102958,7.779661824029961,-0.024210037647344647,0.296,0.9999999999997216,-31.71694336900266,0.8642905762953708,174,2026-10-07 23:31:51.515244,44.1,0.9826694336522619,0.15859002877897221,0.0490068864237363
0053,cdot_cos,P,T-P,175,35,35989,0.032283661438759395,-0.0023081151936959732,0.15479339662286073,0.99891640706912,960.0,4.868124424162745,0.5909743647924518,7.817858585611993,-0.13366172628045497,0.558,0.9999999999997212,-91.21629425444858,0.8692581927287737,175,2026-10-07 23:31:52.073244,44.1,0.44092925795138505,0.08871243887520115,0.14225673594216054
0053,cdot_cos,Q,P-Q,176,35,36084,-0.021018437642461443,-0.01070659897831885,-0.05330209908122084,0.08701630002345465,960.0,4.887748247291744,0.5910788390358035,7.841549665915127,-0.0333794567773968,0.095,0.9999999999997111,959.8755280330338,0.8742253762159283,176,2026-10-07 23:31:52.168243,44.1,0.04957289779731666,0.5219968310436865,0.20656655925262007
0053,cdot_cos,R,Q-R,177,35,36109,0.09499943442568765,0.09488515658914619,0.11601787206814909,0.9940381109312937,960.0,4.967303822061045,0.592271723615778,7.879665549999764,-0.13657331703660466,0.025,0.9999999999997102,-86.50783318987747,0.8791924938932804,177,2026-10-07 23:31:52.193243,44.1,0.4697319194262662,1.8804974889067871,3.182222990772061
0053,cdot_cos,S,R-S,178,35,36140,-0.01768828659620727,-0.10961180949422913,-0.11268772102189492,0.006898502607447278,960.0,4.981773121737083,0.5922799983075301,7.902003531956126,-0.025076327088596077,0.031,0.9999999999997012,13474.458419469602,0.8841596181041587,178,2026-10-07 23:31:52.224244,44.1,0.01172180310242349,0.4887970330399915,0.46675160245283315
0053,cdot_cos,T,S-T,179,35,36430,-0.09810712915085468,0.02516771096482293,-0.0804188425546474,0.02801852201587319,960.0,4.997609238109525,0.5923136057344289,7.924618714351185,-0.027528009490933678,0.29,0.9999999999996927,-72.95061325930237,0.8891269944062905,179,2026-10-07 23:31:52.514244,44.1,0.9147894257843282,0.16583321735210557,0.054607297836005673
0053,cdot_cos,P,T-P,180,36,36949,0.02990032989782284,0.0007950782032570012,0.12800745904867752,0.996477757450488,915.0,5.077956387801304,0.5935082890316372,7.9627521239263706,-0.14088439063246477,0.519,0.9999999999996916,-94.88404283078205,0.8940945991079884,180,2026-10-07 23:31:53.033243,44.1,0.44726425635004274,0.09547017577458958,0.1548114637606543
0053,cdot_cos,Q,P-Q,181,36,37059,-0.028824980899383304,-0.019319540190474178,-0.058725310797206144,0.069798662552031,915.0,5.096707280563549,0.5935919298040381,7.98596566665123,-0.03319990553094984,0.11,0.9999999999996809,1287.4640203634212,0.899061800035342,181,2026-10-07 23:31:53.143244,44.1,0.039026365739171294,0.45195158330509405,0.17046266147494907
0053,cdot_cos,R,Q-R,182,36,37084,0.08762931879876824,0.11512129908501106,0.11645429969815155,0.9941510942951302,915.0,5.177385736128425,0.5947826444323765,8.024059594002145,-0.14410925549698,0.025,0.99999999999968,-93.14519812425459,0.9040289164127697,182,2026-10-07 23:31:53.168243,44.1,0.4631890957253563,1.9765866659002107,3.227138222595052
0053,cdot_cos,S,R-S,183,36,37115,0.024723488822232624,-0.1599486229678067,-0.06290582997653563,0.05873731162747964,915.0,5.195536613858559,0.5948529605546579,8.047024726704162,-0.032731475389586304,0.031,0.9999999999996705,1583.9579387173987,0.9089960396807073,183,2026-10-07 23:31:53.199244,44.1,0.033280854685068244,0.5510021648231921,0.58551218484304
0053,cdot_cos,T,S-T,184,36,37408,-0.05635503001096548,-0.00023679196423735175,-0.08107851883319811,0.027237038480180747,915.0,5.211547870347463,0.594885565474912,8.06942344738837,-0.028967444142873756,0.293,0.9999999999996616,115.44365750240856,0.9139634322445214,184,2026-10-07 23:31:53.492243,44.1,0.8781480710936346,0.16513372205554874,0.05464592658328898
0053,cdot_cos,P,T-P,185,37,37864,0.04011017717166992,-0.00046619170470452826,0.0964652071826354,0.985993325740998,863.0,5.292304974983111,0.5960653128440256,8.107367895788848,-0.14732581245561338,0.456,0.9999999999996604,-100.32518097638491,0.9189309971468325,185,2026-10-07 23:31:53.948243,44.1,0.4478135343010775,0.10832973363926005,0.17709891367466643
0053,cdot_cos,Q,P-Q,186,37,37964,-0.02419062436410707,-0.015347714988336323,-0.064300801535777,0.05542704115865758,863.0,5.310344587426468,0.5961315988329078,8.130154330133832,-0.033217592603733595,0.1,0.9999999999996495,1721.4530819592453,0.9238981911946524,186,2026-10-07 23:31:54.048243,44.1,0.032219794383660946,0.49968168730662565,0.18039612443357278
0053,cdot_cos,R,Q-R,187,37,37990,0.09991578040322341,0.12903791235147563,0.12410640476733048,0.9958193221959419,863.0,5.392241312444436,0.5973219134234626,8.168257608692508,-0.15207792366757905,0.026,0.9999999999996483,-99.85623297152053,0.9288653077028572,187,2026-10-07 23:31:54.074244,44.1,0.45768450621976825,1.8718906190174827,3.1498740391526097
0053,cdot_cos,S,R-S,188,37,38018,0.00550658021172498,-0.11908141472874276,-0.09440920019149843,0.015315653364326633,863.0,5.407682899615377,0.5973402114937475,8.19031963137549,-0.02893458084129387,0.028,0.9999999999996376,6729.854072544861,0.9338324271159193,188,2026-10-07 23:31:54.102243,44.1,0.014179999150139745,0.5387519739306386,0.5514852561050443
0053,cdot_cos,T,S-T,189,37,38307,-0.1129709461925868,-0.014504081277299137,-0.11847752640431178,0.005352317645874514,863.0,5.422411422984552,0.5973466060042198,8.212161409269124,-0.027675390214744088,0.289,0.9999999999996279,196.91743910565273,0.9387998288063418,189,2026-10-07 23:31:54.391244,44.1,0.9555209707755775,0.1686115095207518,0.05096374868226477
0053,cdot_cos,P,T-P,190,38,38727,0.04488302005275478,0.0007603467207738777,0.1578539662453416,0.999053090722535,919.0,5.505140352118372,0.5985396109094533,8.250302564054216,-0.15669687830102338,0.42,0.9999999999996274,-108.14832991909033,0.9437673766322705,190,2026-10-07 23:31:54.811244,44.1,0.43894435319941255,0.12177473201183835,0.19697364079480958
0053,cdot_cos,Q,P-Q,191,38,38833,-0.01235073028089532,-0.009132735186760674,-0.0572337503336501,0.07419214784128601,919.0,5.524702197874496,0.5986281600399711,8.27320930130183,-0.03739621988152919,0.106,0.9999999999996155,1347.2820988964568,0.9487345806492107,191,2026-10-07 23:31:54.917243,44.1,0.04116447643458543,0.48302589026026554,0.18454571468041686
0053,cdot_cos,R,Q-R,192,38,38858,0.10255334994342126,0.12651306678615265,0.11490408022431658,0.9937398414915787,919.0,5.607541840853548,0.5998135766815895,8.311264275737152,-0.1596776181834231,0.025,0.9999999999996153,-103.1547845784805,0.9537016952925584,192,2026-10-07 23:31:54.942244,44.1,0.4649610023302821,1.9565135718917226,3.3135857191620843
0053,cdot_cos,S,R-S,193,38,38881,-0.013988321067903715,-0.07357164623773017,-0.11654167101132498,0.0058265438502340654,919.0,5.622527876469082,0.5998205236438853,8.332976585248003,-0.02914002277390943,0.023,0.9999999999996046,18790.60081977982,0.9586688084113603,193,2026-10-07 23:31:54.965244,44.1,0.011337188972986073,0.6439531340773038,0.6515667658927835
0053,cdot_cos,T,S-T,194,38,39186,-0.1650056908514303,-0.03183929765886035,-0.1510173697835266,0.0012796783709604314,919.0,5.637163685021104,0.5998220493933347,8.354557957533094,-0.028534044799408586,0.305,0.9999999999995941,397.16742137420977,0.9636362420491619,194,2026-10-07 23:31:55.270243,44.1,0.9789869012163857,0.16147672739646593,0.04798625754761297
0053,cdot_cos,P,T-P,195,39,39646,0.04098572922686975,0.0007713689937377427,0.20599142007830004,0.9998865711807221,938.0,5.721028680180926,0.6010136115494386,8.392702001136294,-0.16476949004224528,0.46,0.9999999999995934,-114.33347773338086,0.9686038568366486,195,2026-10-07 23:31:55.730243,44.1,0.43743617754307357,0.11151530806597774,0.18231520686917882
0053,cdot_cos,Q,P-Q,196,39,39753,-0.02195966880712721,-0.014295071910690765,-0.06294539803399696,0.05864091233471965,938.0,5.7397577684418035,0.6010834567967807,8.415172221191257,-0.037127217343659806,0.107,0.9999999999995814,1827.5011909312866,0.9735710653517038,196,2026-10-07 23:31:55.837244,44.1,0.03212983125241411,0.47967959504717794,0.17503820804558196
0053,cdot_cos,R,Q-R,197,39,39778,0.09390145449834782,0.11360353642131506,0.11586112330547503,0.9939970041380748,938.0,5.823680113521022,0.6022667458758094,8.45322045722334,-0.16768330669992865,0.025,0.9999999999995809,-110.33321583887928,0.9785381788346122,197,2026-10-07 23:31:55.862243,44.1,0.45905406914419683,1.9946587125849469,3.3568938031687523
0053,cdot_cos,S,R-S,198,39,39802,-0.000986826758358941,-0.11863801173808103,-0.09488828125670676,0.01500026944887381,938.0,5.839490704071051,0.602284593609344,8.474899303508568,-0.031862763014832346,0.024,0.9999999999995697,7609.960302326824,0.9835052918893917,198,2026-10-07 23:31:55.886244,44.1,0.014084602100405626,0.6593558801827696,0.658774606251189
0053,cdot_cos,T,S-T,199,39,40105,-0.09459976495484139,0.010539510659030343,-0.09361293819648245,0.01585434093946456,938.0,5.855329195769795,0.6023034572449395,8.496539705046604,-0.03200509106172865,0.303,0.9999999999995584,-7.545101588511896,0.9884727377722271,199,2026-10-07 23:31:56.189243,44.1,0.9955628294986364,0.16603509928358137,0.052272249830839626
0053,cdot_cos,P,T-P,200,40,40584,0.04316757048785159,-0.0015124202943256604,0.13776733544269298,0.9977068646780506,957.0,5.940107974236901,0.6034899242108152,8.534640317566504,-0.1726115704494437,0.479,0.9999999999995582,-118.50854969564408,0.9934403990289714,200,2026-10-07 23:31:56.668243,44.1,0.44282387334584705,0.10866795926356258,0.17699118677892675
0053,cdot_cos,Q,P-Q,201,40,40683,-0.017742442245105086,-0.010431410313221211,-0.060910012732956674,0.06379667774280448,957.0,5.959433100744288,0.6035657495921546,8.557025497064595,-0.03969107225818527,0.099,0.9999999999995454,1752.9815985525631,0.9984076011690861,201,2026-10-07 23:31:56.767244,44.1,0.035123794367829565,0.5263909211027048,0.1952032980544146
0053,cdot_cos,R,Q-R,202,40,40709,0.09424289332387079,0.10064077470657679,0.11198533556897587,0.9928860149622861,957.0,6.044333376615237,0.6047451982430564,8.59504835125469,-0.1757197892687158,0.026,0.9999999999995449,-115.33246225388719,1.0033747146471608,202,2026-10-07 23:31:56.793243,44.1,0.46110803064611117,1.9306321923300285,3.2653952258057117
0053,cdot_cos,S,R-S,203,40,40734,-0.015727327300299975,-0.10183791936251854,-0.10997022062417076,0.0077699848995065384,957.0,6.05982597474545,0.6047544234164345,8.616428386741262,-0.03233326035933941,0.025,0.9999999999995328,15542.96304608249,1.0083418276584692,203,2026-10-07 23:31:56.818244,44.1,0.011859276111612343,0.6206246993989062,0.619703925208519
0053,cdot_cos,T,S-T,204,40,41025,-0.12259545110296072,0.02132844411199419,-0.10686812380266074,0.008898940694220732,957.0,6.075364611585182,0.6047649888885449,8.637775939676139,-0.03251218119494904,0.291,0.9999999999995209,-16.9344856282475,1.0133092732782247,204,2026-10-07 23:31:57.109244,44.1,0.9945119209817185,0.17434655415122882,0.05339737745612486
0053,cdot_cos,P,T-P,205,41,41541,0.0377243178423269,-0.0011672586955783586,0.16031976894528763,0.9991505755843112,955.0,6.161295669261465,0.6059506290114741,8.675896958634782,-0.18111123314379596,0.516,0.9999999999995207,-125.33234079639794,1.018277006276354,205,2026-10-07 23:31:57.625243,44.1,0.44021809251472427,0.10258006894310558,0.16653305751217604
0053,cdot_cos,Q,P-Q,206,41,41640,-0.021269842109492922,-0.011848037588016076,-0.05899415995181982,0.06903278958095733,955.0,6.181227242734467,0.6060325007580533,8.698207217570248,-0.04236881832790294,0.099,0.999999999999507,1694.631183686485,1.0232442112529092,206,2026-10-07 23:31:57.724244,44.1,0.037830675432155826,0.5350270688689817,0.20132902497981936
0053,cdot_cos,R,Q-R,207,41,41665,0.09371299698312666,0.09950298968941883,0.11498283909261958,0.9937614115600265,955.0,6.267231028897523,0.6072104236069736,8.736241186327625,-0.18419454024235457,0.025,0.9999999999995068,-120.4032352750792,1.0282113220503923,207,2026-10-07 23:31:57.749243,44.1,0.4630233094916184,2.033606627334752,3.4401514465222505
0053,cdot_cos,S,R-S,208,41,41690,-0.016258418105057494,-0.09912707018582916,-0.10997141508818414,0.007769578799558494,955.0,6.282907574101205,0.6072196281320624,8.757450532669962,-0.03384846656791032,0.025,0.9999999999994942,16333.930563950205,1.033178433638762,208,2026-10-07 23:31:57.774244,44.1,0.011775436379635823,0.6344459613176667,0.6270618081472534
0053,cdot_cos,T,S-T,209,41,41983,-0.11377699090053638,0.02378540862789756,-0.09751857279547888,0.013379403926390265,955.0,6.298953326963407,0.6072354783699156,8.778705988303168,-0.034732728637229836,0.293,0.9999999999994817,-55.78856781255317,1.0381458960890726,209,2026-10-07 23:31:58.067244,44.1,0.9748623045327848,0.17573724406566402,0.05476366164574062
0053,cdot_cos,P,T-P,210,42,42496,0.03625793077563811,-0.0009159910952672114,0.1500349216761745,0.9986637354460816,940.0,6.385889599123684,0.6084179299200614,8.816818069845468,-0.18952013116459393,0.513,0.9999999999994815,-130.90380109720923,1.0431136527103502,210,2026-10-07 23:31:58.580243,44.1,0.44187276425095123,0.10429131384727026,0.1694664174664271
0053,cdot_cos,Q,P-Q,211,42,42594,-0.02323751603581364,-0.013229508692512272,-0.059495446811451747,0.06762551404619775,940.0,6.405956214970706,0.6084979549962038,8.838948199320974,-0.044110808889399576,0.098,0.9999999999994668,1817.0469718307938,1.0480808592704922,211,2026-10-07 23:31:58.678244,44.1,0.03701412864590166,0.5464894959084676,0.20476138619410392
0053,cdot_cos,R,Q-R,212,42,42621,0.09234510185929343,0.1010000440947206,0.11558261789510707,0.9939232709724383,940.0,6.493001540321743,0.609673445438893,8.87698423154851,-0.19273912519427683,0.027,0.9999999999994668,-126.43940852880172,1.0530479713180834,212,2026-10-07 23:31:58.705244,44.1,0.4624868123963356,1.9092091380843692,3.223900938927314
0053,cdot_cos,S,R-S,213,42,42651,-0.010880729350572096,-0.11568756917330573,-0.10322583120986552,0.01043335575435359,940.0,6.509053508427262,0.6096857780052208,8.898075861423763,-0.035826572876944,0.03,0.9999999999994531,12723.430642602312,1.0580150882897184,213,2026-10-07 23:31:58.735244,44.1,0.012528098780332357,0.552625255202388,0.5350656035172818
0053,cdot_cos,T,S-T,214,42,42941,-0.09360603604682272,0.015233409250437027,-0.08272530669625063,0.02537753058435996,940.0,6.526159055633887,0.6097157744876589,8.919377706659942,-0.03827436972673986,0.29,0.99999999999944,-81.60279642287533,1.0629825612921167,214,2026-10-07 23:31:59.025243,44.1,0.9380482024686544,0.1809576649042221,0.05898464554008562
0053,cdot_cos,P,T-P,215,43,43436,0.03858626873884432,-0.0014281232449061766,0.13219230478566704,0.9970695970681839,960.0,6.614008954071711,0.6108936614895495,8.957464406121154,-0.19793406113202577,0.495,0.9999999999994399,-135.5475450098536,1.0679503211386387,215,2026-10-07 23:31:59.520243,44.1,0.4463594518718517,0.10963315859576044,0.1774745422986343
0053,cdot_cos,Q,P-Q,216,43,43532,-0.019074523987352703,-0.010303530888722575,-0.05766079272619702,0.07290891074078205,960.0,6.6346958826436895,0.6109797417601137,8.979536876774814,-0.04699081465755845,0.096,0.9999999999994245,1753.5173331250835,1.0729175279541758,216,2026-10-07 23:31:59.616243,44.1,0.0402684819257518,0.5666812122430606,0.21548883929144633
0053,cdot_cos,R,Q-R,217,43,43558,0.09919918952736716,0.0999966906596734,0.11827371351471985,0.9945996190506184,960.0,6.722811746822378,0.6121533277631122,9.017586856792843,-0.20157851549186212,0.026,0.9999999999994242,-131.7225158099549,1.0778846373362765,217,2026-10-07 23:31:59.642244,44.1,0.4644572317959326,1.9982413454450434,3.3890716991803376
0053,cdot_cos,S,R-S,218,43,43588,-0.02392003386412644,-0.07249105284982633,-0.1231192233914936,0.004365890069396351,960.0,6.738604432606832,0.6121584764746277,9.03841683230172,-0.03640905927336123,0.03,0.99999999999941,32079.765144877227,1.0828517532604875,218,2026-10-07 23:31:59.672243,44.1,0.010710899876617783,0.5215441358273528,0.5264228594817826
0053,cdot_cos,T,S-T,219,43,43880,-0.1843374186000711,-0.012537572997953803,-0.16041738473594466,0.0008457787110480851,960.0,6.754104394972019,0.6121594739019283,9.0591381784402,-0.03581723836328313,0.292,0.9999999999993964,593.3474146567984,1.087819243936593,219,2026-10-07 23:31:59.964243,44.1,0.9836124078025835,0.1790634977726464,0.0530820628944784
0053,cdot_cos,P,T-P,220,44,44396,0.03440506047018294,-0.0006692684332044737,0.21874247907025404,0.9999353555286842,979.0,6.843177515306057,0.6133380386895773,9.097278639186449,-0.2071927414124985,0.516,0.9999999999993957,-145.41033708556307,1.0927870614147965,220,2026-10-07 23:32:00.480243,44.1,0.4373021847537823,0.10632115925641177,0.17262232622875542
0053,cdot_cos,Q,P-Q,221,44,44494,-0.02450894948111643,-0.01311374313399497,-0.058914009951299376,0.06926029594046015,979.0,6.863827831324636,0.6134196227449807,9.119143892949563,-0.04841849197010671,0.098,0.9999999999993797,1946.1431361453665,1.097754273919581,221,2026-10-07 23:32:00.578244,44.1,0.037658114347739226,0.5600090847302406,0.21071751039366468
0053,cdot_cos,R,Q-R,222,44,44520,0.09324605837328424,0.09424432883403953,0.11775500785440067,0.9944753523718033,979.0,6.952939295913184,0.6145903450607311,9.157195540956309,-0.21037433425946234,0.026,0.9999999999993796,-138.33839170098716,1.1027213817775707,222,2026-10-07 23:32:00.604243,44.1,0.46308437218576814,2.0250484567175224,3.4273640226364623
0053,cdot_cos,S,R-S,223,44,44548,-0.01783758905127297,-0.11370150067145059,-0.11108364742455722,0.007400432731812619,979.0,6.9691303510739475,0.6145990520928001,9.177926693259478,-0.03851484522051967,0.028,0.9999999999993646,19738.010343456503,1.1076884934612583,223,2026-10-07 23:32:00.632244,44.1,0.011537389387758747,0.5986666927327062,0.5782519700272548
0053,cdot_cos,T,S-T,224,44,44840,-0.1026312102642108,0.028145713541740378,-0.08479362121293783,0.023216570356810417,979.0,6.986464630706216,0.6146263672386502,9.198890790545505,-0.04133251832189288,0.292,0.9999999999993501,-103.15423966021952,1.1126559992126615,224,2026-10-07 23:32:00.924243,44.1,0.9341008644091147,0.18373913334332814,0.059363971343384975
0053,cdot_cos,P,T-P,225,45,45375,0.043993261297929284,-0.0017613842864180385,0.1466244715621401,0.9984471963978602,979.0,7.076434004946451,0.6158003916115662,9.2370116467714,-0.21592893002349348,0.535,0.9999999999993497,-148.71617295979996,1.1176238746283782,225,2026-10-07 23:32:01.459244,44.1,0.4454889807505902,0.1035784953163184,0.16816705465464524
0053,cdot_cos,Q,P-Q,226,45,45472,-0.01502106034489092,-0.0086454850333009,-0.05901432164282021,0.06897566948348184,979.0,7.097293620694677,0.6158814470395672,9.258734361675923,-0.05045419641208035,0.097,0.9999999999993329,2041.5009542537239,1.1225910884901567,226,2026-10-07 23:32:01.556243,44.1,0.03763946816976164,0.5713275164028466,0.21504758503325236
0053,cdot_cos,R,Q-R,227,45,45498,0.09645662022111615,0.0957859498847888,0.11147768056600707,0.9927261253936943,979.0,7.187271543128603,0.6170473151451535,9.29676126942369,-0.21908415636093123,0.026,0.9999999999993324,-144.63896828538458,1.1275581947055828,227,2026-10-07 23:32:01.582243,44.1,0.46315012257787375,2.043279025919617,3.460689324381799
0053,cdot_cos,S,R-S,228,45,45527,-0.018962610109626226,-0.08362888066246572,-0.11541923033074238,0.006120403413189536,979.0,7.203544130042497,0.6170544988523688,9.317324673084633,-0.03991600272236936,0.029,0.999999999999317,24940.904225156293,1.1325253064430312,228,2026-10-07 23:32:01.611244,44.1,0.011236030471932964,0.5630380747685481,0.5611236866859768
0053,cdot_cos,T,S-T,229,45,45817,-0.1281759836407869,0.03278175152064411,-0.10921337353116066,0.008031581821520455,979.0,7.219927751465179,0.6170639256913594,9.337877690202356,-0.04027918660319638,0.29,0.9999999999993012,-38.526581518168584,1.1374928242773312,229,2026-10-07 23:32:01.901243,44.1,0.9910238644834495,0.18519815124668207,0.05649524628511193
0053,cdot_cos,P,T-P,230,46,46354,0.03937158917312491,-0.0011220097887190952,0.1675475728139118,0.9993822741935047,997.0,7.310959057765572,0.6182362328657418,9.376022900320287,-0.22520418262885744,0.537,0.9999999999993009,-157.7444888734715,1.1424607334427985,230,2026-10-07 23:32:02.438244,44.1,0.4399282202850136,0.10459952096832606,0.16951826126702632
0053,cdot_cos,Q,P-Q,231,46,46451,-0.018614998537919165,-0.010048148587603783,-0.05798658771104408,0.0719437008211625,997.0,7.332267636985161,0.6183205721898891,9.397665559736616,-0.05311879614793574,0.097,0.9999999999992834,2040.3932355487404,1.147427950125022,231,2026-10-07 23:32:02.535244,44.1,0.039178284487033234,0.5786023130850976,0.21967607442875323
0053,cdot_cos,R,Q-R,232,46,46477,0.09203388889120949,0.08944649141452744,0.11064888742912865,0.9924573909876907,997.0,7.423207906504081,0.6194832964452661,9.435694966101975,-0.22816927468280446,0.026,0.9999999999992828,-150.55201413864927,1.152395054654198,232,2026-10-07 23:32:02.561243,44.1,0.4643133341748969,2.065897761289224,3.4977026738046106
0053,cdot_cos,S,R-S,233,46,46506,-0.021438169080588307,-0.10160760466576321,-0.1134720579717978,0.006665531378649707,997.0,7.439694320572201,0.6194911009063656,9.456127765649532,-0.04166527493465421,0.029,0.9999999999992664,23897.1015897931,1.157362164914516,233,2026-10-07 23:32:02.590244,44.1,0.011376044347666014,0.623454037361036,0.5684970368317169
0053,cdot_cos,T,S-T,234,46,46797,-0.08866887386698664,0.032639470192848914,-0.06723070478639834,0.04903821054806961,997.0,7.459368240671021,0.6195485163065914,9.477276433965553,-0.04983895849847171,0.291,0.9999999999992502,-142.36047352592016,1.1623296998580954,234,2026-10-07 23:32:02.881243,44.1,0.848740414788706,0.19148453697672585,0.06760797284817972
0053,cdot_cos,P,T-P,235,47,47351,0.037004814096786964,-0.0019465003591786771,0.1256736879637736,0.9960974295163495,983.0,7.5511383210926555,0.6207140511575845,9.515372873946115,-0.2339371393892389,0.554,0.99999999999925,-157.9516740609688,1.1672976687903942,235,2026-10-07 23:32:03.435244,44.1,0.45522850982147955,0.10238481581613494,0.16564996465998943
0053,cdot_cos,Q,P-Q,236,47,47444,-0.020400226587754755,-0.01038175916757157,-0.05740504068454172,0.07367495374084516,983.0,7.572810616595299,0.6208002031939742,9.536920632686805,-0.05565889158417535,0.093,0.9999999999992318,2069.3445596407814,1.172264881727381,236,2026-10-07 23:32:03.528243,44.1,0.040638043019417154,0.6113007617364008,0.23303543551229441
0053,cdot_cos,R,Q-R,237,47,47470,0.09512932653707623,0.08885880043772953,0.11552955312483099,0.9939091205409751,983.0,7.664840262775626,0.6219616875088437,9.574985453750232,-0.23784257314799928,0.026,0.9999999999992308,-156.85419013539746,1.17723198447717,237,2026-10-07 23:32:03.554244,44.1,0.46487611902079456,2.087823736909522,3.5396017761664296
0053,cdot_cos,S,R-S,238,47,47500,-0.02486609168516475,-0.10381582900662881,-0.11999541822224098,0.005007502328203403,983.0,7.681377450914594,0.621967535757452,9.59525478945116,-0.0430431825656916,0.03,0.9999999999992135,33309.01328419174,1.1821990948590055,238,2026-10-07 23:32:03.584243,44.1,0.010827419740934919,0.5879621351390085,0.5512396046322662
0053,cdot_cos,T,S-T,239,47,47794,-0.10067391874825846,0.0337956088223858,-0.0758078270630937,0.03412101198201824,983.0,7.7001179908839665,0.6220073846515821,9.616007794649656,-0.04888819827152715,0.294,0.9999999999991964,-146.67949596670735,1.187166650653616,239,2026-10-07 23:32:03.878243,44.1,0.8873118071877353,0.18977515356079422,0.06374333322915826
0053,cdot_cos,P,T-P,240,48,48334,0.034682199372774024,-0.0007664537575223591,0.1353561181210325,0.9974502445357033,995.0,7.792965241208341,0.6231715463318004,9.654139216968368,-0.2436702865151858,0.54,0.9999999999991963,-167.3153235958936,1.1921346289959887,240,2026-10-07 23:32:04.418243,44.1,0.4496132905878755,0.10617695389083114,0.1719393524525453
0053,cdot_cos,Q,P-Q,241,48,48433,-0.02305659694667334,-0.012203344373760404,-0.057738796319447366,0.07267673427232545,995.0,7.814789101086064,0.6232563147203801,9.675547347905797,-0.057693799595826344,0.099,0.9999999999991767,2193.9367969042137,1.1971018549486756,241,2026-10-07 23:32:04.517244,44.1,0.03981509843033467,0.5796577973188815,0.22044302906791083
0053,cdot_cos,R,Q-R,242,48,48458,0.09024990918255091,0.08955953941859257,0.11330650612922424,0.9932859545189135,995.0,7.9077374850774795,0.6244141015218023,9.713611272720486,-0.24722393925388697,0.025,0.9999999999991758,-163.70038026452355,1.2020689541699894,242,2026-10-07 23:32:04.542243,44.1,0.46457445512951523,2.1969215632380923,3.7179353596566145
0053,cdot_cos,S,R-S,243,48,48483,-0.020703032959649096,-0.10841111312534332,-0.1109529421422,0.007442894356516859,995.0,7.924635179247969,0.6244227717069619,9.733795166439133,-0.045258063812071696,0.025,0.9999999999991576,23294.297840713374,1.20703605429412,243,2026-10-07 23:32:04.567244,44.1,0.011533043527105656,0.725000907323583,0.6759077668195701
0053,cdot_cos,T,S-T,244,48,48773,-0.09307596304961786,0.030583489131915737,-0.07237293008996877,0.039481303488493824,995.0,7.943987530443659,0.6244687619181963,9.754521362880526,-0.0519486501331228,0.29,0.9999999999991397,-145.4784864315762,1.2120036193877153,244,2026-10-07 23:32:04.857243,44.1,0.8791565442084186,0.19511295477261612,0.06673224550237897
0053,cdot_cos,P,T-P,245,49,49329,0.04235932973684849,-0.001276938001427333,0.13543529278646635,0.9974591091631254,1002.0,8.037800693016086,0.6256299158458536,9.792664770046464,-0.2533098910737288,0.556,0.9999999999991396,-173.41476969110602,1.2169716591293185,245,2026-10-07 23:32:05.413243,44.1,0.4516171091144379,0.10553412115213294,0.16872870966263928
0053,cdot_cos,Q,P-Q,246,49,49424,-0.009607841341044934,-0.006084592513578563,-0.05196717107789343,0.09180834399506385,1002.0,8.06134147316483,0.6257367185982784,9.814304896623835,-0.06402313254687879,0.095,0.9999999999991191,1772.3022509192015,1.2219388810525005,246,2026-10-07 23:32:05.508243,44.1,0.051998678541547716,0.6169068537865591,0.24779768577625672
0053,cdot_cos,R,Q-R,247,49,49452,0.09515634372543835,0.09157673312700301,0.10476418506648329,0.9902443058991215,1002.0,8.155012995235532,0.6268879121927596,9.852324885034065,-0.2562915965350513,0.028,0.9999999999991181,-167.01662075770545,1.226905983806767,247,2026-10-07 23:32:05.536243,44.1,0.4722748377212471,1.9741698122835833,3.3454115025250655
0053,cdot_cos,S,R-S,248,49,49478,-0.024903135904690163,-0.06585543638509624,-0.12005947963012852,0.004993446098369573,1002.0,8.171894982652711,0.6268937136186533,9.872340063565446,-0.046504880873429945,0.026,0.999999999999099,36161.23337714587,1.2318730838600616,248,2026-10-07 23:32:05.562243,44.1,0.010986711654296516,0.6590651528527703,0.6493072083530321
0053,cdot_cos,T,S-T,249,49,49772,-0.12516888547535102,0.04127699680542037,-0.10026574957066085,0.01187094426921834,1002.0,8.189284383183876,0.6269075052307094,9.892441563371033,-0.04800248592379336,0.294,0.9999999999990801,-108.58810734207226,1.2368406724491783,249,2026-10-07 23:32:05.856243,44.1,0.9692831615053383,0.19096954629912766,0.05914762085430348
0053,cdot_cos,P,T-P,250,50,50331,0.03565193335226765,-0.0006319826133182186,0.16082081882761867,0.9991691234517567,1018.0,8.284185075876598,0.6280675938839604,9.930628759467998,-0.263432408832315,0.559,0.9999999999990793,-185.70125852434168,1.2418087520045011,250,2026-10-07 23:32:06.415244,44.1,0.4414102180389441,0.10538089415732964,0.1697686810245471
0053,cdot_cos,Q,P-Q,251,50,50431,-0.019471536550943375,-0.010178397019470483,-0.05512346990321103,0.08084321703080322,1018.0,8.307100222851771,0.6281613928795301,9.951956579423904,-0.06405792566906085,0.1,0.9999999999990575,2125.550299897073,1.2467759859546168,251,2026-10-07 23:32:06.515244,44.1,0.044493627900020066,0.5885648565657497,0.22915146975172718
0053,cdot_cos,R,Q-R,252,50,50456,0.09156249711451456,0.08902367664088989,0.11103403366545793,0.9925834778597049,1018.0,8.401898047189748,0.6293122570906341,9.990030911999176,-0.2665431525583942,0.025,0.9999999999990568,-175.9418921326036,1.251743081232865,252,2026-10-07 23:32:06.540244,44.1,0.46782009756839604,2.2387802201524565,3.7919129735190893
0053,cdot_cos,S,R-S,253,50,50481,-0.02367921483335116,-0.09027500925710011,-0.11524171194786571,0.006168208698623487,1018.0,8.419039233859394,0.6293194043293877,10.009946443200441,-0.04851841300818488,0.025,0.9999999999990364,30504.751144628004,1.2567101774459073,253,2026-10-07 23:32:06.565243,44.1,0.011179769348519903,0.7253960306500673,0.6856474667858237
0053,cdot_cos,T,S-T,254,50,50788,-0.10123876778801036,0.040386856609359645,-0.0775595529546592,0.03166468867208583,1018.0,8.438167848722252,0.629356094007192,10.030294156700846,-0.05425839717528943,0.307,0.9999999999990166,-156.44684038195257,1.2616778072024957,254,2026-10-07 23:32:06.872243,44.1,0.899613740577497,0.187091143715179,0.062308191735693075
0053,cdot_cos,P,T-P,255,51,51349,0.038261478974038296,-0.0008677687189581543,0.13950024676204864,0.9978752219323602,1038.0,8.533913196100514,0.6305115590890081,10.068470894499473,-0.2730807009664391,0.561,0.9999999999990162,-189.38028265397656,1.2666459256931624,255,2026-10-07 23:32:07.433243,44.1,0.4487407165573372,0.10706652802503751,0.1706690684104494
0053,cdot_cos,Q,P-Q,256,51,51448,-0.01247198034500929,-0.006938075997990982,-0.05073345931904759,0.0964466146836486,1038.0,8.558296493166344,0.6306231580808379,10.08997960540825,-0.07002847634547008,0.099,0.9999999999989938,1819.4808151196314,1.271613160824029,256,2026-10-07 23:32:07.532243,44.1,0.055047077350063874,0.6058322365397146,0.24629592995787855
0053,cdot_cos,R,Q-R,257,51,51473,0.09288082533138964,0.08662564627990971,0.10535280567639893,0.9904919104424644,1038.0,8.653867978935377,0.631768452539191,10.128027877249192,-0.2760495641764521,0.025,0.9999999999989926,-179.88482029960656,1.27658025397132,257,2026-10-07 23:32:07.557244,44.1,0.4741084469047066,2.256336329354802,3.8228594307613406
0053,cdot_cos,S,R-S,258,51,51499,-0.025682012526683232,-0.0715115026557649,-0.11856283785807287,0.0053323259740960935,1038.0,8.671113309634084,0.6317746142404472,10.147812034746634,-0.05013773776943537,0.026,0.999999999998971,36663.87204001661,1.2815473500292174,258,2026-10-07 23:32:07.583244,44.1,0.011044484841717706,0.6761905982675633,0.6632819499502537
0053,cdot_cos,T,S-T,259,51,51808,-0.12196821776108686,0.05069732734920351,-0.09628620523440364,0.01411611333798628,1038.0,8.68902989004529,0.6317909257274906,10.167721808914719,-0.05219402907650982,0.309,0.9999999999989502,-126.06400027193664,1.2865150014596667,259,2026-10-07 23:32:07.892244,44.1,0.9613689119936663,0.18557003221849455,0.05798246087769157
0053,cdot_cos,P,T-P,260,52,52387,0.033067479259453594,-0.0007023870095816934,0.15503569702054046,0.9989279117553471,980.0,8.785795589545113,0.6329444420958473,10.205931768567018,-0.28338443230445853,0.579,0.999999999998949,-200.422299648251,1.2914831912108964,260,2026-10-07 23:32:08.471244,44.1,0.44227695564736125,0.10331078659092559,0.1671255604487443
0053,cdot_cos,Q,P-Q,261,52,52490,-0.024029355683646888,-0.013331476650026283,-0.057096834943100486,0.07460794963196161,980.0,8.808663780917582,0.6330305350546287,10.226930971903569,-0.06742280206317859,0.103,0.9999999999989247,2508.470301150964,1.2964504371770478,261,2026-10-07 23:32:08.574244,44.1,0.040636245973743726,0.5804917238450261,0.22202127546086284
0053,cdot_cos,R,Q-R,262,52,52515,0.08901825086094396,0.09442977429577228,0.11304760654459085,0.9932093813418835,980.0,8.905376884657189,0.6341758267821868,10.265042253727637,-0.2867010842601664,0.025,0.9999999999989237,-191.46063567971697,1.3014175279469873,262,2026-10-07 23:32:08.599244,44.1,0.46541192124397773,2.2905127311336315,3.8685241495842604
0053,cdot_cos,S,R-S,263,52,52539,-0.014389252248648546,-0.11089406115125672,-0.10340750310959251,0.01035096224401211,980.0,8.923189417474264,0.6341877547469231,10.284806792058705,-0.053145037554901235,0.024,0.9999999999989013,19580.544700399696,1.3063846176580258,263,2026-10-07 23:32:08.623244,44.1,0.012342687016995858,0.7649720625204267,0.7421888673781277
0053,cdot_cos,T,S-T,264,52,52845,-0.0981602485424326,0.024379349238440335,-0.08377099629378405,0.02426156987893474,980.0,8.94209554365817,0.6342157120002326,10.304795337484098,-0.05652219978407618,0.306,0.9999999999988787,-120.79735415304476,1.311352280813165,264,2026-10-07 23:32:08.929244,44.1,0.9420006575904298,0.1903574004094704,0.06178472609119416
0053,cdot_cos,P,T-P,265,53,53367,0.03939097335504873,0.0009897436772947396,0.13755122189748134,0.9976849560655746,895.0,9.03968814652486,0.6353645858641406,10.342996034710541,-0.29327551603769353,0.522,0.9999999999988777,-206.0742468701408,1.316320390927468,265,2026-10-07 23:32:09.451244,44.1,0.44607298575886795,0.11551579870731701,0.1869590093231618
0053,cdot_cos,Q,P-Q,266,53,53474,-0.018030848053537166,-0.012792179698366019,-0.0574218214085859,0.07362446488274058,895.0,9.062694037508608,0.6354493064661014,10.363874843053376,-0.06959180261926423,0.107,0.9999999999988528,2640.251700782157,1.3212876488173038,266,2026-10-07 23:32:09.558244,44.1,0.04018646531995504,0.563113578690573,0.21500832695092056
0053,cdot_cos,R,Q-R,267,53,53499,0.09012663037598118,0.11832131513781258,0.10815747842951834,0.9915888037082017,895.0,9.160194452364642,0.6365895207393769,10.40196881832345,-0.2965001299048907,0.025,0.9999999999988511,-199.00498757464982,1.3262547376421423,267,2026-10-07 23:32:09.583244,44.1,0.465199407127346,2.320333889554611,3.9000165942413645
0053,cdot_cos,S,R-S,268,53,53523,-0.0019428242691382682,-0.09760238713321501,-0.09206945464511944,0.01695215295283483,895.0,9.178710731986339,0.6366090004873278,10.421748832862226,-0.056665483118756466,0.024,0.999999999998828,12311.999487390776,1.331221825352771,268,2026-10-07 23:32:09.607244,44.1,0.014516570054966286,0.7521186043601599,0.7715116509040184
0053,cdot_cos,T,S-T,269,53,53825,-0.11837362722093711,-0.004873195940216846,-0.11643080295179885,0.005854934016963065,895.0,9.19629614537393,0.6366157282979037,10.441284614244648,-0.053922263801440364,0.302,0.999999999998805,407.74324520307067,1.3361894983386968,269,2026-10-07 23:32:09.909244,44.1,0.9503987997356378,0.19243584847228987,0.0582298456542756
0053,cdot_cos,P,T-P,270,54,54262,0.0488745633516635,-0.00308276642267481,0.1672481905726006,0.9993740695721473,862.0,9.294941984463602,0.6377633078117213,10.47953103684372,-0.30397719286238567,0.437,0.9999999999988037,-217.89769340609527,1.34115746186263,270,2026-10-07 23:32:10.346244,44.1,0.4392832647993163,0.13785509317773056,0.22573418555988978
0053,cdot_cos,Q,P-Q,271,54,54356,-0.014855079072164091,-0.009910460983527642,-0.06372964242382759,0.056760625007359365,862.0,9.316781496811267,0.6378284389699992,10.499992128801303,-0.06773173854086299,0.094,0.9999999999987779,3627.2263624356897,1.3461246965210167,271,2026-10-07 23:32:10.440243,44.1,0.03056322083157817,0.6399875507963154,0.23233523774111361
0053,cdot_cos,R,Q-R,272,54,54383,0.09586395668131788,0.11531667251910388,0.11071903575348196,0.9924805131206502,862.0,9.41525964401331,0.6389664615534238,10.538115736845514,-0.3069692272512603,0.027,0.9999999999987771,-210.22209242145132,1.3510917884574256,272,2026-10-07 23:32:10.467244,44.1,0.4587025457185992,2.1582040538689022,3.6473387852608377
0053,cdot_cos,S,R-S,273,54,54409,-0.009694118209704937,-0.09246004375967108,-0.10555807489102281,0.009423214593173994,862.0,9.433324515720187,0.6389772591824446,10.557647888164382,-0.056660200154422136,0.026,0.9999999999987527,23181.85099848894,1.3560588792292043,273,2026-10-07 23:32:10.493243,44.1,0.012061674459273603,0.682650323091364,0.6948027579568498
0053,cdot_cos,T,S-T,274,54,54704,-0.1495920341541703,-0.018750288294076448,-0.13989791594446535,0.002087917349665351,862.0,9.45075746081406,0.638979651612077,10.577006147109762,-0.054780991503439305,0.295,0.9999999999987284,785.4812637040314,1.3610265555833618,274,2026-10-07 23:32:10.788243,44.1,0.9662776847751049,0.1983300426358164,0.059094729131772314
0053,cdot_cos,P,T-P,275,55,55124,0.039156860536075165,-0.0006447702539660143,0.18874889469024547,0.9997573932872942,838.0,9.550339240875319,0.6401244245263947,10.615273764074887,-0.3144268139388475,0.42,0.999999999998728,-226.80989320066342,1.3659945101971271,275,2026-10-07 23:32:11.208243,44.1,0.43789546384972844,0.14341480410893861,0.23709947633633058
0053,cdot_cos,Q,P-Q,276,55,55227,-0.03127375572364773,-0.021190123760019254,-0.0704306162597229,0.04286084114986141,838.0,9.571225896265569,0.6401734668499232,10.63537179133714,-0.06636325434522584,0.103,0.9999999999987013,5058.152667865372,1.3709617685877242,276,2026-10-07 23:32:11.311244,44.1,0.023802478476650887,0.5843994872318469,0.20278306204125812
0053,cdot_cos,R,Q-R,277,55,55251,0.08470325438821295,0.11904545659847586,0.11597701011186068,0.9940274220719677,838.0,9.67072553524508,0.6413100321701318,10.673537591078007,-0.3176889599779821,0.024,0.9999999999987009,-221.12737487592295,1.3759288527933777,277,2026-10-07 23:32:11.335244,44.1,0.45334303014331656,2.5654966601214766,4.145818290812953
0053,cdot_cos,S,R-S,278,55,55275,0.027704976178745087,-0.1651266709028878,-0.056998278209467866,0.07490858411100806,838.0,9.6943697359514,0.6413956181343204,10.694213527436137,-0.07596793176380406,0.024,0.9999999999986775,2824.3068884690697,1.380895938022959,278,2026-10-07 23:32:11.359244,44.1,0.041507446183371065,0.8698732630693096,0.9851750294300002
0053,cdot_cos,T,S-T,279,55,55583,-0.08072652818145999,-0.015927611334168628,-0.10843150436020507,0.008311002218813628,838.0,9.712479451872406,0.6414051132219778,10.713589036165075,-0.05831062661952745,0.308,0.9999999999986529,1859.6252906211903,1.385863662628127,279,2026-10-07 23:32:11.667244,44.1,0.7387360951428373,0.19183593595677337,0.05879777896430796
0053,cdot_cos,P,T-P,280,56,55962,0.03768352813638307,-0.0009096692428871966,0.11841005631784307,0.9946318188052428,835.0,9.812540672500772,0.6425406500259936,10.751773203207133,-0.32368963207022633,0.379,0.9999999999986527,-233.7035704278313,1.3908315525382864,280,2026-10-07 23:32:12.046243,44.1,0.44049492002367385,0.16038855538467348,0.2640137747450278
0053,cdot_cos,Q,P-Q,281,56,56062,-0.030005595625049956,-0.019026507880427892,-0.06768912376143303,0.048104004281818734,835.0,9.834053976853989,0.6425955282743072,10.771875881993747,-0.07002233014867211,0.1,0.9999999999986261,4622.365139496649,1.395798809003793,281,2026-10-07 23:32:12.146244,44.1,0.026711450129532632,0.6098084112728586,0.21513304353216967
0053,cdot_cos,R,Q-R,282,56,56087,0.0884404860960317,0.12013706701378746,0.11844608172108165,0.9946402948982851,835.0,9.934502354755343,0.6437293989699486,10.810066849299558,-0.3285076099806745,0.025,0.9999999999986262,-227.96715782991546,1.400765894560047,282,2026-10-07 23:32:12.171244,44.1,0.4552779535444826,2.44714056108851,4.01793511605419
0053,cdot_cos,S,R-S,283,56,56112,0.02241597407675343,-0.1442204995191465,-0.06602451201927827,0.051579142037609896,835.0,9.956411004908414,0.6437881543966043,10.830205069548656,-0.07208852707030619,0.025,0.9999999999986022,4364.1770216912255,1.4057329811446393,283,2026-10-07 23:32:12.196243,44.1,0.028524193271910008,0.8035317262550024,0.8763460061228301
0053,cdot_cos,T,S-T,284,56,56402,-0.08611391615467204,-0.017399648137510913,-0.10852989023142547,0.008275318178284526,835.0,9.974678941068094,0.6437975806694807,10.849481666996633,-0.060229778781012135,0.29,0.9999999999985769,1258.052726123105,1.410700684120781,284,2026-10-07 23:32:12.486243,44.1,0.8212795082432865,0.20573461163792342,0.06299288330923919
0053,cdot_cos,P,T-P,285,57,56797,0.03846478896031724,-0.0014065467661089964,0.12457870511498928,0.995905145758965,863.0,10.07573707965841,0.6449311837326405,10.88770369104933,-0.3347070085078395,0.395,0.9999999999985772,-242.12816518133985,1.4156686372485754,285,2026-10-07 23:32:12.881243,44.1,0.44040865004121243,0.1554753285629771,0.2558433888362435
0053,cdot_cos,Q,P-Q,286,57,56893,-0.02884980479111441,-0.01709440385117857,-0.06731459375143165,0.0488659774286454,863.0,10.097504450632846,0.6449867643995874,10.907728445804052,-0.07253063522175361,0.096,0.9999999999985502,4717.042592105387,1.4206358889495765,286,2026-10-07 23:32:12.977243,44.1,0.026925043769882483,0.6417951067306527,0.22674344765037194
0053,cdot_cos,R,Q-R,287,57,56920,0.0967702890134964,0.11946044680084274,0.1256200938046108,0.9960882309966108,863.0,10.198961740150695,0.6461188711369625,10.945960386362637,-0.3396391287757359,0.027,0.999999999998551,-235.93931979707133,1.425602978350323,287,2026-10-07 23:32:13.004243,44.1,0.45545974521215554,2.2262122761903904,3.7576773895499853
0053,cdot_cos,S,R-S,288,57,56948,-0.0033851086104282335,-0.11067048735192865,-0.10015539762392463,0.011928164493382128,863.0,10.217719913547127,0.6461324182334443,10.96524330279092,-0.06316587753661515,0.028,0.9999999999985248,20408.30310851509,1.4305700711802498,288,2026-10-07 23:32:13.032243,44.1,0.0125637458714764,0.6593105638471438,0.6699347641582674
0053,cdot_cos,T,S-T,289,57,57240,-0.12249582125321001,-0.010071198471171416,-0.11911071264278178,0.005205696765838755,863.0,10.235883131726135,0.6461383303919604,10.9843641746126,-0.06127258227590262,0.292,0.999999999998499,320.2375672989233,1.4355377975933044,289,2026-10-07 23:32:13.324243,44.1,0.9695729611390486,0.20613201295174058,0.06220280198290606
0053,cdot_cos,P,T-P,290,58,57660,0.04035427901270934,-0.0005824938577553094,0.16285010026591934,0.9992401955914167,937.0,10.338101009110943,0.6472723476675998,11.022663665521518,-0.3463506572786146,0.42,0.9999999999985,-251.3877708273816,1.4405058376533417,290,2026-10-07 23:32:13.744244,44.1,0.4390724250083726,0.14939811100904488,0.24337589853525696
0053,cdot_cos,Q,P-Q,291,58,57763,-0.020286254449300965,-0.012625633883548358,-0.0606405334620103,0.06451016173209005,937.0,10.361377544973733,0.647345502114163,11.04290014684142,-0.07934284264489075,0.103,0.9999999999984723,3649.9191392701887,1.4454731104591543,291,2026-10-07 23:32:13.847244,44.1,0.03455367569579054,0.6086344573354932,0.22598578507562886
0053,cdot_cos,R,Q-R,292,58,57788,0.09324163958501894,0.10686116055157219,0.1135278940343199,0.9933507524374655,937.0,10.463479707322055,0.6484710869035002,11.081091957819078,-0.3496333283022125,0.025,0.9999999999984732,-240.13338507930393,1.45044019379089,292,2026-10-07 23:32:13.872243,44.1,0.4615945259279275,2.4191831724674984,4.0840864939328725
0053,cdot_cos,S,R-S,293,58,57811,-0.008281219360943066,-0.11461205288924786,-0.101522858945962,0.011237940922953667,937.0,10.482336703597108,0.6484838114217358,11.100267998609484,-0.06494695566882466,0.023,0.9999999999984468,22373.0570667893,1.4554072731987,293,2026-10-07 23:32:13.895243,44.1,0.012483250813131282,0.827253678629772,0.8198694032631786
0053,cdot_cos,T,S-T,294,58,58099,-0.10234598961688819,0.016646805297669962,-0.09406477025594512,0.015546419859248229,937.0,10.501533376539024,0.6485014140053847,11.119496097515517,-0.06623546314411706,0.288,0.9999999999984205,-73.1999063882879,1.4603750086711647,294,2026-10-07 23:32:14.183244,44.1,0.9807345590937675,0.21214320782996418,0.06665511438165418
0053,cdot_cos,P,T-P,295,59,58597,0.03982384842885076,-0.001316419967491335,0.14216983804573896,0.9981107604478442,940.0,10.604531191307167,0.649630687847094,11.157786862796693,-0.35692095068321916,0.498,0.9999999999984217,-257.40921006292587,1.465343272053736,295,2026-10-07 23:32:14.681243,44.1,0.4428937416122495,0.12730543473303507,0.2068229212211706
0053,cdot_cos,Q,P-Q,296,59,58697,-0.01942487129765892,-0.011687730377464536,-0.059248719726509684,0.06831480097242457,940.0,10.628329589533127,0.6497079188866101,11.17801150338775,-0.08295625730059586,0.1,0.9999999999983933,3547.339192885324,1.4703105413612128,296,2026-10-07 23:32:14.781244,44.1,0.0367903412618381,0.6336616015297203,0.2379839822595997
0053,cdot_cos,R,Q-R,297,59,58723,0.09265091640691135,0.10273491902357568,0.11207578770457027,0.9929141350166594,940.0,10.731263511613111,0.6508295376977662,11.216207012237868,-0.36041296828406855,0.026,0.9999999999983941,-247.37166337062243,1.4752776253510955,297,2026-10-07 23:32:14.807244,44.1,0.46309179286527297,2.3437880048631405,3.9589970030763113
0053,cdot_cos,S,R-S,298,59,58747,-0.010636092336640474,-0.10494843726376066,-0.10328700874355183,0.010405537741044288,940.0,10.75020656578601,0.6508412832226855,11.235276384382852,-0.06670471039175949,0.024,0.9999999999983669,25005.97120259409,1.4802447052828855,298,2026-10-07 23:32:14.831244,44.1,0.012239201914348224,0.7918808812843089,0.7892939238708004
0053,cdot_cos,T,S-T,299,59,59037,-0.11033297489922957,0.01843195923617775,-0.09969688256258909,0.01216884823832309,940.0,10.769273793914758,0.6508550188984673,11.25434921875506,-0.06725954457476188,0.29,0.9999999999983391,-40.39365749579096,1.4852124641166482,299,2026-10-07 23:32:15.121243,44.1,0.9917847792385707,0.21197017683955147,0.06574906251292281
0053,cdot_cos,P,T-P,300,60,59537,0.03325295018366186,-0.0007453628951299877,0.14358592508289142,0.99822493092715,899.0,10.87314926835295,0.6519809177958047,11.292654835525639,-0.36796032761021213,0.5,0.9999999999983407,-267.07618574507114,1.4901807670524723,300,2026-10-07 23:32:15.621243,44.1,0.4416622661712342,0.12664095802993813,0.20775094887638446
0053,cdot_cos,Q,P-Q,301,60,59643,-0.031656812746992384,-0.019730761021607635,-0.06490976293065424,0.05403771124010704,899.0,10.895914751944696,0.6520418186949348,11.312517279320408,-0.08110797946432034,0.106,0.9999999999983101,4710.149640532249,1.4951480556619818,301,2026-10-07 23:32:15.727243,44.1,0.029110034162537782,0.5974626364950343,0.21476871312967835
0053,cdot_cos,R,Q-R,302,60,59668,0.08466263496937722,0.10851652032911342,0.1163194477163696,0.9941164126416201,899.0,10.999811347289898,0.6531613067557787,11.35074791303392,-0.3717515554722802,0.025,0.9999999999983111,-259.62186304057826,1.5001151350969808,302,2026-10-07 23:32:15.752243,44.1,0.4575715173167089,2.534231784530334,4.155863813808054
0053,cdot_cos,S,R-S,303,60,59691,0.019475899856861528,-0.16299305813455306,-0.06518673511251569,0.05341672657659544,899.0,11.022626341171213,0.6532214122461462,11.370571235296831,-0.08209994684198313,0.023,0.999999999998284,4819.054080738519,1.5050822103450108,303,2026-10-07 23:32:15.775244,44.1,0.02936251276676835,0.9380822715150201,0.9919562557093635
0053,cdot_cos,T,S-T,304,60,59996,-0.06362376301067116,0.00011061356428350223,-0.08309966286753269,0.02497238614116566,899.0,11.042963131779588,0.6532495099614392,11.38980897235116,-0.07332272857965709,0.305,0.9999999999982562,312.38192040880625,1.5100500275187796,304,2026-10-07 23:32:16.080243,44.1,0.8871806523247711,0.2036396124540404,0.06667800199467398
0053,cdot_cos,P,T-P,305,61,60436,0.03701950779547552,-0.00034984818726161885,0.10064327080614668,0.9883227665332484,843.0,11.146846504768178,0.6543606633933006,11.427932515105978,-0.3760833384286736,0.44,0.9999999999982571,-272.47417068390814,1.515018206915174,305,2026-10-07 23:32:16.520243,44.1,0.4470718514007358,0.14456478675911297,0.23609857497406608
0053,cdot_cos,Q,P-Q,306,61,60543,-0.026029505258951216,-0.019002308180650802,-0.06304901305442673,0.058389178491495226,843.0,11.170180144127608,0.6544262567416741,11.447799290778834,-0.08495025700864574,0.107,0.9999999999982264,4438.454334761883,1.519985502984127,306,2026-10-07 23:32:16.627244,44.1,0.03248097795132297,0.5981484398240202,0.2180713958825265
0053,cdot_cos,R,Q-R,307,61,60568,0.08672972174186194,0.12789423930315177,0.11275922700081316,0.9931230675975802,843.0,11.274850270890518,0.6555410118349827,11.486021706731043,-0.3826700287903214,0.025,0.9999999999982272,-267.07190984706784,1.524952580809653,307,2026-10-07 23:32:16.652243,44.1,0.459320752722998,2.5711363178930213,4.1868050705163995
0053,cdot_cos,S,R-S,308,61,60600,0.025721244811264556,-0.14625178361802768,-0.06100847693059738,0.06353781909934415,843.0,11.298736960022259,0.6556122733260085,11.505963981150753,-0.0878204584952269,0.032,0.9999999999981999,4137.572285548882,1.5299196786641578,308,2026-10-07 23:32:16.684243,44.1,0.034825226956480534,0.6705258641521439,0.7464590353669087
0053,cdot_cos,T,S-T,309,61,60894,-0.08354009667982377,-0.01912555803938902,-0.10926134149108833,0.008014745900768425,843.0,11.317763926196255,0.6556212618491929,11.524785343579936,-0.07008560776937381,0.294,0.9999999999981702,1973.0550127053073,1.5348874866254651,309,2026-10-07 23:32:16.978244,44.1,0.7764325193831849,0.2113717130708834,0.064717572020395
0053,cdot_cos,P,T-P,310,62,61279,0.03362722692255881,7.281661276933004e-05,0.11716732360238258,0.9943311215125165,814.0,11.423023527307938,0.6567355368051118,11.563037855909343,-0.38925184872732893,0.385,0.9999999999981715,-286.43400738981825,1.5398555473518565,310,2026-10-07 23:32:17.363244,44.1,0.44045459590938657,0.16686409837302174,0.2734015613290475
0053,cdot_cos,Q,P-Q,311,62,61383,-0.030873841875251454,-0.02187406637751858,-0.06450106879781026,0.05496646539751962,814.0,11.446249281943482,0.6567970835544948,11.58275862358424,-0.08636719293960879,0.104,0.9999999999981405,4921.212880025665,1.5448228405621685,311,2026-10-07 23:32:17.467244,44.1,0.029988507102473545,0.6196956290504498,0.22332456380330232
0053,cdot_cos,R,Q-R,312,62,61409,0.08836976320242694,0.1352978281792852,0.1192436050776784,0.9948245648583364,814.0,11.551920218150432,0.6579100907587849,11.621025133232298,-0.3945478901881467,0.026,0.9999999999981424,-276.89011900431194,1.5497899200296203,312,2026-10-07 23:32:17.493243,44.1,0.45790280764795804,2.4577546499367457,4.064266777190389
0053,cdot_cos,S,R-S,313,62,61441,0.017094771926623585,-0.12918863552040125,-0.07127499127580336,0.04135897975143381,814.0,11.574052523740193,0.6579563255683262,11.640451623878008,-0.08309018965479961,0.032,0.9999999999981127,6736.433081994167,1.5547570173007914,313,2026-10-07 23:32:17.525243,44.1,0.02355471446324512,0.6377428576571642,0.6916345496800202
0053,cdot_cos,T,S-T,314,62,61733,-0.11986264219096146,-0.04714191499016306,-0.13695741411758505,0.0023763225980239903,814.0,11.59273576104049,0.6579589819455797,11.65907881913061,-0.07026507387250698,0.292,0.9999999999980826,4828.04758451151,1.5597248398248271,314,2026-10-07 23:32:17.817244,44.1,0.8331640140892893,0.21438795255641813,0.06398368938458172
0053,cdot_cos,P,T-P,315,63,62093,0.0376081055198413,-0.0005510857126853442,0.15747074771080277,0.9990369675697781,840.0,11.69925508803314,0.6590748784710717,11.697434896930524,-0.4021359183499847,0.36,0.9999999999980848,-297.4028835972425,1.5646928577760373,315,2026-10-07 23:32:18.177243,44.1,0.43811653775684456,0.18041932259491084,0.2958870194240287
0053,cdot_cos,Q,P-Q,316,63,62196,-0.02703072711787509,-0.018266163661677583,-0.06463883263771639,0.05465173050862735,840.0,11.722637673308826,0.6591358722383858,11.71707210879111,-0.08875956943782208,0.103,0.9999999999980534,5137.842155225443,1.5696601534838266,316,2026-10-07 23:32:18.280244,44.1,0.02928673995712511,0.630961130989572,0.22701539102607268
0053,cdot_cos,R,Q-R,317,63,62221,0.09668629453198133,0.13710632900636194,0.12371702164985642,0.995747220471355,840.0,11.829233081016993,0.6602462462939821,11.755366812557156,-0.4062357815353457,0.025,0.9999999999980552,-285.9182547515682,1.5746272292296184,317,2026-10-07 23:32:18.305243,44.1,0.45771559521039556,2.537071224790637,4.263816308326653
0053,cdot_cos,S,R-S,318,63,62245,0.0062958298532075204,-0.11485122445031941,-0.0903904646787738,0.0182312346939015,840.0,11.849491234548358,0.6602665598763036,11.77425601741645,-0.07761760820210757,0.024,0.9999999999980248,16177.263474893243,1.5795943031785802,318,2026-10-07 23:32:18.329243,44.1,0.014497057489051713,0.8191048898618103,0.8440897304735628
0053,cdot_cos,T,S-T,319,63,62533,-0.1137970833822305,-0.023467530032035076,-0.12009291323543803,0.0049861257596613045,840.0,11.86855011573036,0.6602721154081054,11.792853665295125,-0.07314335983584325,0.288,0.9999999999979947,805.3681494186385,1.5845621344797636,319,2026-10-07 23:32:18.617243,44.1,0.9406624254622507,0.21943633422173242,0.06617667077083815
0053,cdot_cos,P,T-P,320,64,62933,0.03843161443430024,0.0006779733784506991,0.15222869781653076,0.9987868069408584,894.0,11.975886563060076,0.6613840709160417,11.83121478993677,-0.4134656680391301,0.4,0.9999999999979967,-306.0574868097889,1.5895302936849258,320,2026-10-07 23:32:19.017244,44.1,0.4390697930840981,0.16367371508364092,0.2683411183242912
0053,cdot_cos,Q,P-Q,321,64,63042,-0.026013244805646044,-0.0180402572658815,-0.06444485923994628,0.05509537133763894,894.0,11.999489087797272,0.6614453572412307,11.85078504810946,-0.09140943954231201,0.109,0.9999999999979645,5254.944353470952,1.5944976117691827,321,2026-10-07 23:32:19.126244,44.1,0.029504064303576508,0.6002394220921857,0.21653692419446113
0053,cdot_cos,R,Q-R,322,64,63067,0.08884756993939123,0.12082689975443,0.11486081474503727,0.9937279606465099,894.0,12.106738757076172,0.662549817164554,11.889048721265047,-0.416962948053971,0.025,0.9999999999979667,-294.7626270875196,1.5994646861996984,322,2026-10-07 23:32:19.151244,44.1,0.45805169418170255,2.60414948672846,4.289986771156009
0053,cdot_cos,S,R-S,323,64,63097,0.020477768029299112,-0.14865323092421137,-0.06836980191009212,0.04674798032627349,894.0,12.129696562133695,0.6626017307708935,11.9084286397006,-0.08973026641542692,0.03,0.9999999999979365,6303.408773002206,1.604431776451415,323,2026-10-07 23:32:19.181243,44.1,0.026073170725984755,0.7141598874868945,0.7652601685840921
0053,cdot_cos,T,S-T,324,64,63391,-0.07835407056313164,-0.0015567911984409855,-0.09883183859243075,0.012636059897832121,894.0,12.149588350325386,0.6626157624354727,11.92710104272158,-0.07788266034231402,0.294,0.9999999999979061,844.3478680806525,1.6093996454285253,324,2026-10-07 23:32:19.475244,44.1,0.8588841520562859,0.2172136748080884,0.06765914350915275
0053,cdot_cos,P,T-P,325,65,63827,0.04142492489976708,-0.0021934605574496432,0.11977899546289872,0.9949447188116182,884.0,12.257418202920851,0.663719694308141,11.965394536752576,-0.4237246178705616,0.436,0.9999999999979082,-313.28197517506965,1.6143679406413842,325,2026-10-07 23:32:19.911244,44.1,0.4421106443761228,0.15192993984359304,0.24731617567767217
0053,cdot_cos,Q,P-Q,326,65,63925,-0.01912132695303029,-0.011612126015419251,-0.06054625185279737,0.0647615350854994,884.0,12.282071257869,0.6637914881066496,11.985085389085835,-0.0973914974441932,0.098,0.9999999999978751,4545.422128453399,1.6193352309586317,326,2026-10-07 23:32:20.009243,44.1,0.03505856892992626,0.6771661653882903,0.25156178518518435
0053,cdot_cos,R,Q-R,327,65,63951,0.09533829261002358,0.11499393679900326,0.11445961956305387,0.993616718451331,884.0,12.390142771336956,0.6648920487887727,12.023354965038752,-0.4285477718068284,0.026,0.9999999999978773,-300.8977875929384,1.6243023067502091,327,2026-10-07 23:32:20.035244,44.1,0.4617458589472879,2.4701112258633806,4.156596671844494
0053,cdot_cos,S,R-S,328,65,63980,0.0020054339908012505,-0.10672237282038517,-0.09333285861922233,0.0160482182105973,884.0,12.410517041613895,0.6649098096294681,12.042046901738786,-0.08121088636187725,0.029,0.9999999999978451,19556.331336010568,1.6292693927143036,328,2026-10-07 23:32:20.064243,44.1,0.013884607274538087,0.6877897144479624,0.7025610440323773
0053,cdot_cos,T,S-T,329,65,64270,-0.11097678936172853,-0.0020531468537808126,-0.11298222335252978,0.006810093440843302,884.0,12.430034574774938,0.6649173463365643,12.060526391163807,-0.0779202422043297,0.29,0.9999999999978139,436.6156353895225,1.63423726964122,329,2026-10-07 23:32:20.354244,44.1,0.9586483760198822,0.2215851527454956,0.06730183848635475
0053,cdot_cos,P,T-P,330,66,64711,0.041503071512359116,0.0014411704829517113,0.15247986087408766,0.9988001544400329,911.0,12.539036430206282,0.6660218029666154,12.098905243806955,-0.4367036667809479,0.441,0.9999999999978163,-324.85062320647114,1.6392056117591656,330,2026-10-07 23:32:20.795244,44.1,0.4397399207604627,0.15238656786987514,0.2471697402071305
0053,cdot_cos,Q,P-Q,331,66,64821,-0.016803179848732704,-0.012304392239977088,-0.05830625136109182,0.07100812504448603,911.0,12.564439527636168,0.6661002534651136,12.118650771643646,-0.10231059163078694,0.11,0.9999999999977827,4262.47227935531,1.6441729431138015,331,2026-10-07 23:32:20.905244,44.1,0.038066862812268405,0.607769265584687,0.23093724936259397
0053,cdot_cos,R,Q-R,332,66,64850,0.0816036064007883,0.11529013104058408,0.09840678624952101,0.9871279233343636,911.0,12.672745668634914,0.6671898889427459,12.156797225967596,-0.437808257334351,0.029,0.999999999997784,-307.8989924525736,1.6491400264321632,332,2026-10-07 23:32:20.934243,44.1,0.4647238721901174,2.234942043662258,3.734694517198131
0053,cdot_cos,S,R-S,333,66,64875,-0.001640842207044938,-0.09402836645908025,-0.08324444860783324,0.02481738867006448,911.0,12.694066166168579,0.667217260508033,12.175591349596006,-0.08662350644332659,0.025,0.9999999999977518,12830.276500724005,1.654107098437939,333,2026-10-07 23:32:20.959244,44.1,0.017350209138743373,0.8151803814112313,0.8528199013466065
0053,cdot_cos,T,S-T,334,66,65170,-0.12496503176913155,-0.003087218642153214,-0.12332418956208661,0.004326774551529768,911.0,12.713504687705475,0.6672220324736499,12.193946496830518,-0.07910352716510838,0.295,0.9999999999977194,1575.8661905734489,1.6590750107802554,334,2026-10-07 23:32:21.254244,44.1,0.9093137987751828,0.21917094977904297,0.06589329334541154
0053,cdot_cos,P,T-P,335,67,65622,0.040882139110927675,-0.001262799841958083,0.16584717088005924,0.9993342033432299,865.0,12.823377026538214,0.6683232699873135,12.232343473596961,-0.44864392517584933,0.452,0.9999999999977206,-335.5682978700372,1.6640434195965639,335,2026-10-07 23:32:21.706244,44.1,0.43881250490501805,0.14800441670619022,0.24308039564765252
0053,cdot_cos,Q,P-Q,336,67,65724,-0.024637297968494436,-0.015960265634265308,-0.06551943707942211,0.05267969524293764,865.0,12.847300680407871,0.6683812705549613,12.25165073044225,-0.09819120016131397,0.102,0.9999999999976859,6042.229226832518,1.6690107306773958,336,2026-10-07 23:32:21.808243,44.1,0.028181632270508676,0.6546746068219185,0.23454562617310787
0053,cdot_cos,R,Q-R,337,67,65750,0.08699780810829806,0.11687544236440743,0.1116351060767925,0.992776085591912,865.0,12.956930646329885,0.669473364064831,12.289917008390905,-0.4515480013781975,0.026,0.9999999999976877,-323.5591073689627,1.6739778028672267,337,2026-10-07 23:32:21.834244,44.1,0.4572406786738141,2.5691741983944367,4.2165371508467056
0053,cdot_cos,S,R-S,338,67,65778,0.021212406647088046,-0.1376132916668277,-0.06578540146121001,0.05209742500955958,865.0,12.980897738724382,0.6695306230320978,12.309190463408571,-0.0992190424211876,0.028,0.9999999999976554,6153.253818145913,1.67894488256852,338,2026-10-07 23:32:21.862243,44.1,0.028695310649197243,0.7924203824953211,0.8559675855177267
