record_id,input,event,transition,event_index,k,peak,value_cos,value_sin,value_return,x_input,rr,knowledge,decision,decision_norm,entropy,delta_t,cosine_similarity,delta_h_over_delta_d,frobenius_norm,matrix_size,timestamp,scale,P,zdot,zdot_back
0314,cdot_cos,Q,P-Q,1,0,915,-0.01570287833139034,-0.008488321474106901,-0.1065214224421544,0.03010202700574477,804.0,0.00014952102848079767,0.5000373802570506,0.5000373802570506,,,1.0,,0.004967141530112327,1,2026-10-07 21:46:16.999244,32.6,,,
0314,cdot_cos,R,Q-R,2,0,942,0.13166627621452498,0.1295175656632028,0.14736915454591532,0.9918716393198606,804.0,0.0071789551108092904,0.5012690692349844,0.7089015161102529,-9.290001734549943e-06,,1.0,,0.009934283060224654,2,2026-10-07 21:46:17.026243,32.6,,,
0314,cdot_cos,S,R-S,3,0,998,-0.001577085718333498,-0.003913916287717486,-0.1332433619328585,0.012821421852792133,804.0,0.008902695524610527,0.5012849905853639,0.8682510727655366,-4.999011899872166e-06,0.056,1.0000000000000002,0.2695116766096592,0.014901424597204315,3,2026-10-07 21:46:17.082243,32.6,0.4238534172474313,0.02773000501263936,0.03078107881787923
0314,cdot_cos,T,S-T,4,0,1246,-0.23597172342076078,0.03024101637702928,-0.23439463770242727,0.0004799899967767273,804.0,0.010284715672224899,0.5012855866259871,1.0025711732520834,-4.782031560835871e-06,0.248,0.9999999999999998,0.3640361589361301,0.019868566160259633,4,2026-10-07 21:46:17.330244,32.6,0.9556399178984777,0.027626099249885936,0.005572661885541821
0314,cdot_cos,P,T-P,5,1,1649,0.08805855567415401,0.0023462357414338847,0.3240302790949148,0.9999741555051099,837.0,0.022605240752553952,0.5025273212240001,1.1236852508084914,-7.307451996051414e-05,0.403,1.0,-0.05499765288730568,0.02483570780230882,5,2026-10-07 21:46:17.733243,32.6,0.39275882930077466,0.018446687688375145,0.030572022531833876
0314,cdot_cos,Q,P-Q,6,1,1733,-0.016478207712283272,-0.01055572193412027,-0.10453676338643728,0.03204952731785939,837.0,0.025152745949055266,0.5025671188256127,1.2310330026254352,-2.1939877201595532e-05,0.084,1.0000000000000002,1.284867446454339,0.02980284935912459,6,2026-10-07 21:46:17.817244,32.6,0.09723045153780562,0.1043965269982126,0.03032744281549183
0314,cdot_cos,R,Q-R,7,1,1760,0.11722252218511106,0.1337635496135509,0.13370072989739434,0.9873659325853477,837.0,0.04014385728825367,0.5037931651939058,1.3329114273200968,-0.00017651595873235086,0.027,1.0000000000000002,-0.12607686424286635,0.034769990889667396,7,2026-10-07 21:46:17.844243,32.6,0.4165678251570668,0.33428104945341425,0.5552263458962372
0314,cdot_cos,S,R-S,8,1,1816,-0.0013500038279782697,-0.004186148976429231,-0.11857252601308933,0.02052316482072994,837.0,0.043203922619539634,0.5038186490833629,1.4250143330236829,-4.599217566443184e-05,0.056,0.9999999999999999,5.121815619534217,0.03973713247906941,8,2026-10-07 21:46:17.900243,32.6,0.05854519464371737,0.050732696001261596,0.05464402377296365
0314,cdot_cos,T,S-T,9,1,2048,-0.2895287174623272,-0.020061642491844823,-0.28817871363434894,8.316289935218341e-05,837.0,0.04582591924039497,0.503818752347812,1.5114562570488337,-4.2094654352451435e-05,0.232,0.9999999999999996,37.743108551330465,0.044704274328669066,9,2026-10-07 21:46:18.132244,32.6,0.9115676585475677,0.04484527881017231,0.0113017095726523
0314,cdot_cos,P,T-P,10,2,2486,0.0748444156577626,-0.0030125114314838706,0.36437313312008984,0.9999930625138633,838.0,0.06401213198745959,0.5050604305755507,1.5971413166594732,-0.000360192902005321,0.438,1.0,-0.2561841228642484,0.04967141668149522,10,2026-10-07 21:46:18.570244,32.6,0.4134854194493811,0.025186866152420176,0.041521033669097304
0314,cdot_cos,Q,P-Q,11,2,2558,-0.01836186690479877,-0.0096409892571715,-0.09320628256256137,0.04571548362270632,838.0,0.06788961398991504,0.5051171935144645,1.6752842060802933,-9.222303180531995e-05,0.072,1.0,4.720859689930608,0.05463855828159304,11,2026-10-07 21:46:18.642244,32.6,0.054712018341721756,0.16605006082146445,0.0538539167007702
0314,cdot_cos,R,Q-R,12,2,2586,0.11923788617254245,0.11592789181179047,0.13759975307734124,0.9888571511521848,838.0,0.08792334074575046,0.506344979923223,1.7540304628094476,-0.0005628334743397303,0.028,1.0,-0.3832999283729355,0.05960569978708911,12,2026-10-07 21:46:18.670244,32.6,0.43337794316158196,0.4275768692766754,0.7154902412798365
0314,cdot_cos,S,R-S,13,2,2637,-0.0036283372044390526,-0.05457361728490638,-0.12286622337698151,0.01789039600921516,838.0,0.09183391866940886,0.5063671923653754,1.8257328763284622,-0.00012674811274773407,0.051,1.0000000000000002,19.6324815884795,0.06457284142718055,13,2026-10-07 21:46:18.721244,32.6,0.03204651294984466,0.0728750452688769,0.07667799850310585
0314,cdot_cos,T,S-T,14,2,2885,-0.18157768037060723,0.04038067568152386,-0.17794934316616817,0.0030149618471808355,838.0,0.09535659536317591,0.5063709356934355,1.894666552034619,-0.00011889693498701252,0.248,1.0,2.0973790260195906,0.06953998392646392,14,2026-10-07 21:46:18.969243,32.6,0.9360995280190363,0.052625582457308105,0.014204341507125186
0314,cdot_cos,P,T-P,15,3,3324,0.07224518305267968,-0.004592286770066857,0.2538228634232869,0.9997451614163825,841.0,0.11793620756823368,0.507612161242389,1.9659734469171395,-0.000868313513161052,0.439,0.9999999999999999,-0.6037714731266336,0.07450712758673342,15,2026-10-07 21:46:19.408243,32.6,0.42186436710511815,0.03144167331316909,0.051434196366874206
0314,cdot_cos,Q,P-Q,16,3,3393,-0.013093279460808713,-0.006853575699839827,-0.0853384625134884,0.058302788007871476,841.0,0.12296238453213837,0.5076845438514594,2.0307381755801726,-0.00021830012924464452,0.069,1.0000000000000002,8.980242523218752,0.07947426926460079,16,2026-10-07 21:46:19.477243,32.6,0.050914202244779154,0.21083176290107503,0.07284314440441572
0314,cdot_cos,R,Q-R,17,3,3421,0.1292561905056675,0.11842986395832195,0.1423494699664762,0.9904402950290626,841.0,0.14703099084858204,0.5089141186510258,2.0983066657558775,-0.0011715222543787996,0.028,1.0,-0.7752453331593725,0.08444141072220826,17,2026-10-07 21:46:19.505243,32.6,0.4432323593425192,0.5109131180168728,0.859593082730131
0314,cdot_cos,S,R-S,18,3,3474,-0.002892982793529424,-0.007867271015386569,-0.13214917329919693,0.01328084020080902,841.0,0.15157351914108325,0.5089306053526518,2.159209693384026,-0.00024453441205117224,0.053,1.0,56.22639769647854,0.089408552451607,18,2026-10-07 21:46:19.558244,32.6,0.02257690540703259,0.08206570463180195,0.08570808099058883
0314,cdot_cos,T,S-T,19,3,3721,-0.27573764542725887,0.033280941209157616,-0.2728446626337295,0.0001370899742661433,841.0,0.15572995553955304,0.5089307755346676,2.2183778200272664,-0.00023026852809420159,0.247,1.0000000000000002,83.8272122282137,0.09437569588228907,19,2026-10-07 21:46:19.805243,32.6,0.9399268262458657,0.061569894883028976,0.016827677726598374
0314,cdot_cos,P,T-P,20,4,4165,0.07396689874953348,-0.0010244834206668742,0.34970454417679236,0.9999888087611518,857.0,0.18198904721329956,0.5101720932345968,2.28155896171803,-0.0015986005716135641,0.444,1.0,-1.1023221884271996,0.09934284150698966,20,2026-10-07 21:46:20.249243,32.6,0.4248767368516256,0.036254559846236045,0.05914209836429395
0314,cdot_cos,Q,P-Q,21,4,4241,-0.008688758971887521,-0.005220183217892379,-0.082655657721421,0.06329426596676453,857.0,0.18792400468301065,0.5102506583464101,2.338262265809943,-0.00039574846962591354,0.076,0.9999999999999999,15.310257622302547,0.10430998339134094,21,2026-10-07 21:46:20.325243,32.6,0.047861881246870436,0.21913857139125645,0.07809154565409335
0314,cdot_cos,R,Q-R,22,4,4267,0.11996563596262376,0.11775946074266821,0.12865439493451128,0.9851403301260487,857.0,0.21529811006477054,0.511473413263322,2.3990229588762944,-0.0019894823419130845,0.026,0.9999999999999996,-1.303396003765249,0.10927712474765282,22,2026-10-07 21:46:20.351244,32.6,0.44884409566987,0.6281042251166311,1.0528502069907648
0314,cdot_cos,S,R-S,23,4,4313,-0.0013017487551580857,-0.05251263178155885,-0.12126738471778184,0.018829587127363018,857.0,0.22058542438907547,0.5114967832321671,2.453052397681325,-0.00041539424101118754,0.046,1.0,67.3551647130769,0.11424426646778593,23,2026-10-07 21:46:20.397243,32.6,0.02260953535376391,0.11125963892886033,0.11494161574575938
0314,cdot_cos,T,S-T,24,4,4583,-0.14767653805872677,0.04067594754939691,-0.14637478930356868,0.00839392138254101,857.0,0.2255339968462257,0.5115072011651266,2.5058632858423344,-0.0003979106152069545,0.27,1.0,1.678224065383654,0.11921141149147386,24,2026-10-07 21:46:20.667244,32.6,0.9570127392260203,0.06372908086944296,0.018328046137593403
0314,cdot_cos,P,T-P,25,5,5022,0.06897137865436474,-0.0036527536667811744,0.21664791671309153,0.9991442892620731,856.0,0.25499912805857466,0.5127471934141633,2.563735967936894,-0.0025517251522173424,0.439,0.9999999999999997,-1.7369580646037055,0.12417855959084656,25,2026-10-07 21:46:21.106244,32.6,0.42996042122804345,0.041310030683136066,0.06711874991423457
0314,cdot_cos,Q,P-Q,26,5,5093,-0.010708230088464664,-0.006070277176627765,-0.07967960874282941,0.06929592644676492,856.0,0.26180420378601915,0.5128331877747182,2.6149464329767507,-0.0006338064112287342,0.071,1.0,22.302843216843737,0.1291457015936949,26,2026-10-07 21:46:21.177243,32.6,0.04850771563979019,0.26245567992740376,0.09584613700626039
0314,cdot_cos,R,Q-R,27,5,5120,0.12228564665985162,0.11191384172819169,0.13299387674831628,0.9870752268087852,856.0,0.292267834608266,0.5140580363721753,2.67112391247074,-0.0030415082439618334,0.027,0.9999999999999997,-1.9657138341275353,0.1341128428594118,27,2026-10-07 21:46:21.204243,32.6,0.4531126830992398,0.6707286012381591,1.1282826230461795
0314,cdot_cos,S,R-S,28,5,5172,-0.006210689954624554,-0.04599949162924352,-0.12849633661447618,0.014935288408997804,856.0,0.29802354825287974,0.5140765681144716,2.720237509532354,-0.0006122176083752033,0.052,0.9999999999999999,131.08808641677533,0.1390799847694603,28,2026-10-07 21:46:21.256243,32.6,0.018910872876011224,0.10812968531209455,0.11068680085795668
0314,cdot_cos,T,S-T,29,5,5423,-0.15398264437342987,0.04758277941689582,-0.1477719544188053,0.008023173426070833,856.0,0.30351332188072383,0.5140865232716558,2.7684406543889963,-0.0005950540220764672,0.251,0.9999999999999999,1.7240899345972514,0.14404713111014608,29,2026-10-07 21:46:21.507244,32.6,0.9715682652919049,0.07544627809516756,0.021871608079060103
0314,cdot_cos,P,T-P,30,6,5878,0.08699944372595543,-0.006328005915347782,0.24098208809938532,0.9996127358002808,856.0,0.33589757985665386,0.5153267532133154,2.8225608740661765,-0.003730699490013735,0.455,0.9999999999999998,-2.5282775093635346,0.14901428275215978,30,2026-10-07 21:46:21.962244,32.6,0.4314955841895563,0.0430235081642022,0.07117419335369238
0314,cdot_cos,Q,P-Q,31,6,5945,-0.007491358968535689,-0.003974588185137557,-0.09449080269449112,0.04392300776973427,856.0,0.34266471431014783,0.5153812447292943,2.8695213303215867,-0.0008273092878076252,0.067,1.0000000000000002,53.28150905794963,0.15398142486457758,31,2026-10-07 21:46:22.029243,32.6,0.029913737502608662,0.2994333356494202,0.10100200676856674
0314,cdot_cos,R,Q-R,32,6,5973,0.14041687349594784,0.1250380680391198,0.14790823246448354,0.9920121076883327,856.0,0.37602164683367617,0.5166118493530008,2.9223979380976,-0.004318475065154079,0.028,1.0000000000000002,-2.8369516171906572,0.15894856602815252,32,2026-10-07 21:46:22.057244,32.6,0.4455590042812065,0.7049230624216067,1.1913190186974405
0314,cdot_cos,S,R-S,33,6,6031,-0.00018379500576345674,-0.00037395500232489574,-0.1406006685017113,0.010114874952216737,856.0,0.3821404058057578,0.5166243959819262,2.9677812102173964,-0.0008356599161128438,0.058,1.0,277.5897151123346,0.16391570823487545,33,2026-10-07 21:46:22.115244,32.6,0.01548718669149074,0.10229396949658784,0.10549584434623516
0314,cdot_cos,T,S-T,34,6,6263,-0.33386501229175364,0.04568704473567694,-0.3336812172859902,1.886831397607566e-05,856.0,0.38788774729528036,0.5166244193864209,3.0124121400211923,-0.0007972192675017782,0.232,0.9999999999999997,1642.4472796277978,0.16888285586613028,34,2026-10-07 21:46:22.347244,32.6,0.9529256321407159,0.08792285737342438,0.02477302366173513
0314,cdot_cos,P,T-P,35,7,6734,0.08225535990248561,-0.005035532625616169,0.41612037219423925,0.9999987159936632,847.0,0.4229366116270267,0.5178647254314905,3.063729035943536,-0.005118356336213734,0.471,1.0000000000000002,-3.4839280884657287,0.1738500118927933,35,2026-10-07 21:46:22.818244,32.6,0.42988260917710625,0.04510107515663266,0.07441372469585215
0314,cdot_cos,Q,P-Q,36,7,6804,-0.009237577123425834,-0.004844329630868483,-0.09149293702591145,0.048214965396071965,847.0,0.4303729600928283,0.5179245213815882,3.1075471329232562,-0.0011428583547689144,0.07,1.0000000000000002,66.48440195286182,0.1788171543278728,36,2026-10-07 21:46:22.888243,32.6,0.030851896827609627,0.30950024115340263,0.10623354951145143
0314,cdot_cos,R,Q-R,37,7,6829,0.1367609804217212,0.12261333165300961,0.145998557545147,0.9915033720506757,847.0,0.4662666453885031,0.5191540624244975,3.157890883151841,-0.005795390708732661,0.025,0.9999999999999999,-3.783958559817671,0.18378429522478842,37,2026-10-07 21:46:22.913243,32.6,0.4480731676885114,0.8491860727087963,1.4357474118269908
0314,cdot_cos,S,R-S,38,7,6872,-0.004139968326548001,-0.010376076951669836,-0.1409009487482692,0.010017329163494041,847.0,0.47283226372826814,0.5191664835306498,3.2003571457515174,-0.0011102809614557988,0.043,1.0000000000000002,377.18941371510965,0.18875143699390348,38,2026-10-07 21:46:22.956243,32.6,0.014702297641425693,0.1487526144558306,0.1526887985991871
0314,cdot_cos,T,S-T,39,7,7120,-0.20388228115048346,0.06368591986129536,-0.19974231282393545,0.001483895735415291,847.0,0.47905937023170453,0.5191683235027591,3.2422051460029753,-0.0010673813346506686,0.248,0.9999999999999997,23.31536798158114,0.19371858730386388,39,2026-10-07 21:46:23.204243,32.6,0.9606054926855262,0.0881879391205292,0.025109300417082203
0314,cdot_cos,P,T-P,40,8,7581,0.0730747028838701,0.00030957957770264265,0.27695698403435354,0.9998801078031946,859.0,0.5165734815320506,0.5204080146063165,3.2913492832671767,-0.0067244120405663965,0.461,0.9999999999999998,-4.563258290458422,0.19868574752484588,40,2026-10-07 21:46:23.665244,32.6,0.43116358723798737,0.049569523988170244,0.08137551258209566
0314,cdot_cos,Q,P-Q,41,8,7660,-0.013747054713820194,-0.008378667320555477,-0.08682175759769029,0.05570391694261651,859.0,0.5247624713487975,0.5204770712882562,3.332679357582299,-0.0015352415566549135,0.079,0.9999999999999999,75.14364053059933,0.2036528906826642,41,2026-10-07 21:46:23.744244,32.6,0.0340462566863454,0.29284464165673857,0.10365809894616294
0314,cdot_cos,R,Q-R,42,8,7687,0.1153703594978891,0.1196847875205329,0.1291174142117093,0.9853596848707982,859.0,0.5628429349138153,0.5216984994055911,3.380992705031625,-0.007454859424271051,0.027,0.9999999999999996,-4.846472570594051,0.2086200314763472,42,2026-10-07 21:46:23.771244,32.6,0.4520051815535661,0.840157011691152,1.4103875394451044
0314,cdot_cos,S,R-S,43,8,7746,-0.005210788819548877,-0.04173708439136294,-0.12058114831743798,0.01924737761750335,859.0,0.5701309499801197,0.5217223554553089,3.4211622803223123,-0.0014862546712640634,0.059,1.0,250.19250142491157,0.21358717412659556,43,2026-10-07 21:46:23.830244,32.6,0.018027273633498632,0.11847641222289061,0.12352567908990487
0314,cdot_cos,T,S-T,44,8,7995,-0.18268831417453482,0.04748979205303004,-0.17747752535498595,0.0030615511677997607,859.0,0.5768231515561164,0.5217261500678828,3.460739774062142,-0.0013815889055275575,0.249,0.9999999999999996,27.58272780082552,0.21855432696021693,44,2026-10-07 21:46:24.079243,32.6,0.9270409570674871,0.09342572831158234,0.026876311550187566
0314,cdot_cos,P,T-P,45,9,8440,0.08880130210276271,-0.004601250563346582,0.2714896162772975,0.9998567192809349,843.0,0.6166569626792877,0.5229652769940069,3.508157736746741,-0.008555284111793536,0.445,0.9999999999999993,-5.789314278485657,0.22352149144338673,45,2026-10-07 21:46:24.524243,32.6,0.43235405317691045,0.05384614014398764,0.08951418229926135
0314,cdot_cos,Q,P-Q,46,9,8510,-0.010447661348252474,-0.005895603430924512,-0.09924896345101519,0.037850843991960474,843.0,0.6247462162842654,0.52301218025866,3.547241202961366,-0.0018071114591893366,0.07,0.9999999999999994,143.87426339090356,0.22848863450323234,46,2026-10-07 21:46:24.594244,32.6,0.02389152309623531,0.3468363913823594,0.11556076578539566
0314,cdot_cos,R,Q-R,47,9,8539,0.1306121590953205,0.12499409803953383,0.141059820443573,0.9900339029148303,843.0,0.665214057472818,0.5242388444124731,3.594000456936406,-0.009391805585440083,0.029,1.0,-6.183187225838081,0.23345577522786046,47,2026-10-07 21:46:24.623244,32.6,0.4459330884006124,0.8269241505991394,1.3954427996052627
0314,cdot_cos,S,R-S,48,9,8589,-0.001726462070802057,-0.0034156806752566175,-0.13233862116612258,0.013200149862823994,843.0,0.6727078170190155,0.5242551976175898,3.6321465652074636,-0.0018038143949901599,0.05,0.9999999999999998,464.00636060881544,0.23842291752523936,48,2026-10-07 21:46:24.673243,32.6,0.014896390506643226,0.14469707575935908,0.1498751909239493
0314,cdot_cos,T,S-T,49,9,8838,-0.2750288032552556,0.025973803328801916,-0.2733023411844535,0.00013506000568295852,843.0,0.6796837650487539,0.5242553649384498,3.6697875663586257,-0.0016973328694971151,0.249,0.9999999999999997,636.3912154009845,0.24339007315628175,49,2026-10-07 21:46:24.922244,32.6,0.939192687496615,0.09839192924638822,0.028015855541118247
0314,cdot_cos,P,T-P,50,10,9283,0.08430757805907074,-0.0040141479417934054,0.3593363813143263,0.9999918245451725,849.0,0.7217069977837168,0.5254940661263846,3.7158041896113816,-0.010592603503613688,0.445,0.9999999999999993,-7.181127071450642,0.24835724318496227,50,2026-10-07 21:46:25.367244,32.6,0.4318130899113894,0.056703515118625425,0.09443423086508515
0314,cdot_cos,Q,P-Q,51,10,9354,-0.016925833520950315,-0.008524318943583008,-0.10123341158002105,0.03556401257929951,849.0,0.7301498935043306,0.5255381139846887,3.753092843606745,-0.0022047803411703575,0.071,0.9999999999999993,190.425221233848,0.2533243866998045,51,2026-10-07 21:46:25.438244,32.6,0.02227299277159034,0.3592877059537204,0.11891402423399637
0314,cdot_cos,R,Q-R,52,10,9381,0.12334376881305786,0.11673947972358266,0.14026960233400818,0.9897764885445376,849.0,0.7727258520291451,0.5267638411689647,3.798548095259116,-0.011506041320062723,0.027,0.9999999999999996,-7.588361503450551,0.2582915270845882,52,2026-10-07 21:46:25.465244,32.6,0.4455790377833614,0.9348761939322736,1.5768873527709093
0314,cdot_cos,S,R-S,53,10,9440,-0.006773121626385319,-0.024336484601663613,-0.1301168904394432,0.014177632621944741,849.0,0.7806332079766733,0.5267813962690948,3.835026468984783,-0.0022087162472166485,0.059,0.9999999999999996,529.6082052468383,0.2632586702631242,53,2026-10-07 21:46:25.524243,32.6,0.014855582154315969,0.12941140886053884,0.13402298216149539
0314,cdot_cos,T,S-T,54,10,9696,-0.22160308334049275,0.060465194393594615,-0.21482996171410743,0.0009079102076668625,849.0,0.7879963982746887,0.5267825204640187,3.8710451585039807,-0.0020769359784431245,0.256,0.9999999999999996,117.22190339813913,0.26822582954929675,54,2026-10-07 21:46:25.780244,32.6,0.9385216402331329,0.10051260608902714,0.028762462101622477
0314,cdot_cos,P,T-P,55,11,10132,0.10612951419579211,-0.008072263315983375,0.32773259753628486,0.9999770938605731,844.0,0.8320956622942552,0.5280205472966965,3.915905202797044,-0.012843680502050623,0.436,0.9999999999999993,-8.696697227733171,0.2731930049215411,55,2026-10-07 21:46:26.216243,32.6,0.4324488548615849,0.060114871853068845,0.10114510096230858
0314,cdot_cos,Q,P-Q,56,11,10202,-0.01132954609524463,-0.005862514913330901,-0.11745906029103674,0.02126568740194355,844.0,0.8404165665305647,0.5280468717032665,3.9515409783623,-0.002501817996009873,0.07,0.9999999999999989,392.8621326574562,0.27816014877164735,56,2026-10-07 21:46:26.286243,32.6,0.01602285795528966,0.37903487954706083,0.11887006051870698
0314,cdot_cos,R,Q-R,57,11,10229,0.14505987786261182,0.13369923160195443,0.15638942395785646,0.993929921836693,844.0,0.8851605454308438,0.5292770629415262,3.995954218234873,-0.013875925217188476,0.027,0.999999999999999,-9.245804121697969,0.283127288912905,57,2026-10-07 21:46:26.313244,32.6,0.44056344439069894,0.9777305913733965,1.6571844037140384
0314,cdot_cos,S,R-S,58,11,10285,-0.0008184660564645355,-0.0017357252796286532,-0.14587834391907636,0.008529706683003471,844.0,0.8932140184647281,0.5292876186777049,4.0309344342831075,-0.0025739395725140565,0.056,0.9999999999999991,1070.6961081012723,0.28809443208986785,58,2026-10-07 21:46:26.369244,32.6,0.012389215585009383,0.140383868459118,0.14381201846222094
0314,cdot_cos,T,S-T,59,11,10536,-0.2987894174777846,0.04752120077786566,-0.2979709514213201,6.043673425296869e-05,844.0,0.900883538698265,0.5292876934696584,4.065535939134054,-0.0024728976669035735,0.251,0.9999999999999989,1350.972943691843,0.29306159436439727,59,2026-10-07 21:46:26.620243,32.6,0.9599637844740696,0.10706616256772318,0.030555857504130843
0314,cdot_cos,P,T-P,60,12,10976,0.08219868771719802,-0.0034067334184518065,0.3809881051949826,0.9999959638377901,836.0,0.9469612320737252,0.5305250306510899,4.109429242211664,-0.015297451327717641,0.44,0.9999999999999992,-10.364639366916325,0.29802877666343086,60,2026-10-07 21:46:27.060243,32.6,0.4324252615677077,0.06298792456016576,0.10472203039877316
0314,cdot_cos,Q,P-Q,61,12,11048,-0.016522099876581778,-0.008552099967217739,-0.0987207875937798,0.03848292542930222,836.0,0.9563129123112108,0.5305726397980309,4.14390481745718,-0.003197781524076527,0.072,0.9999999999999991,254.14590642909258,0.30299592118328983,61,2026-10-07 21:46:27.132244,32.6,0.02273681181841603,0.3879811559552389,0.12988444774285654
0314,cdot_cos,R,Q-R,62,12,11076,0.1236997108002145,0.12242678735160477,0.1402218106767963,0.9897607110386946,836.0,1.0028305185312796,0.5317969285191504,4.187373232487239,-0.016368474881544703,0.028,0.9999999999999986,-10.757832797336574,0.30796306117481376,62,2026-10-07 21:46:27.160243,32.6,0.4472498982562362,0.9850767762214694,1.661343079288169
0314,cdot_cos,S,R-S,63,12,11125,-0.004645197644814128,-0.045301125274605135,-0.12834490844502863,0.015008090348651436,836.0,1.0114772117796131,0.5318154899317001,4.221154619218454,-0.0031282282841237218,0.049,0.999999999999999,713.3210665910842,0.3129302038136799,63,2026-10-07 21:46:27.209243,32.6,0.014515960417905985,0.17168089614232193,0.1764631275170114
0314,cdot_cos,T,S-T,64,12,11374,-0.16971298401763027,0.036669833815032325,-0.16506778637281613,0.004581166915003572,836.0,1.0196552463532271,0.5318211557202108,4.254569276128608,-0.0029833837963170297,0.249,0.9999999999999988,25.564753702582586,0.31789736961006637,64,2026-10-07 21:46:27.458244,32.6,0.9526093230281742,0.11275323124792444,0.03284351234383129
0314,cdot_cos,P,T-P,65,13,11812,0.08975370208712073,0.0026904280925649886,0.259466686104751,0.9997879791651081,856.0,1.0676283209410795,0.5330574513185508,4.2976466002651845,-0.01797881311672796,0.438,0.9999999999999987,-12.129323553805772,0.3228645589253341,65,2026-10-07 21:46:27.896243,32.6,0.434282021162117,0.06563147383718033,0.10952756755217438
0314,cdot_cos,Q,P-Q,66,13,11895,-0.013684421396539519,-0.00798239180920702,-0.10343812348366024,0.033179429801758,856.0,1.077148417434597,0.5330984727257011,4.330912503978532,-0.003666069696372159,0.083,0.9999999999999984,348.9091285410959,0.32783170537304224,66,2026-10-07 21:46:27.979244,32.6,0.020158865605678627,0.34798625989742643,0.11469995775322402
0314,cdot_cos,R,Q-R,67,13,11922,0.11836401205859276,0.13034706866279203,0.13204843345513229,0.9866760543329939,856.0,1.1253940400840523,0.5343181432931181,4.373582534141427,-0.019072867273639466,0.027,0.9999999999999988,-12.631933563745402,0.3327988449658943,67,2026-10-07 21:46:28.006243,32.6,0.44584401666468143,1.0628630341079883,1.7868749129427852
0314,cdot_cos,S,R-S,68,13,11980,-0.002486038914787986,-0.009871274188947109,-0.12085005097338075,0.019082593811899976,856.0,1.1345430212764285,0.5343417280697182,4.406294808961231,-0.003711077595473578,0.058,0.9999999999999986,651.3434466059643,0.33776598896981636,68,2026-10-07 21:46:28.064243,32.6,0.015931742308455774,0.15066624233852133,0.15774105504096847
0314,cdot_cos,T,S-T,69,13,12233,-0.2424449982004392,0.051057620311815044,-0.2399589592856512,0.0004003935792582262,856.0,1.1428713241953208,0.5343422229270649,4.43857989941426,-0.0034043128315561395,0.253,0.9999999999999981,619.9054454594052,0.34273315928358666,69,2026-10-07 21:46:28.317244,32.6,0.9138300853548619,0.1148961379849215,0.032918193355305554
0314,cdot_cos,P,T-P,70,14,12668,0.08902995429026028,-0.00526092903708745,0.33147495249069947,0.9999797246303592,845.0,1.1926804670967988,0.535577911738868,4.480966341251723,-0.020872700338656347,0.435,0.9999999999999987,-14.13655876806884,0.34770035590314013,70,2026-10-07 21:46:28.752243,32.6,0.4330503923153223,0.06874918713668955,0.11450377678500684
0314,cdot_cos,Q,P-Q,71,14,12738,-0.011669340422859893,-0.006009610131228519,-0.10069929471312017,0.03616609139790826,845.0,1.2026831170042407,0.5356225945880355,4.513236252617452,-0.004298936442994395,0.07,0.999999999999998,370.9200331774167,0.3526675012462704,71,2026-10-07 21:46:28.822243,32.6,0.021166886703592246,0.4306826771157821,0.14289499867774183
0314,cdot_cos,R,Q-R,72,14,12765,0.1403586103311364,0.130095839047757,0.15202795075399628,0.9930089658075998,845.0,1.2529760418930083,0.5368492215102921,4.555316749493819,-0.02215104654787831,0.027,0.9999999999999983,-14.553822177685104,0.35763464054008803,72,2026-10-07 21:46:28.849244,32.6,0.4466739985183083,1.0996709524303045,1.8627009218062065
0314,cdot_cos,S,R-S,73,14,12822,-0.0010595916409518772,-0.0022936424025858343,-0.14141820197208826,0.009851478732749048,845.0,1.2620653484354771,0.5368613884652873,4.586945763289772,-0.004100091889373252,0.057,0.9999999999999983,1483.604950101704,0.36260178474750404,73,2026-10-07 21:46:28.906244,32.6,0.012245788496933733,0.15530323451352693,0.1594615182889275
0314,cdot_cos,T,S-T,74,14,13053,-0.3577701629601073,0.009467393310880597,-0.3567105713191554,8.906105268788407e-06,845.0,1.2706806106275503,0.5368613994646498,4.618256431651916,-0.003913612582413808,0.231,0.9999999999999982,16953.64676075908,0.3675689560265545,74,2026-10-07 21:46:29.137243,32.6,0.9534684978327183,0.13027885096779265,0.03729550732499222
0314,cdot_cos,P,T-P,75,15,13513,0.08679251479297653,-0.002706140167001086,0.4445626777530838,0.9999994919793816,854.0,1.3222541775825973,0.5380962064261178,4.660049898099191,-0.023975891565315016,0.46,0.9999999999999977,-16.247299868678404,0.37253616496920466,75,2026-10-07 21:46:29.597243,32.6,0.43310770506985696,0.0675585495530221,0.11211644990227608
0314,cdot_cos,Q,P-Q,76,15,13586,-0.009563324859412262,-0.0054985403298746524,-0.0963558396523888,0.041439411619712145,854.0,1.3328344762163307,0.538147366147116,4.69146003258037,-0.005036468704551582,0.073,0.9999999999999979,370.20184026060815,0.37750331138744436,76,2026-10-07 21:46:29.670244,32.6,0.023273107379222908,0.4276287327945575,0.1449355977223744
0314,cdot_cos,R,Q-R,77,15,13614,0.1288576049628565,0.12565726484410103,0.13842092982226878,0.9891482977686435,854.0,1.3846879725706027,0.5393682949010477,4.732937641383367,-0.025254278713814235,0.028,0.9999999999999973,-16.559369204924547,0.3824704505170897,77,2026-10-07 21:46:29.698244,32.6,0.44907306007719605,1.096947692697557,1.8519105840811447
0314,cdot_cos,S,R-S,78,15,13660,-0.0017053177742535725,-0.003249318890999987,-0.13056292273711007,0.013975832442022034,854.0,1.3942635470073939,0.5393855422469715,4.763724185941148,-0.004768998843012321,0.046,0.9999999999999974,1187.7352006036272,0.38743759311690973,78,2026-10-07 21:46:29.744244,32.6,0.013629625533194441,0.20113282106114178,0.2081646616693725
0314,cdot_cos,T,S-T,79,15,13910,-0.2386179316371725,0.06415877212716144,-0.23691261386291892,0.00044218001292611864,854.0,1.4031921921082278,0.5393860879325447,4.794168478104999,-0.004476412705460548,0.25,0.9999999999999973,536.1808190216088,0.392404771988254,79,2026-10-07 21:46:29.994244,32.6,0.9367285469320775,0.12441456643919624,0.03571458040333564
0314,cdot_cos,P,T-P,80,16,14367,0.07031364333909843,-0.003804785900568046,0.3089315749762709,0.9999577206438143,848.0,1.456470830226992,0.5406198718923234,4.835451201215154,-0.02729459954794304,0.457,0.9999999999999974,-18.4944751969182,0.3973719897707419,80,2026-10-07 21:46:30.451244,32.6,0.43344238609664437,0.07033067381845816,0.11658345321392606
0314,cdot_cos,Q,P-Q,81,16,14438,-0.02474822304279915,-0.01147285462496407,-0.09506186638189758,0.04314782738180054,848.0,1.4674744279782985,0.5406730981453992,4.866057958995742,-0.005763749926583751,0.071,0.999999999999997,404.51559854677464,0.40233913647968134,81,2026-10-07 21:46:30.522244,32.6,0.023859739826690533,0.4552444800490946,0.1549802500184021
0314,cdot_cos,R,Q-R,82,16,14465,0.12233867740702781,0.11298313207588052,0.14708690044982695,0.9917971175312058,848.0,1.5211155463939634,0.5418962999968687,4.907079778093338,-0.028707058014744404,0.027,0.999999999999997,-18.756763702243703,0.40730627507259154,82,2026-10-07 21:46:30.549243,32.6,0.4496787443719383,1.177391785151013,1.9867080894690696
0314,cdot_cos,S,R-S,83,16,14520,-0.005465541661526139,-0.066638313909376,-0.12780421906855394,0.01527089969533825,848.0,1.5310535843764532,0.5419151299727627,4.937081873964694,-0.0054316404682325375,0.055,0.9999999999999971,1236.083236514371,0.4122734195853364,83,2026-10-07 21:46:30.604243,32.6,0.013771496319075533,0.1772116829599758,0.18069159968163315
0314,cdot_cos,T,S-T,84,16,14768,-0.1537157351910474,0.04263509853220143,-0.14825019352952126,0.007900037934970284,848.0,1.5406088315195607,0.5419248711674054,4.9668235638163445,-0.005255762682209438,0.248,0.9999999999999967,18.055053047824092,0.41724060297560156,84,2026-10-07 21:46:30.852243,32.6,0.9670899202136752,0.12999117529238008,0.038529222351239976
0314,cdot_cos,P,T-P,85,17,15215,0.08752650940045333,-0.0023826859200825135,0.24124224459150073,0.9996160050829622,851.0,1.5955292073214737,0.5431571932839467,5.007661973583818,-0.030829433118741607,0.447,0.9999999999999969,-20.752423488355255,0.4222078286736873,85,2026-10-07 21:46:31.299244,32.6,0.436258087268535,0.07368502342573172,0.12286437539577852
0314,cdot_cos,Q,P-Q,86,17,15289,-0.014537044352952708,-0.007802516664482804,-0.10206355375340603,0.03464736267640204,851.0,1.606483242462165,0.5431998970145416,5.037428704386606,-0.006278090345145525,0.074,0.9999999999999964,574.9226690871583,0.4271749767068313,86,2026-10-07 21:46:31.373244,32.6,0.02002770621265358,0.4472678555481823,0.14802750190123182
0314,cdot_cos,R,Q-R,87,17,15315,0.13082520955298652,0.12774721912895284,0.1453622539059392,0.9913268261460767,851.0,1.6617248499426047,0.5444214604235815,5.078025419925228,-0.03230122886870156,0.026,0.9999999999999964,-21.303141802527723,0.43214211469449104,87,2026-10-07 21:46:31.399244,32.6,0.44680220692153577,1.2571751986806097,2.1246772107861474
0314,cdot_cos,S,R-S,88,17,15374,-0.0018398109283537638,-0.00472095802525854,-0.13266502048134027,0.013062261719243483,851.0,1.6718563527935566,0.544437552873204,5.107277050508301,-0.006042622217573255,0.059,0.999999999999996,1631.734587787564,0.43710926044638576,88,2026-10-07 21:46:31.458244,32.6,0.01296418348767266,0.16614801082719852,0.17172038730426914
0314,cdot_cos,T,S-T,89,17,15627,-0.3171219263715862,0.0012547080757243268,-0.3152821154432324,3.437326976649579e-05,851.0,1.6813303152202141,0.5444375952202741,5.136214095940746,-0.005683683892267512,0.253,0.9999999999999963,8476.107644468033,0.44207645011384517,89,2026-10-07 21:46:31.711244,32.6,0.9388003818987056,0.13046570350428371,0.03744649180497053
0314,cdot_cos,P,T-P,90,18,16066,0.09354588572304813,-0.0053767455214464525,0.4106678120946343,0.9999984662152864,857.0,1.7378719987667242,0.5456692956969184,5.176673572005268,-0.03457320818826042,0.439,0.9999999999999959,-23.454991569624585,0.4470436841738809,90,2026-10-07 21:46:32.150244,32.6,0.4336123343050272,0.07725103981383626,0.12879654566403193
0314,cdot_cos,Q,P-Q,91,18,16136,-0.00823244809894836,-0.0045287063279851655,-0.1017783338219965,0.03495970708532239,857.0,1.7491567281767624,0.5457123456299049,5.205764104139017,-0.007036973761022754,0.07,0.9999999999999957,639.634780287534,0.45201083203424886,91,2026-10-07 21:46:32.220243,32.6,0.01997889074646303,0.48690042897147223,0.16121042014340312
0314,cdot_cos,R,Q-R,92,18,16163,0.14259140606406243,0.12963435765315826,0.15082385416301078,0.9927311201130675,857.0,1.8060380588227303,0.5469345226730106,5.246011763538943,-0.03614714470594438,0.027,0.9999999999999957,-23.818293028111302,0.4569779698419518,92,2026-10-07 21:46:32.247243,32.6,0.446942997317539,1.2430308709970903,2.106715949850663
0314,cdot_cos,S,R-S,93,18,16214,-6.258607950200317e-05,-0.00012126537145277742,-0.14265399214356442,0.009466165178653887,857.0,1.8162803952106052,0.5469461740153433,5.274558000917495,-0.006631695818595437,0.051,0.9999999999999952,2533.2230437057938,0.4619451140337972,93,2026-10-07 21:46:32.298244,32.6,0.011670816650241875,0.19590688630513228,0.20083012525245048
0314,cdot_cos,T,S-T,94,18,16468,-0.322147123354094,0.03398129320207986,-0.322084537274592,2.7536905014678957e-05,857.0,1.8260205612258538,0.5469462079088145,5.302840344898536,-0.006341341120203883,0.254,0.999999999999995,8566.685195336619,0.46691230954391805,94,2026-10-07 21:46:32.552243,32.6,0.9552448485492067,0.13354530348206145,0.03834711029625401
0314,cdot_cos,P,T-P,95,19,16923,0.09297485086889354,-0.006652184765120476,0.4151219742229876,0.9999986735146217,858.0,1.8841214093794925,0.5481767548657609,5.342966215756395,-0.03851294489829004,0.455,0.9999999999999949,-26.144149637264654,0.47187955836539885,95,2026-10-07 21:46:33.007244,32.6,0.43372473246487403,0.07664965696250241,0.1276941717662389
0314,cdot_cos,Q,P-Q,96,19,16994,-0.00772996267999252,-0.004355573933973514,-0.10070481354888605,0.03615982045848967,858.0,1.895771749061731,0.5482212403402321,5.3714493544384725,-0.00786763714247641,0.071,0.9999999999999946,688.8834640987716,0.4768467071916963,96,2026-10-07 21:46:33.078244,32.6,0.020341148058523335,0.4933647127970789,0.16408929129913377
0314,cdot_cos,R,Q-R,97,19,17021,0.14258904982844434,0.13100252814081037,0.15031901250843685,0.9926113914303206,858.0,1.9541791985966777,0.5494420932272586,5.411377182475553,-0.04015508258017669,0.027,0.9999999999999947,-26.446630696300147,0.4818138445465557,97,2026-10-07 21:46:33.105243,32.6,0.4475044891537468,1.275969719214649,2.1632388716646926
0314,cdot_cos,S,R-S,98,19,17075,-0.001273215781944288,-0.0025529336536613376,-0.14386226561038862,0.009103872334395387,858.0,1.964674113899322,0.5494532877160531,5.439310175784878,-0.007344345346758461,0.054,0.9999999999999946,2930.9723593226786,0.48678098980968015,98,2026-10-07 21:46:33.159244,32.6,0.011476166206900635,0.18976795414399955,0.19435028338230273
0314,cdot_cos,T,S-T,99,19,17325,-0.3180899519964551,0.03896596009515155,-0.31681673621451084,3.269598412905776e-05,858.0,1.9746741376442296,0.5494533279202644,5.46699172282245,-0.007034618412304786,0.25,0.9999999999999942,7703.843067404591,0.491748190060483,99,2026-10-07 21:46:33.409244,32.6,0.9569262442478956,0.13923875880256986,0.04000009497963042
0314,cdot_cos,P,T-P,100,20,17781,0.07582752276709301,-0.005949855371038335,0.3939174747635481,0.9999973520169615,845.0,2.034293493300607,0.5506826577468534,5.506826722365493,-0.04265981325486155,0.456,0.9999999999999943,-28.979362634845657,0.4967154507568273,100,2026-10-07 21:46:33.865243,32.6,0.433831250798229,0.07877020507304718,0.13074420100082745
0314,cdot_cos,Q,P-Q,101,20,17850,-0.020462953273191167,-0.009473283756018969,-0.09629047604028418,0.041524136545394524,845.0,2.0465125646708486,0.5507336914619485,5.534805259131603,-0.00889967600160381,0.069,0.999999999999994,661.5261536489139,0.5016825997615803,101,2026-10-07 21:46:33.934243,32.6,0.02251863826735059,0.522561202205803,0.17708799087306806
0314,cdot_cos,R,Q-R,102,20,17877,0.12928264510557708,0.11628267552480542,0.14974559837876825,0.9924730243162242,845.0,2.1064069392050078,0.5519531337678417,5.574453561396381,-0.04437207472163837,0.027,0.9999999999999939,-29.089034018753196,0.5066497366497041,102,2026-10-07 21:46:33.961244,32.6,0.44958484028064594,1.311160760279233,2.21831016793182
0314,cdot_cos,S,R-S,103,20,17934,-0.005861734503596016,-0.046924046691875824,-0.13514437960917308,0.012060250215406397,845.0,2.117315245725927,0.5519679482729704,5.601863015791591,-0.008219022413679654,0.057,0.999999999999993,2440.382044087168,0.5116168831819934,103,2026-10-07 21:46:34.018244,32.6,0.012293253363203393,0.1878998664362075,0.19137379861262196
0314,cdot_cos,T,S-T,104,20,18184,-0.16755906276857552,0.05151206829053178,-0.1616973282649795,0.005110507766348676,845.0,2.1278275239787354,0.5519742258631207,5.629054860088019,-0.00796077757321356,0.25,0.9999999999999933,41.13757577034412,0.5165840895176185,104,2026-10-07 21:46:34.268243,32.6,0.968080871473798,0.14318404125291195,0.04204911301123282
0314,cdot_cos,P,T-P,105,21,18626,0.06762425606497482,-0.0003692068928989423,0.23518331883355034,0.9995321880295878,856.0,2.188907266352383,0.553201699499266,5.668630749765952,-0.04701020260333263,0.442,0.9999999999999929,-31.812842150116232,0.5215513580538486,105,2026-10-07 21:46:34.710243,32.6,0.43576223635218864,0.08360045670329275,0.1381894623838185
0314,cdot_cos,Q,P-Q,106,21,18701,-0.024413834561324413,-0.012731836926115903,-0.09203809062629924,0.04740592017802953,856.0,2.201730327704446,0.5532599002639963,5.696159492377719,-0.010038018353205997,0.075,0.9999999999999923,635.2525507433155,0.5265185098048845,106,2026-10-07 21:46:34.785243,32.6,0.02514200196244555,0.49351069864582564,0.1709741513608402
0314,cdot_cos,R,Q-R,107,21,18729,0.1151080967393861,0.11291989070427101,0.1395219313007105,0.9895268800544583,856.0,2.262933871149257,0.5544744175863034,5.735528162892016,-0.048692723576390554,0.028,0.9999999999999925,-31.827216057943374,0.5314856465547314,107,2026-10-07 21:46:34.813244,32.6,0.45210097636927177,1.2982687639654535,2.1858408373146725
0314,cdot_cos,S,R-S,108,21,18774,-0.006886067243189247,-0.04627128523908889,-0.12199416398257534,0.01839681211890093,856.0,2.2744333784865116,0.5544969912008783,5.762501958154992,-0.009297743160179417,0.045,0.9999999999999921,1745.1782161718902,0.5364527894750262,108,2026-10-07 21:46:34.858243,32.6,0.014450191557253253,0.24509216926035374,0.25554460749454616
0314,cdot_cos,T,S-T,109,21,19043,-0.2179278013320949,0.040952976038132805,-0.21104173408890567,0.0010271285477050003,856.0,2.284992166382689,0.5544982515215203,5.789131895323683,-0.008578637787995953,0.269,0.9999999999999916,570.5733510811909,0.5414200087437175,109,2026-10-07 21:46:35.127244,32.6,0.9195920570596056,0.13589308132452196,0.03925199961404185
0314,cdot_cos,P,T-P,110,22,19482,0.09628076234328167,-0.0038048625809513114,0.3142085636753766,0.9999644024867105,856.0,2.3475438562391044,0.5557249059531958,5.828492186496281,-0.05160766628027125,0.439,0.9999999999999918,-35.07836223564828,0.546387288689891,110,2026-10-07 21:46:35.566243,32.6,0.4344075950996794,0.08527502335306063,0.14248676504878263
0314,cdot_cos,Q,P-Q,111,22,19553,-0.008332033530188642,-0.004728490307432562,-0.10461279587347032,0.03197272260007369,856.0,2.359863636886676,0.5557641157090856,5.855338510800829,-0.010328409566932397,0.071,0.9999999999999911,1052.7802526844746,0.5513544400003012,111,2026-10-07 21:46:35.637243,32.6,0.018376710190296627,0.5284540529671994,0.17351803728974177
0314,cdot_cos,R,Q-R,112,22,19581,0.13724461292973383,0.12757278189362736,0.14557664645992247,0.9913867130199054,856.0,2.4225843317604467,0.5569795560544587,5.894517784190457,-0.05339107649335352,0.028,0.9999999999999911,-35.42968364539619,0.5563215762790586,112,2026-10-07 21:46:35.665244,32.6,0.44639468962889095,1.3228441533476576,2.24002481692038
0314,cdot_cos,S,R-S,113,22,19632,-0.0014743160321674552,-0.0028567620655717955,-0.1387189289619013,0.010747918418196735,856.0,2.433942909474145,0.556992729294251,5.920914150853557,-0.009818716171266229,0.051,0.9999999999999908,3307.6419323556684,0.5612887215203471,113,2026-10-07 21:46:35.716243,32.6,0.011823288768897567,0.21728338095310298,0.2227172100725136
0314,cdot_cos,T,S-T,114,22,19881,-0.21038484494773885,0.0677187826543875,-0.20891052891557138,0.001100946740816291,856.0,2.4447472366176632,0.5569940786705868,5.947069587144267,-0.00938222004874047,0.249,0.9999999999999905,323.4799002707741,0.566255940564217,114,2026-10-07 21:46:35.965244,32.6,0.9545418835687817,0.15013191984876814,0.04339087206232253
0314,cdot_cos,P,T-P,115,23,20338,0.07735581992577482,-0.005363920316840555,0.2877406648735137,0.9999156410827535,842.0,2.5087086055588315,0.5582192764285546,5.986235066193929,-0.056361452547359914,0.457,0.9999999999999905,-38.34420377698219,0.5712232401923025,115,2026-10-07 21:46:36.422244,32.6,0.4345106570218279,0.08418828571443301,0.13995923181874884
0314,cdot_cos,Q,P-Q,116,23,20409,-0.02068890526527103,-0.009991268671915675,-0.09804472519104586,0.03930678240652674,842.0,2.521695329760655,0.5582674246980786,6.012724431701841,-0.011621140028872995,0.071,0.9999999999999899,929.2195329315376,0.5761903923867969,116,2026-10-07 21:46:36.493243,32.6,0.02128170790326922,0.5433680797441529,0.18291160847638824
0314,cdot_cos,R,Q-R,117,23,20436,0.12921329869982137,0.12013094671908492,0.1499022039650924,0.9925110671256562,842.0,2.585866872882501,0.5594828212291014,6.051732256140148,-0.05827070757677054,0.027,0.9999999999999898,-38.38217927826196,0.58115752776291,117,2026-10-07 21:46:36.520243,32.6,0.4490745596987215,1.4043067591566956,2.3767238193276348
0314,cdot_cos,S,R-S,118,23,20490,-0.006748478689173353,-0.0378049753313218,-0.13596177738899473,0.011746847993994766,842.0,2.5975278947551166,0.5594972017951637,6.07769554591468,-0.010745881060800029,0.054,0.9999999999999891,3304.7952570239063,0.5861246745055027,118,2026-10-07 21:46:36.574244,32.6,0.012002880113093053,0.21174587827394514,0.21594484949287812
0314,cdot_cos,T,S-T,119,23,20740,-0.17494275453633276,0.04673601174854129,-0.1681942758471594,0.0041390827853769255,842.0,2.6087354277360872,0.5595022688628598,6.103449437631316,-0.010373521864921305,0.25,0.9999999999999893,73.48613008774242,0.5910919008613205,119,2026-10-07 21:46:36.824243,32.6,0.9647414345771044,0.153090663044253,0.04483013192388263
0314,cdot_cos,P,T-P,120,24,21180,0.0815823383347738,-0.00279813327114574,0.2565250928711066,0.9997666454085259,838.0,2.674073226277243,0.5607258182512712,6.1424438556842,-0.061328190194528516,0.44,0.9999999999999888,-41.64496244468252,0.5960592074596166,120,2026-10-07 21:46:37.264243,32.6,0.4356777966377444,0.08896775197551104,0.1484949966844451
0314,cdot_cos,Q,P-Q,121,24,21253,-0.021472892859364084,-0.0109837632467805,-0.10305523119413788,0.03358218520938803,838.0,2.687027049474537,0.5607669045783124,6.168436243593523,-0.012338826815099027,0.073,0.9999999999999882,1192.3519795375294,0.601026361476248,121,2026-10-07 21:46:37.337244,32.6,0.01886697792720217,0.5372031893746079,0.17744963283964219
0314,cdot_cos,R,Q-R,122,24,21280,0.12449591221810534,0.12285648656534483,0.14596880507746943,0.991495197037837,838.0,2.752504891925936,0.5619795776954211,6.207267615800461,-0.06324341656144863,0.027,0.9999999999999881,-41.97717342635403,0.6059934963305996,122,2026-10-07 21:46:37.364243,32.6,0.4471328938333642,1.43609255377305,2.425105275977736
0314,cdot_cos,S,R-S,123,24,21329,-0.004355753172752643,-0.03877663977711003,-0.128851665390858,0.014765820246872948,838.0,2.7645760473782817,0.5619976318447639,6.232855548664099,-0.01182534133167514,0.049,0.9999999999999877,2847.992129305464,0.6109606413059272,123,2026-10-07 21:46:37.413243,32.6,0.012931021392997854,0.23833290778446534,0.2463501112723638
0314,cdot_cos,T,S-T,124,24,21579,-0.20894182679532347,0.04701982100102008,-0.20458607362257084,0.0012674171100366114,838.0,2.7758615168888134,0.5619991815063766,6.2581583272688155,-0.011102450493680168,0.25,0.9999999999999869,466.4830257594741,0.6159278749321588,124,2026-10-07 21:46:37.663244,32.6,0.9369635235341923,0.15596968531739464,0.045141878042127104
0314,cdot_cos,P,T-P,125,25,22018,0.07376257476112316,-0.0018318473555392284,0.2827044015564466,0.9999005905029575,839.0,2.842560890036979,0.5632213732942092,6.297006696255873,-0.06649992929873616,0.439,0.9999999999999873,-45.32633859641464,0.620895195077221,125,2026-10-07 21:46:38.102243,32.6,0.4347232402272365,0.0916299622762782,0.15193479077030875
0314,cdot_cos,Q,P-Q,126,25,22090,-0.021322020540971952,-0.010888481224113055,-0.09508459530209512,0.04311724627668169,839.0,2.8563126237673857,0.5632740589238638,6.322735965298848,-0.013906561307472812,0.072,0.9999999999999858,998.248826786357,0.6258623497350224,126,2026-10-07 21:46:38.174243,32.6,0.02277913396133208,0.5591317845332592,0.1909963018112045
0314,cdot_cos,R,Q-R,127,25,22118,0.12157289974958617,0.11716513048749021,0.14289492029055811,0.9906071976864739,839.0,2.9230758670097683,0.5644841015962639,6.3614130916498315,-0.06842575220945714,0.028,0.9999999999999862,-45.055593612947796,0.6308294845395661,127,2026-10-07 21:46:38.202244,32.6,0.45078524984965224,1.4131063811205293,2.3844015443708066
0314,cdot_cos,S,R-S,128,25,22168,-0.00526842477573865,-0.05215219618747786,-0.12684132452532482,0.01575019199306,839.0,2.9354465811101353,0.5645033345472066,6.386626512261176,-0.01285223792806058,0.05,0.9999999999999856,2889.4949322724037,0.635796630284457,128,2026-10-07 21:46:38.252243,32.6,0.013246339362567012,0.2396811151973166,0.24741428200734106
0314,cdot_cos,T,S-T,129,25,22417,-0.18645232800576378,0.042453966090629146,-0.18118390323002512,0.002714050838360816,839.0,2.9470439785295,0.5645066487225433,6.411563377744058,-0.01209809282105449,0.249,0.9999999999999851,227.55136056020788,0.640763871023238,129,2026-10-07 21:46:38.501244,32.6,0.9395672639999776,0.15988970248464549,0.04657589325046027
0314,cdot_cos,P,T-P,130,26,22857,0.08910742675048616,-0.005059372545291052,0.27555975475624994,0.9998745211691062,836.0,3.015071652947489,0.5657272185227102,6.450283073467724,-0.07187870448643618,0.44,0.999999999999985,-48.97762639810152,0.6457312062407976,130,2026-10-07 21:46:38.941243,32.6,0.43531412436489014,0.09253034516267698,0.15460835094997466
0314,cdot_cos,Q,P-Q,131,26,22928,-0.015383341021201799,-0.007897137189016227,-0.10449076777168796,0.03209607666029331,836.0,3.0284706822726557,0.5657663858210564,6.4754926437517355,-0.014350598990141277,0.071,0.9999999999999842,1468.7790050725907,0.6506983615002071,131,2026-10-07 21:46:39.012243,32.6,0.01815589675884895,0.5745376124941088,0.18871872288967467
0314,cdot_cos,R,Q-R,132,26,22956,0.13506594675100994,0.13119556037769675,0.15044928777221173,0.9926424737327961,836.0,3.0966559939216523,0.5669773137186546,6.514073780399842,-0.07396508714751529,0.028,0.9999999999999843,-49.2304193136675,0.6556654957919307,132,2026-10-07 21:46:39.040244,32.6,0.4466493475589566,1.4375099485633742,2.4351897017498767
0314,cdot_cos,S,R-S,133,26,23007,-0.004061497076530637,-0.010499190908011451,-0.13912744382754058,0.010607239219067416,836.0,3.1089712393922047,0.5669902492328576,6.538850925044713,-0.013534635562901362,0.051,0.9999999999999836,4671.669841356179,0.6606326423773066,133,2026-10-07 21:46:39.091244,32.6,0.011506137655543692,0.235390390990609,0.2414754013833805
0314,cdot_cos,T,S-T,134,26,23257,-0.23736539075979723,0.057269290562786485,-0.2333038936832666,0.0004973560381295925,836.0,3.1206658138026944,0.5669908557556473,6.563394058903175,-0.012902231567828644,0.25,0.9999999999999833,1042.6714473705213,0.6655998913925126,134,2026-10-07 21:46:39.341243,32.6,0.9521667648197852,0.1620563557116279,0.046778297641958844
0314,cdot_cos,P,T-P,135,27,23693,0.07680713374316293,-0.00520760884533998,0.3141725245029602,0.9999643606409235,824.0,3.1899994172480186,0.5682098981319812,6.60200282088157,-0.07743635963493717,0.436,0.9999999999999831,-52.93837960021391,0.6705672395340169,135,2026-10-07 21:46:39.777244,32.6,0.43457672296461936,0.0953256305375104,0.1590220262507437
0314,cdot_cos,Q,P-Q,136,27,23763,-0.02541153739455387,-0.012354527774185053,-0.10221867113771681,0.03447862481730708,824.0,3.2037897636314034,0.5682519158897782,6.626899603473287,-0.015604482012848454,0.07,0.9999999999999818,1471.5653776867562,0.6755343953550184,136,2026-10-07 21:46:39.847244,32.6,0.019016591289291524,0.5940646191778681,0.197004948334069
0314,cdot_cos,R,Q-R,137,27,23791,0.11916144557615775,0.11384219171836647,0.1445729829707116,0.9911027788612835,824.0,3.27316846393292,0.5694593120229517,6.665350793849688,-0.07947283233593755,0.028,0.9999999999999821,-52.89759389506713,0.6805015291211141,137,2026-10-07 21:46:39.875243,32.6,0.44769185431446834,1.4760317598283477,2.4778107250541686
0314,cdot_cos,S,R-S,138,27,23845,0.0044612750536362775,-0.09744685763405465,-0.11470017052252147,0.023220496993527025,824.0,3.286447542181791,0.5694875902036449,6.689964854519315,-0.015404969005250029,0.054,0.9999999999999812,2265.628896916614,0.6854686777514564,138,2026-10-07 21:46:39.929244,32.6,0.01562459598068342,0.2475413310329678,0.2459088564605696
0314,cdot_cos,T,S-T,139,27,24095,-0.10572849015708181,0.019456060128250387,-0.11018976521071809,0.026800035928251524,824.0,3.2999029276844807,0.5695202270233635,6.71454488813151,-0.015672830138324736,0.25,0.9999999999999805,-8.207329494255138,0.6904359349670616,139,2026-10-07 21:46:40.179244,32.6,0.9830544237730379,0.16781417610867777,0.05382154201075906
0314,cdot_cos,P,T-P,140,28,24517,0.07363131311658987,-0.0022005957828747295,0.17935980327367168,0.9971201400125496,835.0,3.37035463023613,0.5707340784328818,6.7530171412973745,-0.08304984932575316,0.422,0.9999999999999803,-55.506809696059236,0.6954032909390118,140,2026-10-07 21:46:40.601243,32.6,0.4442872070551924,0.10041671436359141,0.16694716244466618
0314,cdot_cos,Q,P-Q,141,28,24589,-0.024885737541641383,-0.012634772144770632,-0.09851705065823124,0.03872944087872524,835.0,3.384654634607352,0.570781208935165,6.7776518181107095,-0.017070846407258658,0.072,0.9999999999999796,1399.9214886785385,0.7003704490936501,141,2026-10-07 21:46:40.673243,32.6,0.020962699490203608,0.589510969990338,0.19861117182252822
0314,cdot_cos,R,Q-R,142,28,24617,0.11659839521275896,0.11546313602880368,0.14148413275440033,0.9901694648097333,835.0,3.4552442099147385,0.5719857245120232,6.815997042612821,-0.08526645879792291,0.028,0.9999999999999797,-56.616629706477504,0.7053375823655217,142,2026-10-07 21:46:40.701244,32.6,0.44942148143050753,1.4979435057953834,2.521056260978094
0314,cdot_cos,S,R-S,143,28,24666,-0.0037919715984830065,-0.0550934930848166,-0.12039036681124196,0.019365133879934215,835.0,3.4685394709318933,0.5720092732411983,6.840236527499792,-0.01625632338054645,0.049,0.9999999999999787,2930.5248238348872,0.7103047286083402,143,2026-10-07 21:46:40.750243,32.6,0.014333932454398004,0.26089365390221597,0.2713318574929558
0314,cdot_cos,T,S-T,144,28,24915,-0.18424134878445636,0.0371866776010363,-0.18044937718597334,0.002779641800170059,835.0,3.4808117879971556,0.5720126533631197,6.8641523333525285,-0.015060935178541639,0.249,0.9999999999999782,353.6523917824062,0.7152719937585129,144,2026-10-07 21:46:40.999244,32.6,0.9236979839381972,0.1689637687029479,0.049286413916716176
0314,cdot_cos,P,T-P,145,29,25352,0.09829892876879807,-0.006437257693443538,0.28254027755325445,0.9999000572460089,837.0,3.5526834277459614,0.5732281212751802,6.902581149361253,-0.08920651357495415,0.437,0.999999999999978,-61.00167487821053,0.720239374326687,145,2026-10-07 21:46:41.436243,32.6,0.43554038098785375,0.09841083244898398,0.1644659948485257
0314,cdot_cos,Q,P-Q,146,29,25422,-0.00646675055574785,-0.0037013123111939907,-0.10476567932454592,0.03181882476196018,837.0,3.5668228555575676,0.5732667854659281,6.92680947073968,-0.01776394751890662,0.07,0.9999999999999771,1847.7708875842886,0.7252065324698812,146,2026-10-07 21:46:41.506243,32.6,0.01792116096900938,0.6151772245034793,0.20199182588008946
0314,cdot_cos,R,Q-R,147,29,25450,0.1447433641661619,0.13627586462379432,0.15121011472190976,0.9928214237263556,837.0,3.6388082391764485,0.5744727461061543,6.9651124373697675,-0.09146557968804186,0.028,0.9999999999999771,-61.11445905507651,0.7301736651770359,147,2026-10-07 21:46:41.534244,32.6,0.4467369046896133,1.5155526402880362,2.5709065578171733
0314,cdot_cos,S,R-S,148,29,25501,-0.0002931007232457314,-0.0006128909351970486,-0.14503646488940763,0.008764968432946893,837.0,3.6516938034136976,0.5744833888177483,6.988892614791252,-0.016565304114217406,0.051,0.9999999999999765,7037.70603123105,0.7351408130093019,148,2026-10-07 21:46:41.585243,32.6,0.01087253630676598,0.24707777059816124,0.2526581222990036
0314,cdot_cos,T,S-T,149,29,25753,-0.3720674805323403,-0.00959750065876435,-0.37177437980909456,5.4502437144837734e-06,837.0,3.664010171777461,0.5744833954355911,7.0124640706729116,-0.015888296249259214,0.252,0.9999999999999752,102300.3843429943,0.7401080886380219,149,2026-10-07 21:46:41.837244,32.6,0.9582845922876504,0.16949606317256685,0.04887447763398121
0314,cdot_cos,P,T-P,150,30,26189,0.09080704176617158,-0.004605296677147168,0.4628745222985119,0.9999997203451594,844.0,3.7371198192526713,0.575697172333053,7.050822167366771,-0.0953426627890131,0.436,0.9999999999999755,-65.46043733894079,0.7450754850038724,150,2026-10-07 21:46:42.273243,32.6,0.43458841949583943,0.10078919326689811,0.16768267769543677
0314,cdot_cos,Q,P-Q,151,30,26260,-0.008007355290082374,-0.004695930949134935,-0.09881439705625394,0.03837016652004172,844.0,3.751898348306196,0.5757437270804001,7.0748579767106925,-0.019501055678331377,0.071,0.9999999999999745,1629.0842810321333,0.7500426449488011,151,2026-10-07 21:46:42.344243,32.6,0.020463701119211586,0.618313273674652,0.20814829652851727
0314,cdot_cos,R,Q-R,152,30,26288,0.1325599690495092,0.12691355765649875,0.14056732433959157,0.9898742353955091,844.0,3.824920304114472,0.5769442804136652,7.113047418456384,-0.09741286774094447,0.028,0.9999999999999746,-64.89658551921292,0.7550097770454651,152,2026-10-07 21:46:42.372243,32.6,0.44941422332830133,1.5421473735104385,2.6079269931527094
0314,cdot_cos,S,R-S,153,30,26339,-0.001112143641991339,-0.002362018175554376,-0.13367211269150053,0.012645710380738584,844.0,3.8382586012227806,0.576959611718183,7.136596879354974,-0.017996213595586737,0.051,0.9999999999999732,5180.032400577262,0.7599769252658514,153,2026-10-07 21:46:42.423244,32.6,0.012119196037048478,0.253685586388425,0.26153523741781753
0314,cdot_cos,T,S-T,154,30,26591,-0.2569102595127871,0.07415585853438682,-0.25579811587079576,0.00023894968394467484,844.0,3.8507962339260913,0.5769599014126499,7.159884703176954,-0.016973062471858518,0.252,0.9999999999999726,3531.8283252687584,0.7649442098814435,154,2026-10-07 21:46:42.675244,32.6,0.9415000489271729,0.17233999030030225,0.049752510727423226
0314,cdot_cos,P,T-P,155,31,27033,0.07776254002268193,-0.0036270099426526157,0.334672799535469,0.9999817318514902,844.0,3.925117956334133,0.578171779381802,7.198181245625718,-0.10167268144130784,0.442,0.9999999999999724,-69.89121109999937,0.7699116273580054,155,2026-10-07 21:46:43.117243,32.6,0.4347162668187515,0.10123180551409762,0.16814869323086354
0314,cdot_cos,Q,P-Q,156,31,27104,-0.019160267444233894,-0.00981069013747611,-0.09692280746691583,0.04071141144899713,844.0,3.9402851500005536,0.5782210977102198,7.2219798787852,-0.02098696046329331,0.071,0.9999999999999711,1636.018972388195,0.7748787885022946,156,2026-10-07 21:46:43.188244,32.6,0.02139571959197261,0.6282644930342423,0.2136224460059241
0314,cdot_cos,R,Q-R,157,31,27132,0.11397751601029521,0.10841805006935683,0.1331377834545291,0.9871349413047936,844.0,4.014331514344995,0.5794164459317614,7.260067946031622,-0.10354058877253225,0.028,0.9999999999999711,-69.06240944815919,0.7798459199432719,157,2026-10-07 21:46:43.216243,32.6,0.4505406721935631,1.5751716281338248,2.644513012301492
0314,cdot_cos,S,R-S,158,31,27181,-0.0018410600332757485,-0.09128083238016488,-0.11581857604357096,0.022407754394752556,844.0,4.028494761176048,0.5794435693321867,7.283493415417831,-0.020024029631521768,0.049,0.9999999999999706,3079.1330670834013,0.7848130670979543,158,2026-10-07 21:46:43.265243,32.6,0.015439643909447536,0.28202635913836627,0.2890458536949472
0314,cdot_cos,T,S-T,159,31,27432,-0.13732984982107366,0.032968327133244886,-0.1354887897877979,0.01192720384224029,844.0,4.041970097540555,0.5794580063854137,7.30668813531393,-0.01911674930692117,0.251,0.9999999999999694,62.84387196848781,0.7897803603135484,159,2026-10-07 21:46:43.516243,32.6,0.953648648121331,0.17721453389923592,0.0536865990617828
0314,cdot_cos,P,T-P,160,32,27877,0.09308847653903103,-0.002691962172586263,0.23041832636010467,0.9994536135098163,853.0,4.117456457193464,0.5806672904865284,7.344925517849406,-0.10818293310749526,0.445,0.9999999999999694,-73.65199271078629,0.7947477979278752,160,2026-10-07 21:46:43.961244,32.6,0.43898397333620276,0.1016732977246175,0.16963226888294147
0314,cdot_cos,Q,P-Q,161,32,27951,-0.00938496133735464,-0.005201957388260897,-0.10247343787638567,0.03420320589333068,853.0,4.132459332515465,0.5807086574363299,7.368367588464217,-0.021739159678197617,0.074,0.9999999999999678,2089.6820733482796,0.7997149625636238,161,2026-10-07 21:46:44.035244,32.6,0.01875287455540358,0.6112790922115888,0.20274155840541377
0314,cdot_cos,R,Q-R,162,32,27977,0.13484125359515706,0.13034144760118194,0.1442262149325117,0.9910025384368238,853.0,4.207925762840779,0.5819067272250346,7.406464236414086,-0.11046151555294668,0.026,0.9999999999999677,-74.05441378392261,0.804682091809062,162,2026-10-07 21:46:44.061243,32.6,0.44789476146925233,1.7150986164719424,2.902555012512097
0314,cdot_cos,S,R-S,163,32,28036,-0.0008582831924547617,-0.0021676728414093426,-0.13569953678761182,0.011846508024247929,853.0,4.221644460572006,0.5819210432139007,7.429471297934199,-0.020294821388026404,0.059,0.9999999999999669,6298.32105962062,0.8096492469360083,163,2026-10-07 21:46:44.120243,32.6,0.011762456653562438,0.22584403802236164,0.23252030052926223
0314,cdot_cos,T,S-T,164,32,28289,-0.3446971401023381,-0.017006032829331406,-0.34383885690988336,1.3549508493180415e-05,853.0,4.234575359327418,0.5819210595878125,7.452226452030818,-0.019189863465873522,0.253,0.9999999999999659,67482.8310341675,0.8146165510908296,164,2026-10-07 21:46:44.373244,32.6,0.9440460889615959,0.17712594026769,0.05111027176052253
0314,cdot_cos,P,T-P,165,33,28730,0.10182679311405045,-0.004886612793809788,0.44652393321638856,0.9999995234440489,859.0,4.311270186347457,0.5831290155926171,7.490428624634236,-0.11492961691985301,0.441,0.9999999999999657,-79.25764934581831,0.8195840038542664,165,2026-10-07 21:46:44.814244,32.6,0.43473030373739663,0.10379800555998733,0.17391117238104067
0314,cdot_cos,Q,P-Q,166,33,28803,-0.006662801871520149,-0.0038253576259399845,-0.10848959498557059,0.028284178933188776,859.0,4.326125200231327,0.5831631672163953,7.51353266403937,-0.02249865606305601,0.073,0.9999999999999641,2706.4880269575315,0.8245511690502008,166,2026-10-07 21:46:44.887244,32.6,0.016435887134139966,0.6266576552855998,0.20349334087493007
0314,cdot_cos,R,Q-R,167,33,28831,0.13832212910735164,0.13496312116490752,0.1449849309788718,0.9912204233855245,859.0,4.4027622040191545,0.5843595062819325,7.551589916433674,-0.11720331646380061,0.028,0.9999999999999644,-79.16205625051667,0.8295182990679851,167,2026-10-07 21:46:44.915244,32.6,0.4457320122676042,1.6160647083593833,2.737035849565274
0314,cdot_cos,S,R-S,168,33,28880,-2.2108619939645103e-05,-4.320729267389796e-05,-0.1383442377272913,0.010878571676405381,859.0,4.416624823899452,0.5843726305290123,7.574335829329198,-0.021420137999244505,0.049,0.999999999999963,7298.184641109075,0.8344854467603603,168,2026-10-07 21:46:44.964243,32.6,0.011428540254780751,0.27538964870030097,0.2829106098019959
0314,cdot_cos,T,S-T,169,33,29126,-0.37214581909782546,0.016198065289534637,-0.37212371047788584,5.388527776647546e-06,859.0,4.429750389591784,0.5843726370298701,7.596845134705644,-0.02034332478897878,0.246,0.9999999999999618,165641.71270397186,0.8394527549608735,169,2026-10-07 21:46:45.210243,32.6,0.9484444885461948,0.18490992987236615,0.05335595809890934
0314,cdot_cos,P,T-P,170,34,29589,0.08150163435764618,-0.00333194521854261,0.45364745345547164,0.9999996222024476,855.0,4.5076005093966565,0.5855785542900958,7.635011118984436,-0.1217979575065303,0.463,0.9999999999999623,-84.13067468539701,0.8444202445030751,170,2026-10-07 21:46:45.673243,32.6,0.43475404216894115,0.10134997325433413,0.16814280735393616
0314,cdot_cos,Q,P-Q,171,34,29660,-0.014033447087977735,-0.007243392049786133,-0.09553508144562392,0.0425153844907074,855.0,4.523600464825297,0.5856298017305953,7.6581043056598155,-0.02529417398606179,0.071,0.9999999999999604,1883.0946985791668,0.8493874093418446,171,2026-10-07 21:46:45.744244,32.6,0.022032043509286173,0.6595644611195852,0.22535148491043616
0314,cdot_cos,R,Q-R,172,34,29688,0.12500908193289909,0.11852228625596027,0.13904252902087683,0.9893636696504838,855.0,4.601258662875638,0.5868218410595191,7.696097233746781,-0.12393718509403376,0.028,0.99999999999996,-82.75147364226045,0.8543545385834941,172,2026-10-07 21:46:45.772243,32.6,0.4511698781912802,1.6426722778786524,2.7735070732264333
0314,cdot_cos,S,R-S,173,34,29738,-0.0035086397917845854,-0.008256496934063867,-0.12851772172468368,0.014925035181071536,855.0,4.615590112386502,0.5868398158041226,7.718673604579233,-0.023102296647632276,0.05,0.9999999999999591,5609.809244613446,0.8593216873846348,173,2026-10-07 21:46:45.822243,32.6,0.01271830814189821,0.27676305059711304,0.28662899021728805
0314,cdot_cos,T,S-T,174,34,29989,-0.24592274812424336,0.06290587671379191,-0.24241410833245877,0.0003696072482924971,855.0,4.628934967935349,0.5868402609321899,7.740955637903704,-0.02157649621357564,0.251,0.9999999999999581,3427.7785342322504,0.8642890095921848,174,2026-10-07 21:46:46.073244,32.6,0.9317265975369585,0.18393291097847192,0.05316675517468885
0314,cdot_cos,P,T-P,175,35,30444,0.06970663164143252,-0.0035918730548104003,0.3156293797656759,0.9999660136562104,844.0,4.707924433697695,0.5880440253243856,7.779092227341139,-0.12887692558047828,0.455,0.9999999999999571,-89.13740102511437,0.869256512356737,175,2026-10-07 21:46:46.528243,32.6,0.4349254636940633,0.10437570234097611,0.1736032214557055
0314,cdot_cos,Q,P-Q,176,35,30514,-0.028710385520462803,-0.012579154056136051,-0.09841701716189533,0.038851032404757624,844.0,4.723916857065637,0.588090773252344,7.801906779196036,-0.026357316274352487,0.07,0.999999999999956,2193.0300182984593,0.8742236775996979,176,2026-10-07 21:46:46.598243,32.6,0.020453376876818443,0.6781132001129032,0.22846319097060377
0314,cdot_cos,R,Q-R,177,35,30540,0.1184196723879708,0.10733143787720532,0.1471300579084336,0.9918085558534198,844.0,4.802860281713501,0.5892836373316829,7.839909919569396,-0.13130246470760454,0.026,0.9999999999999563,-87.97745715624214,0.8791908042638875,177,2026-10-07 21:46:46.624243,32.6,0.44966042455492555,1.7996587397227222,3.036285563379392
0314,cdot_cos,S,R-S,178,35,30598,-0.007054695185088224,-0.05051467589842057,-0.12547436757305902,0.016456126888823717,844.0,4.817499111531219,0.5893034205698641,7.8622893042560795,-0.02458681353775067,0.058,0.9999999999999548,5394.245885959485,0.884157960681739,178,2026-10-07 21:46:46.682244,32.6,0.013031820440515639,0.24453538856938906,0.25239361754685097
0314,cdot_cos,T,S-T,179,35,30828,-0.18298954192700131,0.05374565494225042,-0.1759348467419131,0.0032189497234503682,844.0,4.8312263867875505,0.589307290295332,7.88439523066001,-0.023123716892069646,0.23,0.9999999999999534,378.0879697532926,0.8891252739512997,179,2026-10-07 21:46:46.912243,32.6,0.9386875949517409,0.20398674341893844,0.05968380546231205
0314,cdot_cos,P,T-P,180,36,31288,0.08435804830223981,-0.002104820857760421,0.26734759022924115,0.9998360084156681,853.0,4.91133301350393,0.5905087263028227,7.922506988371894,-0.1361309888617493,0.46,0.9999999999999533,-94.06016738728114,0.8940928018251959,180,2026-10-07 21:46:47.372243,32.6,0.4359898678693191,0.10497710191920863,0.1741448406877824
0314,cdot_cos,Q,P-Q,181,36,31361,-0.011095553305214872,-0.0063653530747199965,-0.09545360160745468,0.042623645853353494,853.0,4.927805320553222,0.5905599203868493,7.945172275766028,-0.028268994187498293,0.073,0.9999999999999519,2106.923030756817,0.8990599712159542,181,2026-10-07 21:46:47.445244,32.6,0.022025414800759053,0.6601523956620304,0.22564804177112377
0314,cdot_cos,R,Q-R,182,36,31390,0.1287531202896806,0.12614475553975446,0.13984867359489547,0.9896366956108918,853.0,5.007715263270587,0.59174799163206,7.983117994632567,-0.13835698499255805,0.029,0.9999999999999515,-92.66110197418024,0.9040270998663705,182,2026-10-07 21:46:47.474244,32.6,0.4512739216350448,1.6296920050444883,2.7555152661160136
0314,cdot_cos,S,R-S,183,36,31435,-0.0040581546814640644,-0.012505311811791904,-0.13281127497114467,0.013000938209344675,853.0,5.022327456845803,0.5917635923210172,8.005230634262528,-0.02554010727790332,0.045,0.99999999999995,7231.531762780265,0.9089942445391767,183,2026-10-07 21:46:47.519244,32.6,0.012067448115323306,0.3152242962853041,0.32471541278257615
0314,cdot_cos,T,S-T,184,36,31706,-0.22244537630365122,0.0665929259142453,-0.21838722162218716,0.0008085788714986823,853.0,5.036085449936264,0.5917645625823839,8.02708621213777,-0.024115082149226728,0.271,0.9999999999999484,1468.7023286627614,0.9139616067233005,184,2026-10-07 21:46:47.790244,32.6,0.942619391569887,0.1752435485568252,0.050767502178824496
0314,cdot_cos,P,T-P,185,37,32141,0.08466188248714979,-0.0054849614937926405,0.30710725879080103,0.9999551300165838,844.0,5.117309460163602,0.5929639180240726,8.065182420513493,-0.14358246391720064,0.435,0.9999999999999484,-99.6096549991579,0.9189291312331113,185,2026-10-07 21:46:48.225244,32.6,0.435157535419902,0.11175316390443651,0.18672186259158122
0314,cdot_cos,Q,P-Q,186,37,32212,-0.019613924396683195,-0.009332396532883137,-0.10427580688383298,0.03231449335427295,844.0,5.133310702533124,0.5930026579317177,8.087479234053234,-0.028555948931184072,0.071,0.9999999999999466,2969.199514869262,0.9238963001085151,186,2026-10-07 21:46:48.296243,32.6,0.01780794800857274,0.6842069441028971,0.2253696108383372
0314,cdot_cos,R,Q-R,187,37,32239,0.1279168989042271,0.11939599393151537,0.1475308233009103,0.991914020860393,844.0,5.214466846226213,0.5941912393622766,8.125444236426704,-0.14606987805422722,0.027,0.9999999999999465,-98.86906029466269,0.9288634259986741,187,2026-10-07 21:46:48.323244,32.6,0.44730934535769884,1.7770722379888004,3.005783099744053
0314,cdot_cos,S,R-S,188,37,32296,-0.005017799101248888,-0.027104653796543567,-0.132934698005476,0.012949408877913278,844.0,5.229272603384519,0.5942067489948717,8.147353710270478,-0.026895126529599234,0.057,0.9999999999999453,7683.918416106548,0.9338305829139146,188,2026-10-07 21:46:48.380243,32.6,0.011901498753956978,0.2522144249444131,0.25975012558431204
0314,cdot_cos,T,S-T,189,37,32543,-0.22216950065840577,0.06098344960498153,-0.21715170155715688,0.0008417835789880507,844.0,5.2432192906698765,0.5942077572007217,8.169007328967032,-0.02540432716288725,0.247,0.9999999999999433,1478.6656580798515,0.9387979324357731,189,2026-10-07 21:46:48.627244,32.6,0.9430057571800892,0.1948643559367328,0.05646432099334942
0314,cdot_cos,P,T-P,190,38,32985,0.07840152522840865,-0.004519161354578853,0.3005710258868144,0.9999444746547784,838.0,5.325535595217265,0.5954048296033135,8.207090484182178,-0.15117753334254752,0.442,0.9999999999999428,-105.06733419578066,0.943765484452514,190,2026-10-07 21:46:49.069243,32.6,0.43519677499496773,0.11206085721001292,0.18623598313888845
0314,cdot_cos,Q,P-Q,191,38,33055,-0.019047974564253466,-0.009171623456112325,-0.09744949979266213,0.04004611071540347,838.0,5.342281088443528,0.5954527468309135,8.22932203965077,-0.031040920069747836,0.07,0.9999999999999414,2507.1695356764044,0.9487326537262468,191,2026-10-07 21:46:49.139244,32.6,0.02085282471330074,0.7065554109712022,0.23922133180375327
0314,cdot_cos,R,Q-R,192,38,33082,0.12507886181257885,0.11717533996224548,0.14412683637683232,0.9909736052641714,838.0,5.4244533527532335,0.5966379158784616,8.26725883083826,-0.15358885118100146,0.027,0.9999999999999414,-103.401224799776,0.9536997787805,192,2026-10-07 21:46:49.166244,32.6,0.4502753442516887,1.8003594353520984,3.0434171966557626
0314,cdot_cos,S,R-S,193,38,33134,-0.006304011923856458,-0.03709233659020465,-0.1313828737364353,0.01361221947318598,838.0,5.439500497952541,0.596654187789483,8.288986244478108,-0.02837832841601062,0.052,0.9999999999999398,7694.887379881927,0.9586669311301399,193,2026-10-07 21:46:49.218244,32.6,0.012128610733835391,0.2820144679363748,0.28936817690976385
0314,cdot_cos,T,S-T,194,38,33384,-0.18425319431460974,0.047505126059439635,-0.17794918239075327,0.003014977601833465,838.0,5.4537828574186165,0.5966577918347866,8.310482758006179,-0.027008613555191584,0.25,0.9999999999999379,380.0492905668008,0.9636342946774812,194,2026-10-07 21:46:49.468243,32.6,0.9505504879396551,0.1953491093332147,0.057129437864301025
0314,cdot_cos,P,T-P,195,39,33823,0.09246563473824723,-0.001497113167235362,0.27671882905285694,0.9998791734680166,840.0,5.5371750526191486,0.5978524501707211,8.348556526721467,-0.15895892065381187,0.439,0.999999999999938,-110.45024600728938,0.9686018646997319,195,2026-10-07 21:46:49.907244,32.6,0.43600977854102735,0.11389884946376663,0.18995944237023255
0314,cdot_cos,Q,P-Q,196,39,33895,-0.009314120343655146,-0.005478300575131136,-0.10177975508190237,0.03495814395575191,840.0,5.553786047247804,0.5978941973331141,8.370520234604637,-0.03195023350917167,0.072,0.9999999999999359,3042.331019984785,0.9735690376091437,196,2026-10-07 21:46:49.979244,32.6,0.01877547613912272,0.6933765092662143,0.23070825873131956
0314,cdot_cos,R,Q-R,197,39,33924,0.13469228512228767,0.13535386788917053,0.14400640546594282,0.990938419307054,840.0,5.637021269953483,0.5990769877308866,8.408447693175845,-0.1613825962949131,0.029,0.9999999999999358,-109.42966989713412,0.9785361640311441,197,2026-10-07 21:46:50.008243,32.6,0.4484214218395307,1.6956445438001044,2.8701800932993047
0314,cdot_cos,S,R-S,198,39,33973,-0.0011906523926189603,-0.002467412475986156,-0.13588293751490663,0.011776722324238044,840.0,5.65213343078821,0.5990910375934132,8.429959613337793,-0.029557732905856164,0.049,0.999999999999934,9382.644359635218,0.9835033135263406,198,2026-10-07 21:46:50.057244,32.6,0.01156339032300707,0.29971833457703145,0.3084114456066575
0314,cdot_cos,T,S-T,199,39,34222,-0.29320203245080945,0.030135194730407613,-0.2920113800581905,7.33957600975555e-05,840.0,5.6663936667420325,0.5990911251554952,8.451221815725548,-0.02796402785453241,0.249,0.9999999999999325,18200.858343982585,0.988470687124968,199,2026-10-07 21:46:50.306243,32.6,0.944602329572449,0.19824375547517237,0.0572700239109352
0314,cdot_cos,P,T-P,200,40,34663,0.08437728706738733,-0.003311846935320685,0.3775793195181968,0.9999954894448858,839.0,5.7508588210148455,0.6002835431837268,8.489292804762757,-0.16691376832903482,0.441,0.9999999999999322,-116.52770855919971,0.9934382808602336,200,2026-10-07 21:46:50.747243,32.6,0.43497608644827224,0.11514168673658534,0.1915309620698707
0314,cdot_cos,Q,P-Q,201,40,34735,-0.014105650763022665,-0.007669034395428035,-0.09848293783041,0.03877086420626789,839.0,5.767948634443701,0.6003297506434846,8.51114474839253,-0.034070700655855636,0.072,0.9999999999999303,2874.926870454777,0.9984054553362128,201,2026-10-07 21:46:50.819244,32.6,0.020261327446941556,0.7038265605585441,0.23735851984521245
0314,cdot_cos,R,Q-R,202,40,34763,0.12867797829130967,0.12842492001354616,0.14278362905433234,0.9905733796436113,839.0,5.852209845735276,0.6015097170982471,8.549060960109426,-0.16929519857859687,0.028,0.9999999999999296,-114.60029001414354,1.0033725798378756,202,2026-10-07 21:46:50.847244,32.6,0.449891087964852,1.780859836634452,3.0093289746991085
0314,cdot_cos,S,R-S,203,40,34813,-0.0015693271785210028,-0.003218774510208566,-0.13024730546983068,0.014118333143281852,839.0,5.86767678529523,0.6015265263062617,8.570435368859657,-0.031341987947672914,0.05,0.9999999999999276,8207.002406716772,1.0083397308699227,203,2026-10-07 21:46:50.897243,32.6,0.012258370300521794,0.299049413874819,0.30933879119908525
0314,cdot_cos,T,S-T,204,40,35061,-0.30716000145855465,0.023454625245938162,-0.30559067428003367,4.714403223500451e-05,839.0,5.882114787122758,0.6015265824352803,8.591519685716321,-0.029331615102014826,0.248,0.9999999999999263,35816.99616039291,1.013307114668677,204,2026-10-07 21:46:51.145243,32.6,0.933756620164676,0.20152376172147715,0.05821774930454692
0314,cdot_cos,P,T-P,205,41,35502,0.06822685143111067,-0.003056061201913566,0.37538685288966533,0.9999951552564699,834.0,5.967632571109083,0.6027165599628331,8.629589511477905,-0.17503448613935638,0.441,0.9999999999999262,-122.44169966552424,1.0182747304760609,205,2026-10-07 21:46:51.586244,32.6,0.434993672478792,0.11663480182020554,0.1939178775200114
0314,cdot_cos,Q,P-Q,206,41,35574,-0.02965817869648724,-0.014639527362537234,-0.0978850301275979,0.03950384454375882,834.0,5.984986682328179,0.6027635440431732,8.651286108472597,-0.035826639532740616,0.072,0.999999999999924,2962.8726496071818,1.0232419065609812,206,2026-10-07 21:46:51.658243,32.6,0.020535586279803394,0.7129597008391344,0.24102932248744788
0314,cdot_cos,R,Q-R,207,41,35602,0.11367879468254605,0.11056450902423946,0.14333697337903328,0.9907403416627184,834.0,6.070298768029918,0.6039412639302311,8.689203396249374,-0.17745443750934004,0.028,0.9999999999999235,-120.25592802921234,1.0282090302347162,207,2026-10-07 21:46:51.686244,32.6,0.45017992013956715,1.8183091027666385,3.046860203633539
0314,cdot_cos,S,R-S,208,41,35650,0.002631741292212633,-0.09650478673575168,-0.11104705339033341,0.026080672777959984,834.0,6.086811992083111,0.603972250519618,8.71061341493831,-0.034637727266735224,0.048,0.9999999999999216,4608.984501624558,1.0331761792372234,208,2026-10-07 21:46:51.734244,32.6,0.016193347561971088,0.33797633683986067,0.34402550110818053
0314,cdot_cos,T,S-T,209,41,35897,-0.11942814033300712,0.02318310472080623,-0.12205988162521976,0.01835816384729263,834.0,6.102744496366545,0.6039940614535235,8.731842600943967,-0.03350818117972345,0.247,0.9999999999999198,51.78806610962827,1.0381435735249154,209,2026-10-07 21:46:51.981244,32.6,0.9668522751950481,0.20723740251503908,0.06450406592483383
0314,cdot_cos,P,T-P,210,42,36336,0.07659355748644585,-0.004324553188580164,0.19602169781945297,0.9983250696280432,839.0,6.18918726892554,0.6051795246808281,8.76988628191943,-0.18313747648818554,0.439,0.9999999999999196,-126.22010692703947,1.0431112097502864,210,2026-10-07 21:46:52.420243,32.6,0.4417405161718803,0.11905837617998608,0.19690836573803042
0314,cdot_cos,Q,P-Q,211,42,36407,-0.015908411634042975,-0.008528178355317207,-0.09250196912048883,0.04672766713553079,839.0,6.2072777506525725,0.6052349813680792,8.791547799004173,-0.03865050814089339,0.071,0.999999999999917,2605.4020806043436,1.048078386305038,211,2026-10-07 21:46:52.491244,32.6,0.023794658729352287,0.7356347333976501,0.2547955172821469
0314,cdot_cos,R,Q-R,212,42,36435,0.12859839230645856,0.12112421275812547,0.14450680394050153,0.9910837342857338,839.0,6.293647401068006,0.6064105656175043,8.829472994085764,-0.18589084836248945,0.028,0.9999999999999171,-125.24865001687598,1.0530455091894748,212,2026-10-07 21:46:52.519244,32.6,0.45290198128157794,1.823320898429245,3.084630371979781
0314,cdot_cos,S,R-S,213,42,36489,-0.005292680833387116,-0.01383351059870804,-0.13389107313984566,0.01255689473297814,839.0,6.30938372096461,0.6064254522373013,8.85048998373237,-0.034145002631686565,0.054,0.9999999999999147,10193.438658355066,1.0580126663080074,213,2026-10-07 21:46:52.573244,32.6,0.011746972495014364,0.282711191072585,0.2914133314185897
0314,cdot_cos,T,S-T,214,42,36738,-0.31433837221603383,0.015519574683261364,-0.3090456913826467,4.212236756306037e-05,839.0,6.3241802097038455,0.6064255021744481,8.871242187275746,-0.03218351687190735,0.249,0.9999999999999131,39279.09147866758,1.0629800749924134,214,2026-10-07 21:46:52.822243,32.6,0.9408731936904787,0.20559842558104502,0.059423649555161995
0314,cdot_cos,P,T-P,215,43,37175,0.08740938362818058,-0.005592603244203906,0.4017477558442144,0.9999979485811697,842.0,6.411771736903971,0.6076103965489252,8.909319235018849,-0.1918583471762323,0.437,0.999999999999913,-134.75870401932596,1.0679477315242107,215,2026-10-07 21:46:53.259244,32.6,0.43506764367257617,0.12070550279109163,0.200438277345824
0314,cdot_cos,Q,P-Q,216,43,37247,-0.009097207084696853,-0.005358736979308012,-0.09650659071287744,0.04124463687981532,842.0,6.42967681914326,0.6076592400888156,8.930732479971024,-0.03954197941454213,0.072,0.9999999999999103,3118.454725102297,1.0729149110075957,216,2026-10-07 21:46:53.331244,32.6,0.021236863384793168,0.7310090108866173,0.24868169776790272
0314,cdot_cos,R,Q-R,217,43,37275,0.13427794177957605,0.12916642184415827,0.1433751488642729,0.9907517518234203,842.0,6.5170370344716435,0.6088318782104007,8.96865564229938,-0.19430258638762327,0.028,0.9999999999999102,-131.97644194261176,1.0778820330106447,217,2026-10-07 21:46:53.359244,32.6,0.45090762689700065,1.8437448343283172,3.120007690299425
0314,cdot_cos,S,R-S,218,43,37328,-0.0006541356975662648,-0.0013794410915620393,-0.1349320774771423,0.012142992234131195,842.0,6.532926529865645,0.6088462427013355,8.989509080383389,-0.035622064145544946,0.053,0.9999999999999077,11046.720901084434,1.0828491894345036,218,2026-10-07 21:46:53.412243,32.6,0.011625466516556068,0.29110344110657693,0.2998017998868276
0314,cdot_cos,T,S-T,219,43,37574,-0.3502228908298537,-0.0042094373728107,-0.3495687551322874,1.1240888615958649e-05,842.0,6.547893999228941,0.6088462559986002,9.01010382919372,-0.033634350031695355,0.246,0.9999999999999056,149482.93153879422,1.0878166061414425,219,2026-10-07 21:46:53.658243,32.6,0.9426146323621866,0.21051774810620205,0.06084337139550933
0314,cdot_cos,P,T-P,220,44,38017,0.08717021343330239,-0.0038561263529188912,0.4373931042631561,0.9999993582171567,841.0,6.636501261933897,0.6100285507319755,9.048187721378904,-0.20047351487883555,0.443,0.9999999999999054,-141.11469850740087,1.0927842940434274,220,2026-10-07 21:46:54.101243,32.6,0.4350799513712207,0.11997590791635436,0.20001639436784677
0314,cdot_cos,Q,P-Q,221,44,38089,-0.01407477140489468,-0.007185071716625829,-0.10124498483819708,0.0355510741574803,841.0,6.654192653642831,0.6100705589052436,9.069353055192419,-0.04034783940804494,0.072,0.999999999999903,3811.774305172132,1.0977514751906343,221,2026-10-07 21:46:54.173243,32.6,0.018899293611840146,0.736648734811755,0.2457137737351925
0314,cdot_cos,R,Q-R,222,44,38116,0.13040368271609204,0.12631708881904663,0.14447845412098673,0.9910755636025188,841.0,6.7425786797467895,0.6112409830137596,9.107287725116796,-0.20296501586175786,0.027,0.9999999999999029,-138.93867639133057,1.1027185948806324,222,2026-10-07 21:46:54.200243,32.6,0.44878654218652353,1.9361968754997172,3.273556522368846
0314,cdot_cos,S,R-S,223,44,38166,-0.0012885256220722353,-0.0026071024563642927,-0.13169220833816428,0.013477480228296783,841.0,6.758747284919815,0.6112568906241059,9.128014134911323,-0.03741794998641229,0.05,0.9999999999999006,10406.784065699669,1.107685747670334,223,2026-10-07 21:46:54.250243,32.6,0.01198297094564611,0.31382190237429164,0.3233721034605175
0314,cdot_cos,T,S-T,224,44,38417,-0.212319010770827,0.05263649525573186,-0.21103048514875475,0.0010275048935891708,841.0,6.773960869984219,0.6112581033891172,9.148475794130619,-0.035289605613611656,0.251,0.9999999999998979,1754.951992316203,1.1126531835004103,224,2026-10-07 21:46:54.501244,32.6,0.9414718779395848,0.20880214955515905,0.0606118926868657
0314,cdot_cos,P,T-P,225,45,38858,0.07764198510015431,-0.0010069645177914583,0.2899609958709813,0.9999215310017138,854.0,6.863565963996505,0.6124376568250762,9.186567107044716,-0.20922629710108542,0.441,0.9999999999998977,-147.45978112137087,1.1176208924525433,225,2026-10-07 21:46:54.942244,32.6,0.43546849012296057,0.12252581422554344,0.203186154222872
0314,cdot_cos,Q,P-Q,226,45,38932,-0.017371531861412944,-0.008997316627016775,-0.09501351696156726,0.043212949032997126,854.0,6.882028638131148,0.6124886032151347,9.207725053930224,-0.04344953764518625,0.074,0.999999999999895,3253.9451620769137,1.1225880781796114,226,2026-10-07 21:46:55.016243,32.6,0.022029208615690767,0.7280759024096868,0.24949559641409128
0314,cdot_cos,R,Q-R,227,45,38959,0.12335406823569435,0.12048925900428296,0.1407256000971073,0.989925822663502,854.0,6.971321197553139,0.6136550116602271,9.2456473624006,-0.21155053617031194,0.027,0.9999999999998953,-144.1184683053345,1.1275551968694308,227,2026-10-07 21:46:55.043243,32.6,0.45175561997591934,1.957789370611891,3.307131830444107
0314,cdot_cos,S,R-S,228,45,39007,-0.006003309762646158,-0.031858193539901276,-0.12935737799834052,0.014527890756600005,854.0,6.98774926414419,0.6136721198912597,9.266248170206774,-0.039217502873506734,0.048,0.9999999999998924,10073.106504592224,1.132522347134898,228,2026-10-07 21:46:55.091244,32.6,0.012347658966770059,0.3310329219420686,0.34225138731356725
0314,cdot_cos,T,S-T,229,45,39273,-0.23441705359348,0.06309788626345025,-0.22841374383083385,0.0005832635108524907,854.0,7.003100358059577,0.6136728067440128,9.286557052600008,-0.03672993150063906,0.266,0.9999999999998896,3621.6952783194524,1.137489817625167,229,2026-10-07 21:46:55.357243,32.6,0.934516495204864,0.1991623448276347,0.05771087938115548
0314,cdot_cos,P,T-P,230,46,39712,0.10089784703543322,-0.0054496564115065396,0.3353149006289132,0.9999821102681681,858.0,7.093703631592492,0.6148497211777986,9.324660134453469,-0.21817663259745057,0.439,0.9999999999998895,-154.17153183613812,1.1424575478176116,230,2026-10-07 21:46:55.796243,32.6,0.43533018954101027,0.12326655698780276,0.20638558891324443
0314,cdot_cos,Q,P-Q,231,46,39784,-0.006363153243225555,-0.0036549190022045243,-0.10726100027865879,0.0294060260002394,858.0,7.111328395094868,0.6148843099210304,9.345434950487371,-0.04276561025512566,0.072,0.9999999999998869,5071.332634630051,1.1474247323104996,231,2026-10-07 21:46:55.868243,32.6,0.01654478933810334,0.7503858908847688,0.24478838197745165
0314,cdot_cos,R,Q-R,232,46,39812,0.14164794986060017,0.13289323709748044,0.14801110310382573,0.9920386379668966,858.0,7.201759199879898,0.6160505100406233,9.383404355286753,-0.22084350217144363,0.028,0.9999999999998866,-152.69925712105248,1.1523918514264049,232,2026-10-07 21:46:55.896243,32.6,0.4464832812611783,1.904677088484154,3.2296715994653638
0314,cdot_cos,S,R-S,233,46,39865,-0.0006175938798296142,-0.0012630044278701099,-0.1422655437404298,0.009585645029931405,858.0,7.217990312049981,0.616061772050237,9.403777367753232,-0.039933387484310655,0.053,0.999999999999884,16063.750688509233,1.1573590095434312,233,2026-10-07 21:46:55.949243,32.6,0.010777472213298035,0.2990978908489101,0.30624739943551776
0314,cdot_cos,T,S-T,234,46,40114,-0.3617074723780904,0.018702307283450813,-0.3610898784982608,7.721223204529242e-06,858.0,7.233463576309883,0.6160617811217194,9.423935683281485,-0.038152556170180006,0.249,0.9999999999998815,196310.94971912948,1.1623264675803517,234,2026-10-07 21:46:56.198244,32.6,0.954396006587439,0.21497578108447055,0.0621416235337431
0314,cdot_cos,P,T-P,235,47,40570,0.09019965568385561,-0.008168046436497978,0.45190712806194605,0.9999996001485663,844.0,7.325048251030047,0.6172359776312659,9.462050972524205,-0.22723049543384752,0.456,0.9999999999998813,-161.02750921708008,1.1672942484105586,235,2026-10-07 21:46:56.654243,32.6,0.43513560832333614,0.1205619001504352,0.20084358491264098
0314,cdot_cos,Q,P-Q,236,47,40637,-0.010053515745300017,-0.004865403657445456,-0.10025317142915563,0.036676488453550926,844.0,7.34341602924708,0.6172790171442312,9.482822916740387,-0.04591447193407873,0.067,0.999999999999878,4212.780559254235,1.172261426729596,236,2026-10-07 21:46:56.721244,32.6,0.019274061048667634,0.819607852509026,0.2741459435378002
0314,cdot_cos,R,Q-R,237,47,40663,0.14108744107172053,0.12297921989158572,0.15114095681702056,0.9928053375986767,844.0,7.434875703266257,0.6184433641868166,9.520817303577124,-0.23006857822277801,0.026,0.999999999999878,-158.16083998443614,1.1772285416419135,237,2026-10-07 21:46:56.747243,32.6,0.4491351807792793,2.074657979571199,3.5176797699683413
0314,cdot_cos,S,R-S,238,47,40722,-0.0003813917839350233,-0.0008297920829552883,-0.14146883285565556,0.009835391417841793,844.0,7.451298244184782,0.6184548922039863,9.541060113725853,-0.04161231721790309,0.059,0.9999999999998751,16347.673518340747,1.1821957098503642,238,2026-10-07 21:46:56.806243,32.6,0.010792998456856343,0.27169938468573246,0.27834815116144856
0314,cdot_cos,T,S-T,239,47,40972,-0.3744521613392261,0.004191037697063348,-0.37407076955529106,5.0571263822028725e-06,844.0,7.466936230659173,0.6184548981313867,9.561083443029336,-0.03970971054210999,0.25,0.9999999999998714,320985.0126506456,1.1871631822530613,239,2026-10-07 21:46:57.056243,32.6,0.9532168257957614,0.21638745207054377,0.06255194589756385
0314,cdot_cos,P,T-P,240,48,41414,0.08508362827610137,-0.003461199786040148,0.4595357896153275,0.9999996881885171,854.0,7.559491970220054,0.6196262947524793,9.599212081801426,-0.23645250502661389,0.442,0.9999999999998721,-167.95574696210403,1.1921309664128088,240,2026-10-07 21:46:57.498244,32.6,0.43515172272505215,0.12569021892461732,0.2094021257033505
0314,cdot_cos,Q,P-Q,241,48,41486,-0.0152458324774033,-0.007736942595050213,-0.10032946075350467,0.03658871950339701,854.0,7.578046384188535,0.6196691283576109,9.619854716388183,-0.04774946040987786,0.072,0.9999999999998687,4405.490596392245,1.1970981542892944,241,2026-10-07 21:46:57.570244,32.6,0.01921736694266966,0.769289573569069,0.2577001940066776
0314,cdot_cos,R,Q-R,242,48,41514,0.1265029608105708,0.12084982129960482,0.1417487932879741,0.9902530940148913,854.0,7.670269668814,0.6208276862698145,9.65781519630699,-0.23878917756455884,0.028,0.9999999999998684,-164.89440462351283,1.2020652713122377,242,2026-10-07 21:46:57.598243,32.6,0.4493132049843479,1.9471791567660737,3.293688736623755
0314,cdot_cos,S,R-S,243,48,41561,-0.006907490288095699,-0.02613729308750697,-0.1334104510986665,0.012752660285766793,854.0,7.687088416967435,0.6208425974389493,9.677981226438193,-0.04385870085623106,0.047,0.9999999999998657,13072.782888218477,1.2070324205873422,243,2026-10-07 21:46:57.645243,32.6,0.011742847332576408,0.34913051876220824,0.35784570539223365
0314,cdot_cos,T,S-T,244,48,41812,-0.18987751456901006,0.05731574292368892,-0.18297002428091436,0.0025609243774842435,854.0,7.7030879375776475,0.6208455917965724,9.697921097542181,-0.04181141066093042,0.251,0.9999999999998629,683.7159928804317,1.211999907821642,244,2026-10-07 21:46:57.896243,32.6,0.9522145825095631,0.21812836951221104,0.06374311000084698
0314,cdot_cos,P,T-P,245,49,42268,0.06999200482365497,-0.0031200218487733044,0.259869519392665,0.9997907447186275,861.0,7.796588858462565,0.6220138905425407,9.736060390226895,-0.2457870095216312,0.456,0.9999999999998622,-174.5919864799939,1.2169677409110786,245,2026-10-07 21:46:58.352243,32.6,0.43609828785486243,0.12396240817642236,0.20504587913359068
0314,cdot_cos,Q,P-Q,246,49,42340,-0.022362652226253017,-0.010459367323772749,-0.09235465704990799,0.04694205123971642,861.0,7.816141653834545,0.6220687096757233,9.756769588994054,-0.05177063026430066,0.072,0.9999999999998586,3539.2091774127407,1.2219349305185923,246,2026-10-07 21:46:58.424243,32.6,0.023573907756858786,0.7836457643557634,0.271566602388609
0314,cdot_cos,R,Q-R,247,49,42367,0.12459912679215772,0.11328639022334765,0.14696177901841073,0.9917638661178242,861.0,7.909433848529795,0.6232261645426436,9.79477114461506,-0.2484979097123486,0.027,0.9999999999998589,-169.9654000086308,1.2269020447518726,247,2026-10-07 21:46:58.451244,32.6,0.45308944103167237,2.044199787227873,3.4552664701944473
0314,cdot_cos,S,R-S,248,49,42421,-0.005777648865662458,-0.06873800680786968,-0.1303767756578202,0.01405970512380718,861.0,7.92652844234485,0.6232425630916973,9.81483682862145,-0.04585289080082949,0.054,0.9999999999998556,12357.496888717955,1.2318692062418235,248,2026-10-07 21:46:58.505243,32.6,0.012040731964979826,0.311290362789935,0.31656655213064944
0314,cdot_cos,T,S-T,249,49,42672,-0.15713825910578375,0.047749764464947095,-0.1513606102401213,0.007143694307022756,861.0,7.943053207711108,0.6232508950374941,9.834736377955856,-0.04441814936237985,0.251,0.9999999999998528,172.19764427774322,1.2368367069091264,249,2026-10-07 21:46:58.756243,32.6,0.9682153060960877,0.221023092820199,0.06583571859066896
0314,cdot_cos,P,T-P,250,50,43129,0.07338526618227899,-0.003913084269298151,0.23052352528806275,0.9994554831060791,856.0,8.03748203494059,0.6244158753529121,9.872885070819882,-0.255282794893468,0.457,0.9999999999998521,-181.00275407265374,1.2418045686798889,250,2026-10-07 21:46:59.213243,32.6,0.4377951639069269,0.1244583679398154,0.2066276306990853
0314,cdot_cos,Q,P-Q,251,50,43200,-0.022915403361895844,-0.011463799980239957,-0.09630066954417484,0.041510912731809436,856.0,8.056808156008099,0.6244642300690314,9.89337734073089,-0.05261625419980447,0.071,0.9999999999998487,4191.24662408594,1.2467717582612308,251,2026-10-07 21:46:59.284243,32.6,0.021241769029503723,0.799355663712388,0.27219888827477895
0314,cdot_cos,R,Q-R,252,50,43227,0.12163595027547655,0.11182075248107315,0.1445513536373724,0.9910965589497145,856.0,8.150990539187749,0.6256179874185076,9.931381007655165,-0.25790655048733424,0.027,0.9999999999998485,-177.9319510993624,1.251738871283263,252,2026-10-07 21:46:59.311244,32.6,0.45113568310840485,2.06745962237532,3.488236414061103
0314,cdot_cos,S,R-S,253,50,43279,-0.003749380760171128,-0.08133145522933352,-0.12538533103564767,0.016503172259549642,856.0,8.168450975616366,0.6256371870855199,9.951372003035718,-0.048141562255501105,0.052,0.9999999999998451,10925.44928503253,1.2567060297879893,253,2026-10-07 21:46:59.363244,32.6,0.012813532369902767,0.3356755429671638,0.3357776236272596
0314,cdot_cos,T,S-T,254,50,43529,-0.12875266131207064,0.039863998477940345,-0.12500328055189952,0.016706546655933387,856.0,8.185900795656334,0.6256566229539733,9.971329110585264,-0.048214206463585506,0.25,0.9999999999998418,-3.7376363324568413,1.2616735423447456,254,2026-10-07 21:46:59.613244,32.6,0.9984944373355362,0.22541024738584525,0.06979928015987014
0314,cdot_cos,P,T-P,255,51,43985,0.06117127413164583,-0.003375953271382729,0.18992393544371647,0.9979574676983232,840.0,8.281156099309289,0.6268168779562395,10.009466276764709,-0.2646746130287303,0.456,0.9999999999998421,-186.5627867514886,1.2666414298230508,255,2026-10-07 21:47:00.069243,32.6,0.4413858143781511,0.12581679440263513,0.20889320976525239
0314,cdot_cos,Q,P-Q,256,51,44055,-0.03543796981082914,-0.01623768003800395,-0.09660924394247497,0.04111250765835293,840.0,8.300645712151537,0.6268646453921052,10.029837885577432,-0.05452800831002384,0.07,0.999999999999838,4399.369589561967,1.2716086193190677,256,2026-10-07 21:47:00.139244,32.6,0.0211964742400991,0.8188860559872397,0.27842304060354495
0314,cdot_cos,R,Q-R,257,51,44082,0.11080139490170944,0.10110827642760822,0.14623936471253857,0.9915692519767659,840.0,8.395800147147503,0.6280159695164843,10.067865453362996,-0.267727206625282,0.027,0.9999999999998379,-185.17739166651245,1.2765757311519659,257,2026-10-07 21:47:00.166244,32.6,0.4509810448101855,2.1121571110218453,3.524238333183905
0314,cdot_cos,S,R-S,258,51,44140,0.006593204182932103,-0.14644655888676428,-0.10420819071877734,0.03238349310123159,840.0,8.414702196146717,0.6280535460113639,10.088037286004935,-0.05354404778940469,0.058,0.9999999999998345,5699.923835960364,1.2815429013026833,258,2026-10-07 21:47:00.224244,32.6,0.018313255632684558,0.3580711138278801,0.3258973965381761
0314,cdot_cos,T,S-T,259,51,44388,-0.06860121539919727,0.01567274204817704,-0.07519441958212937,0.07934075314870594,840.0,8.437336396351537,0.628145603267484,10.109050364395713,-0.0642680845969191,0.248,0.9999999999998314,-116.49311808204092,1.2865104243632315,259,2026-10-07 21:47:00.472243,32.6,0.8463146082959753,0.2386209524724086,0.09126693630975757
0314,cdot_cos,P,T-P,260,52,44825,0.0791105389817208,-0.0035413087460056387,0.14771175438091805,0.9919611921655365,838.0,8.533058188573031,0.6292957664365225,10.14709299139306,-0.2733566039496199,0.437,0.9999999999998311,-181.79031026310338,1.2914783051774528,260,2026-10-07 21:47:00.909244,32.6,0.4653837814225189,0.13263184701475825,0.2190430027951826
0314,cdot_cos,Q,P-Q,261,52,44895,-0.012929820005070857,-0.00679878403559417,-0.09204035898679165,0.04740258087679091,838.0,8.553256630642435,0.6293506923963877,10.167475392453623,-0.058071989734516063,0.07,0.9999999999998272,3919.5421389695334,1.296445496647044,261,2026-10-07 21:47:00.979244,32.6,0.024546099793000622,0.8313991085261968,0.28854917242005584
0314,cdot_cos,R,Q-R,262,52,44923,0.13851988829137063,0.12887713175029367,0.1514497082964415,0.9928768775509039,838.0,8.649454063766699,0.630500380399643,10.205544023825057,-0.2781020346634934,0.028,0.9999999999998268,-191.38239618573667,1.3014126093500353,262,2026-10-07 21:47:01.007244,32.6,0.4533074925116639,2.0274426132129073,3.4356226115808446
0314,cdot_cos,S,R-S,263,52,44977,-0.0008241004256109147,-0.0017686198231713877,-0.13934398871698153,0.010533408513676058,838.0,8.666793416982358,0.6305125695054068,10.22519937324121,-0.05045737267539964,0.054,0.9999999999998235,18676.075702243856,1.3063797729474653,263,2026-10-07 21:47:01.061243,32.6,0.010980620038391302,0.3129696567750463,0.32109913362331777
0314,cdot_cos,T,S-T,264,52,45228,-0.3983371167479718,-0.023056812380926474,-0.39751301632236086,2.3551016046221707e-06,838.0,8.683254786698404,0.6305125722306771,10.244620520812333,-0.04799595245488775,0.251,0.9999999999998195,903183.8720435861,1.3113473159465574,264,2026-10-07 21:47:01.312243,32.6,0.9500089129446135,0.2265954099691738,0.06558314627906708
0314,cdot_cos,P,T-P,265,53,45663,0.09613310469582426,-0.009542462309819057,0.49447022144379604,0.9999999001632334,840.0,8.780544312786883,0.6316689974774221,10.282830179358623,-0.2851524433615501,0.435,0.9999999999998194,-205.077233979623,1.3163152196789578,265,2026-10-07 21:47:01.747243,32.6,0.43531595418072494,0.13370721924663684,0.22365408296202163
0314,cdot_cos,Q,P-Q,266,53,45732,-0.009808764825091581,-0.0049948747846217095,-0.10594186952091583,0.03065856181568399,840.0,8.799580067442978,0.631704427990482,10.302791468075368,-0.05616257195843108,0.069,0.9999999999998151,6463.0695868315715,1.3212824109693413,266,2026-10-07 21:47:01.816243,32.6,0.0169537157896644,0.8416955281168575,0.27588050226224115
0314,cdot_cos,R,Q-R,267,53,45758,0.14204534483502151,0.1293733476022132,0.1518541096601131,0.9929695129387072,840.0,8.89669829566701,0.6328511811989008,10.340877556176522,-0.288051979016185,0.026,0.9999999999998146,-202.2138724839382,1.3262495186477652,267,2026-10-07 21:47:01.842243,32.6,0.4470761866427954,2.2023732876370437,3.735316470155066
0314,cdot_cos,S,R-S,268,53,45812,-0.0009912551622739646,-0.002161690857221225,-0.14303659999729548,0.009349923955729164,840.0,8.914103478400104,0.6328619720491115,10.360401045258794,-0.05195710759703292,0.054,0.9999999999998118,21879.172336638792,1.33121668297618,268,2026-10-07 21:47:01.896243,32.6,0.010630435131913765,0.31500977007980635,0.32231819876101014
0314,cdot_cos,T,S-T,269,53,46047,-0.3662960944283194,0.01813406274156979,-0.36530483926604546,6.729938920634388e-06,840.0,8.930719350835629,0.6328619798161602,10.379712286172253,-0.04969564140250688,0.235,0.9999999999998077,291161.58406487416,1.336184208271067,269,2026-10-07 21:47:02.131244,32.6,0.9555135553575294,0.24429583459767354,0.07070584015116825
0314,cdot_cos,P,T-P,270,54,46503,0.07471822717477714,-0.00458890659647564,0.4410143216030965,0.9999994296795578,837.0,9.02892252066101,0.6340153195290336,10.417938904310846,-0.29520946346692384,0.456,0.9999999999998074,-212.87207864607527,1.3411521812084588,270,2026-10-07 21:47:02.587244,32.6,0.43532616340896957,0.12951827314949133,0.21535782856443425
0314,cdot_cos,Q,P-Q,271,54,46573,-0.023346561673753315,-0.010866680864927378,-0.09806478884853045,0.0392820908161488,837.0,9.048840015947965,0.6340605939006266,10.437959013197505,-0.060264820124371773,0.07,0.9999999999998027,5189.351835829681,1.3461193762279615,271,2026-10-07 21:47:02.657243,32.6,0.02027154290157626,0.8417232492507967,0.2845356469564868
0314,cdot_cos,R,Q-R,272,54,46601,0.12353838962558938,0.11536559117727231,0.1468849512993427,0.9917433827093485,837.0,9.146763775556122,0.6352028360900192,10.476037852019392,-0.297826176338389,0.028,0.9999999999998023,-207.9780964318612,1.3510864867444539,272,2026-10-07 21:47:02.685244,32.6,0.4503856651236407,2.0682418109359317,3.4972771288627666
0314,cdot_cos,S,R-S,273,54,46656,-0.00834495738015319,-0.05211959532574879,-0.13188334700574258,0.013394882927871414,837.0,9.164661557360377,0.6352182532873701,10.495532335597737,-0.0547799917626163,0.055,0.9999999999997986,15764.615256755573,1.3560536538243178,273,2026-10-07 21:47:02.740243,32.6,0.011834109528570043,0.31795147720191347,0.3254142146228131
0314,cdot_cos,T,S-T,274,54,46905,-0.17970147871679515,0.04185586485990981,-0.17135652133664195,0.0037351595333322937,837.0,9.181738438048333,0.6352225523192803,10.514808517900697,-0.05236701651331803,0.249,0.9999999999997945,561.2834004824151,1.361021221291565,274,2026-10-07 21:47:02.989243,32.6,0.9549673284437699,0.23327021950341037,0.06858185015243279
0314,cdot_cos,P,T-P,275,55,47340,0.07700323426518255,-0.0051680881022367715,0.2567047129819777,0.999768007534378,842.0,9.280830126673075,0.6363724712664928,10.553047970148308,-0.3053809343420368,0.435,0.999999999999794,-220.0276101563898,1.3659891792438925,275,2026-10-07 21:47:03.424243,32.6,0.4366955373287769,0.13694894119041165,0.22779698534423587
0314,cdot_cos,Q,P-Q,276,55,47411,-0.02153020407414144,-0.010140533518233958,-0.09853343833932399,0.038709556365999154,842.0,9.300884016883991,0.6364169632203946,10.572957222337045,-0.062197694694484176,0.071,0.9999999999997897,5465.780176430222,1.3709563781963965,276,2026-10-07 21:47:03.495244,32.6,0.020043641728095512,0.8367946905162372,0.2824491579002187
0314,cdot_cos,R,Q-R,277,55,47437,0.12314968063266653,0.11465334757077263,0.14467988470680798,0.9911334572356191,842.0,9.399654972726381,0.6375553545583574,10.611040424611382,-0.30788419247866694,0.026,0.9999999999997898,-215.81901547481243,1.3759234833718266,277,2026-10-07 21:47:03.521244,32.6,0.4502359614308107,2.2496382564117363,3.798882917015006
0314,cdot_cos,S,R-S,278,55,47491,-0.0048040793949263244,-0.03326762182911442,-0.12795376002759284,0.015197763352115819,842.0,9.417865206217401,0.6375727983659677,10.630467511645579,-0.05711800155403764,0.054,0.9999999999997856,14375.656767568438,1.3808906491437378,278,2026-10-07 21:47:03.575244,32.6,0.012396786290062006,0.32639241463401275,0.33722654613000247
0314,cdot_cos,T,S-T,279,55,47743,-0.20618357168809168,0.05313260328539613,-0.20137949229316535,0.0014068820694083293,842.0,9.434905353506855,0.6375744131497441,10.649596871453248,-0.053547943865144346,0.252,0.9999999999997811,2210.8580363249835,1.385858237532693,279,2026-10-07 21:47:03.827244,32.6,0.935503582412343,0.23223293527803557,0.06761963210100494
0314,cdot_cos,P,T-P,280,56,48182,0.09456636786375278,-0.0043701671077660134,0.3007499395518445,0.9999447975506489,856.0,9.534910605597531,0.6387213374125115,10.687856889172298,-0.31577961124876675,0.439,0.9999999999997808,-228.63904435231308,1.3908262318060827,280,2026-10-07 21:47:04.266243,32.6,0.43586347512012663,0.13651977537946106,0.22780239656190587
0314,cdot_cos,Q,P-Q,281,56,48254,-0.007917393832579696,-0.004508434163001049,-0.10248376169633247,0.03419209004751815,856.0,9.554769716290021,0.6387605274507729,10.707582437682667,-0.06310100035074873,0.072,0.9999999999997756,6447.5214137881885,1.3957934348014878,281,2026-10-07 21:47:04.338243,32.6,0.018236104176068735,0.8303239929437921,0.27582098184014076
0314,cdot_cos,R,Q-R,282,56,48281,0.13885271558145348,0.13111661187540383,0.14677010941403318,0.9917126699278974,856.0,9.654477260581437,0.6398963959007385,10.745692634563172,-0.3183610362113988,0.027,0.9999999999997757,-224.72675939575538,1.4007605408504613,282,2026-10-07 21:47:04.365243,32.6,0.4485234959272761,2.1796271878425304,3.6928720107931827
0314,cdot_cos,S,R-S,283,56,48330,-0.00015989993163557193,-0.0003095510720454453,-0.13901261551308905,0.010646597265012943,856.0,9.672469584433518,0.6399085816231224,10.764933409502033,-0.05779972251045759,0.049,0.9999999999997715,21382.5086026059,1.4057276962821372,283,2026-10-07 21:47:04.414243,32.6,0.011020447719528365,0.3578256067131716,0.3671902826955248
0314,cdot_cos,T,S-T,284,56,48582,-0.37072649453758133,0.033552555492517046,-0.37056659460594576,5.66912001021448e-06,856.0,9.689544170039328,0.6399085881117507,10.783936066696949,-0.05495104330093335,0.252,0.9999999999997672,439026.4131699204,1.4106952994600748,284,2026-10-07 21:47:04.666244,32.6,0.9494804757199071,0.23407536624683117,0.06775629208654801
0314,cdot_cos,P,T-P,285,57,49038,0.07773296796811875,-0.005359548988820827,0.44845946250570007,0.9999995525848496,851.0,9.790443569021921,0.6410523469007351,10.822214135186744,-0.3262468181324831,0.456,0.9999999999997672,-237.19666895188624,1.4156633597042343,285,2026-10-07 21:47:05.122243,32.6,0.4353669498332574,0.13263816686919072,0.2212706118039316
0314,cdot_cos,Q,P-Q,286,57,49107,-0.0243933589108009,-0.01122912682103712,-0.10212632687891965,0.03457898190597252,851.0,9.81051017822403,0.6410918683468271,10.84185238621759,-0.06528287664158268,0.069,0.9999999999997616,6603.096983939416,1.420630557815378,286,2026-10-07 21:47:05.191243,32.6,0.018362711010931454,0.8741730706500588,0.2908204232189727
0314,cdot_cos,R,Q-R,287,57,49135,0.12157144538549232,0.11004208922997609,0.14596480429629322,0.991494097158332,851.0,9.911079452771629,0.6422242626786229,10.879974114057616,-0.3287374918593013,0.028,0.9999999999997616,-232.65271453621835,1.42559766477757,287,2026-10-07 21:47:05.219244,32.6,0.4486943527811193,2.1274822999212604,3.5917598052713933
0314,cdot_cos,S,R-S,288,57,49191,-0.005495526281693546,-0.06482050403754887,-0.12706697166718586,0.015636562155303152,851.0,9.92964918701962,0.6422421086670403,10.899215140594013,-0.06106548861723379,0.056,0.999999999999757,14999.00128703184,1.4305648363849068,288,2026-10-07 21:47:05.275244,32.6,0.012483347503747704,0.329883129394288,0.33160239728556384
0314,cdot_cos,T,S-T,289,57,49442,-0.1367789786296343,0.03995873071105734,-0.13128345234794075,0.0136558066613374,851.0,9.94802636326379,0.6422576936991905,10.918385943164616,-0.060543640138845216,0.251,0.9999999999997523,33.483952638708665,1.4355324521816406,289,2026-10-07 21:47:05.526243,32.6,0.9914176630195765,0.23919056299268215,0.07321584161023378
0314,cdot_cos,P,T-P,290,58,49889,0.07403683270479712,-0.0030012248589712637,0.21081581133443145,0.9989652864963922,863.0,10.049722849641947,0.6433969703748456,10.956660834780058,-0.33658558345313844,0.447,0.9999999999997522,-242.29579101632737,1.4405005216234892,290,2026-10-07 21:47:05.973243,32.6,0.4403770073787553,0.1372148486678778,0.2275089180719413
0314,cdot_cos,Q,P-Q,291,58,49964,-0.020984730650773456,-0.01039919364493292,-0.09502156335557058,0.04320210486961644,863.0,10.070696437972872,0.643446204034158,10.976375405788973,-0.06983796673781553,0.075,0.9999999999997469,5417.992902429502,1.4454677353442675,291,2026-10-07 21:47:06.048243,32.6,0.021938295466945073,0.8147764247702938,0.2796478444123333
0314,cdot_cos,R,Q-R,292,58,49988,0.11732123887841124,0.10875163138787645,0.1383059695291847,0.9891079962787597,863.0,10.171939313357491,0.6445725731083278,11.014466391660756,-0.3386871266952247,0.024,0.9999999999997466,-238.6865603137712,1.4504348316731186,292,2026-10-07 21:47:06.072243,32.6,0.45212436704571646,2.500883769436505,4.218453141025795
0314,cdot_cos,S,R-S,293,58,50046,-0.008206625327229312,-0.049072988723588826,-0.12552786420564055,0.016427923634992264,863.0,10.190738858905824,0.6445912673066634,11.03363064412318,-0.06326147167015454,0.058,0.9999999999997421,14733.215625578147,1.4554020087822188,293,2026-10-07 21:47:06.130244,32.6,0.012858294790702827,0.31332198045331866,0.324130095660917
0314,cdot_cos,T,S-T,294,58,50300,-0.19879354975690122,0.061157817419276256,-0.1905869244296719,0.001998947105939237,863.0,10.208284663090076,0.6445935419836076,11.052482336683244,-0.05914778201965546,0.254,0.9999999999997368,1808.4720385911676,1.4603696467172045,294,2026-10-07 21:47:06.384243,32.6,0.9328141001267236,0.23661820277191944,0.0690779692293377
0314,cdot_cos,P,T-P,295,59,50752,0.10766017890082352,-0.009169926476245706,0.30645372865772474,0.9999541638460845,862.0,10.31094090591396,0.6457306067682572,11.09079293270891,-0.34759676907639303,0.452,0.9999999999997368,-253.67858626070233,1.4653377574861441,295,2026-10-07 21:47:06.836244,32.6,0.43611995787440955,0.13539715667147936,0.22711558146876837
0314,cdot_cos,Q,P-Q,296,59,50823,-0.0026627944580468713,-0.0015055265556978366,-0.1103229733588704,0.0266870059486344,862.0,10.330683692721093,0.6457609305248753,11.110096872218133,-0.06724578653077358,0.071,0.9999999999997312,9245.258959069437,1.4703049637079015,296,2026-10-07 21:47:06.907244,32.6,0.01546696141828512,0.8304303965361781,0.2780674198187893
0314,cdot_cos,R,Q-R,297,59,50849,0.08354264910861701,0.25671621545063655,0.08620544356666389,0.9432297495124063,862.0,10.428862022222097,0.6468319440891911,11.14730562178988,-0.33585417252416827,0.026,0.9999999999997305,-250.79830446870616,1.475272063169468,297,2026-10-07 21:47:06.933243,32.6,0.4494292513167092,2.242495986505465,3.7760895961924326
0314,cdot_cos,S,R-S,298,59,50908,-0.05628409050458537,0.31354435688735627,-0.13982673961320238,0.010370640420517814,862.0,10.447293484019378,0.6468437115212708,11.166259488963131,-0.06340465478282686,0.059,0.9999999999997257,23152.843874070946,1.4802392434321916,298,2026-10-07 21:47:06.992243,32.6,0.013609386737478864,0.30462957759851683,0.312397657581033
0314,cdot_cos,T,S-T,299,59,51156,-0.42851508939733723,0.01198258579836762,-0.37223099889275185,5.369713871530893e-06,862.0,10.464808312378722,0.64684371761417,11.184979245134977,-0.06035516120086688,0.248,0.9999999999997206,500499.5962144681,1.485206881578618,299,2026-10-07 21:47:07.240243,32.6,0.9507293872796698,0.2440195893059413,0.07062430790058079
0314,cdot_cos,P,T-P,300,60,51614,0.08064599412761274,-0.0041176210155844896,0.5091610835249499,0.9999999381560392,860.0,10.568327200315125,0.647977566715856,11.22330653785896,-0.35825999355266014,0.458,0.9999999999997201,-262.7376358183943,1.4901750360373072,300,2026-10-07 21:47:07.698244,32.6,0.4353815473912759,0.13567215737994345,0.22602377278690577
0314,cdot_cos,Q,P-Q,301,60,51684,-0.019646459091401607,-0.009157988110315816,-0.10029245321901434,0.03663127047795029,860.0,10.58908400853875,0.648019069490578,11.24271672014323,-0.07225610289429947,0.07,0.9999999999997149,6891.199264980128,1.495142241439092,301,2026-10-07 21:47:07.768243,32.6,0.01909751583937393,0.8859145854896839,0.2965258317660765
0314,cdot_cos,R,Q-R,302,60,51711,0.13135800252803054,0.11792488601952832,0.15100446161943215,0.9927734837312296,860.0,10.69235524228368,0.6491430165657444,11.280908964545409,-0.36107319911613234,0.027,0.9999999999997146,-256.96681151919626,1.5001093418235836,302,2026-10-07 21:47:07.795244,32.6,0.4493805648135933,2.2587085862368164,3.8248605090714967
0314,cdot_cos,S,R-S,303,60,51767,-0.0047429314441587165,-0.014257627992987286,-0.13610093397218925,0.011694300829202907,860.0,10.711054272195538,0.6491562461911745,11.299800809588506,-0.06575208958383065,0.056,0.9999999999997095,22322.711333848267,1.505076515524513,303,2026-10-07 21:47:07.851244,32.6,0.011204575365781635,0.3247123779657825,0.33391124842603
0314,cdot_cos,T,S-T,304,60,52014,-0.288637102062448,0.03414574246483853,-0.2838941706182893,9.56279329742449e-05,860.0,10.728723028615848,0.649156354372989,11.318433878306822,-0.06223486108928721,0.247,0.9999999999997037,32512.197272585163,1.510044166204246,304,2026-10-07 21:47:08.098243,32.6,0.9450519241123398,0.24705980599489272,0.07153342680287433
0314,cdot_cos,P,T-P,305,61,52474,0.08351044620467617,-0.004836518239040871,0.3721475482671242,0.9999946156580632,858.0,10.833101816357015,0.6502867867615216,11.356776678687275,-0.36919780286669995,0.46,0.9999999999997033,-271.5447158904168,1.5150123564786748,305,2026-10-07 21:47:08.558244,32.6,0.4354252231722434,0.13646625272654628,0.22691040813297184
0314,cdot_cos,Q,P-Q,306,61,52544,-0.014447337105752803,-0.007351944732910289,-0.09795778331042897,0.03941395062389662,858.0,10.85427198112427,0.6503313073293576,11.376158096180733,-0.07531251034133295,0.07,0.9999999999996974,6601.1128521091,1.519979563622024,306,2026-10-07 21:47:08.628243,32.6,0.02019720971145827,0.8930941112546188,0.3024309252465075
0314,cdot_cos,R,Q-R,307,61,52572,0.12582574391509613,0.11427383010171313,0.14027308102084893,0.9897776360269391,858.0,10.958134991932662,0.6514484633936657,11.414305586282316,-0.37107007604939035,0.028,0.9999999999996975,-264.7414941897494,1.5249466650916281,307,2026-10-07 21:47:08.656243,32.6,0.4506611033130752,2.1939310485033583,3.7093932431568253
0314,cdot_cos,S,R-S,308,61,52626,-0.006140966538017897,-0.023646239875664242,-0.13196671045311403,0.013359015408306208,858.0,10.977132119840459,0.651463530286057,11.43314496194688,-0.06825174206236442,0.054,0.9999999999996918,20098.260883729592,1.5299138343661831,308,2026-10-07 21:47:08.710243,32.6,0.011833918534683201,0.3408978885439344,0.3517986649592028
0314,cdot_cos,T,S-T,309,61,52877,-0.2736537668479212,0.029049765990933847,-0.2675128003099033,0.0001631108683776193,858.0,10.994951963895407,0.6514637142478855,11.451693460486043,-0.06412951040834354,0.251,0.9999999999996863,22408.081538182552,1.5348815104489428,309,2026-10-07 21:47:08.961244,32.6,0.9377425890131204,0.24512362185807768,0.07099539464122695
0314,cdot_cos,P,T-P,310,62,53332,0.09138711466094016,-0.006528464568015437,0.3650408815088614,0.9999932119003155,856.0,11.100184178013214,0.6525906893238262,11.490051275410433,-0.38025250171842095,0.455,0.999999999999686,-280.5057521313839,1.5398497189947773,310,2026-10-07 21:47:09.416243,32.6,0.4354609322047748,0.138620729816253,0.23127959146770777
0314,cdot_cos,Q,P-Q,311,62,53401,-0.010805712160142615,-0.005656556215927561,-0.10219282682108277,0.03450668334156487,856.0,11.121096828028197,0.6526295473485685,11.509254162168704,-0.07599452041424759,0.069,0.9999999999996798,7829.990930379028,1.544816925294018,311,2026-10-07 21:47:09.485244,32.6,0.018248303619149527,0.9115518965618874,0.303081884275119
0314,cdot_cos,R,Q-R,312,62,53429,0.1362260668744487,0.12221322770228478,0.1470317790345913,0.9917824852800846,856.0,11.225978339738754,0.6537455244252733,11.54745502316667,-0.3827085006772545,0.028,0.9999999999996797,-274.83896100145813,1.5497840253728377,312,2026-10-07 21:47:09.513243,32.6,0.4486869924388176,2.211254404401603,3.745768275377045
0314,cdot_cos,S,R-S,313,62,53485,-0.0015769732896416752,-0.0032882805017606033,-0.13780304016409037,0.011070062340278118,856.0,11.244927074674687,0.6537579712064377,11.566165953773258,-0.06952517731837339,0.056,0.9999999999996737,25161.79237202174,1.5547512005331872,313,2026-10-07 21:47:09.569243,32.6,0.011057979168734076,0.32970055009289606,0.33837026671308074
0314,cdot_cos,T,S-T,314,62,53732,-0.24764402236659638,0.0841096425937601,-0.2460670490769547,0.0003281256382780294,856.0,11.262904801349158,0.6537583401359284,11.584634067117639,-0.06607079646246271,0.247,0.9999999999996683,9363.254886641067,1.5597188815475704,314,2026-10-07 21:47:09.816243,32.6,0.9490602246112592,0.2511217712701122,0.0727843185201289
0314,cdot_cos,P,T-P,315,63,54188,0.07552745697545589,-0.00496852697645314,0.32317147934205226,0.9999734217356304,847.0,11.368981229682122,0.654881804006341,11.623005869832328,-0.39139454529216844,0.456,0.9999999999996677,-289.5720613696477,1.564687123893131,315,2026-10-07 21:47:10.272243,32.6,0.43553012129556185,0.1398329362069137,0.23262374634421842
0314,cdot_cos,Q,P-Q,316,63,54259,-0.02300013180568795,-0.01091192826336353,-0.09852758878114384,0.038716652988231647,847.0,11.390432439169864,0.6549252672550553,11.642213291378232,-0.0795906891929739,0.071,0.9999999999996612,7173.965714087517,1.5696543372806018,316,2026-10-07 21:47:10.343244,32.6,0.019888927461044918,0.8953970707232743,0.3021297110949536
0314,cdot_cos,R,Q-R,317,63,54286,0.12301876745465062,0.11399252211273607,0.14601889926033856,0.9915089568094861,847.0,11.496127613724827,0.6560374495176049,11.680421809088235,-0.39374932131824625,0.027,0.9999999999996605,-282.4704571398961,1.574621433237585,317,2026-10-07 21:47:10.370244,32.6,0.4502895008137901,2.318399867219288,3.9146360946282686
0314,cdot_cos,S,R-S,318,63,54344,-0.004160816107279295,-0.05556345429022269,-0.12717958356192993,0.015580155991373109,847.0,11.515626031999705,0.656054912277545,11.69914207757798,-0.07303363685035673,0.058,0.9999999999996553,18365.69279818202,1.5795886146020646,318,2026-10-07 21:47:10.428244,32.6,0.012384097322531158,0.3268555512430258,0.33617962542893626
0314,cdot_cos,T,S-T,319,63,54593,-0.17614569138749456,0.04683147769175586,-0.17198487528021525,0.003659702752673793,847.0,11.534042857669018,0.6560590141336226,11.717595785380333,-0.06909567217797381,0.249,0.9999999999996484,960.0445744331872,1.5845563165162329,319,2026-10-07 21:47:10.677243,32.6,0.9446007495206863,0.25163558187540075,0.07396315529844452
0314,cdot_cos,P,T-P,320,64,55035,0.07856739433301246,-0.004727999111078095,0.254713085720507,0.9997524490592881,847.0,11.640940551773655,0.6571786802125675,11.755976842516787,-0.40260892420635525,0.442,0.9999999999996486,-297.8684969563769,1.589524552079033,320,2026-10-07 21:47:11.119244,32.6,0.43675618120872073,0.14540686060893054,0.24184998666207444
0314,cdot_cos,Q,P-Q,321,64,55106,-0.01976866137873649,-0.009876848982331527,-0.09833605571174896,0.03894970982995124,847.0,11.662582522447313,0.6572222663959691,11.775112343829221,-0.08195732259890479,0.071,0.9999999999996422,7356.72583793135,1.5944917674506334,321,2026-10-07 21:47:11.190243,32.6,0.019992029113318627,0.9016136777585065,0.30481648836137604
0314,cdot_cos,R,Q-R,322,64,55133,0.12099092281473686,0.11403181772596402,0.14075958419347334,0.9899368652259661,847.0,11.768969694015363,0.6583291511666147,11.813301717525722,-0.40446939691184514,0.027,0.9999999999996423,-291.36914958622026,1.5994588619962293,322,2026-10-07 21:47:11.217243,32.6,0.4505119079040195,2.334253674572394,3.9402656136314897
0314,cdot_cos,S,R-S,323,64,55183,-0.005941227216423661,-0.0415219582053107,-0.1269321500311605,0.015704357329808304,847.0,11.788632220874222,0.6583466969333809,11.831946460811253,-0.0751545393941175,0.05,0.9999999999996356,18768.906591925068,1.6044260219554687,323,2026-10-07 21:47:11.267244,32.6,0.012502384618320058,0.3790697344049043,0.39325053717718106
0314,cdot_cos,T,S-T,324,64,55432,-0.28541007499842785,0.009906743376132707,-0.2794688477820042,0.0001104668689286388,847.0,11.806876667455853,0.6583468203514723,11.850250238129446,-0.06984652354241339,0.249,0.9999999999996295,43008.40979565968,1.6093937397645823,324,2026-10-07 21:47:11.516243,32.6,0.9268204519239626,0.2530068431751304,0.07327086980574851
0314,cdot_cos,P,T-P,325,65,55882,0.09287551346678101,-0.004832077931373129,0.3782855884652089,0.9999955921106647,845.0,11.914629628775437,0.659463175776071,11.888649053662256,-0.41406682499128655,0.45,0.9999999999996292,-308.34292902065056,1.6143620288561584,325,2026-10-07 21:47:11.966244,32.6,0.43547590200802916,0.143581621834217,0.23945102515463013
0314,cdot_cos,Q,P-Q,326,65,55955,-0.008719984271038048,-0.0048614268694037585,-0.10159549773781906,0.035161356481357486,845.0,11.936100127106648,0.6595023964174026,11.907633598264315,-0.08295044837545419,0.073,0.9999999999996223,8442.400872967763,1.6193292518829754,326,2026-10-07 21:47:12.039244,32.6,0.01846760741442536,0.8821437899982438,0.2941164154960511
0314,cdot_cos,R,Q-R,327,65,55981,0.13613236342040505,0.13010817395040983,0.1448523476914431,0.9911827293550226,845.0,12.04342262211518,0.6606071080081128,11.94585951482028,-0.41621871152901024,0.026,0.9999999999996225,-301.6789775323095,1.6242963421078318,327,2026-10-07 21:47:12.065243,32.6,0.44901245014754254,2.4375232234321587,4.127788269558918
0314,cdot_cos,S,R-S,328,65,56036,-0.0006911167323457865,-0.0016906881100458824,-0.13682348015275084,0.011425170801950681,845.0,12.06285133472512,0.6606198316448766,11.964341836602985,-0.07574547769181685,0.055,0.9999999999996162,26759.11299254803,1.6292635168165228,328,2026-10-07 21:47:12.120243,32.6,0.011165076883272666,0.3436868660322839,0.35324932018073435
0314,cdot_cos,T,S-T,329,65,56291,-0.32488716636390197,0.017282453230606287,-0.3241960496315562,2.5705208440871455e-05,845.0,12.081228177378732,0.6606198602712099,11.982566808101751,-0.071756978378121,0.255,0.9999999999996095,139329.7308239503,1.6342312677293505,329,2026-10-07 21:47:12.375243,32.6,0.9459330968425166,0.24893422394626022,0.07206604962200328
0314,cdot_cos,P,T-P,330,66,56727,0.0923462318894053,-0.007562974909980867,0.4172333982533073,0.9999987617482118,824.0,12.189807788937713,0.6617326082232322,12.020977752853517,-0.42552353263386533,0.436,0.9999999999996093,-317.9215505297542,1.6391995477520647,330,2026-10-07 21:47:12.811244,32.6,0.43545327494546215,0.1485067866822752,0.2490358063279401
0314,cdot_cos,Q,P-Q,331,66,56796,-0.01732693700517264,-0.008794219764495006,-0.10967316889457794,0.027242798451218093,824.0,12.210726095365676,0.6617628976753256,12.039728861242866,-0.08241267650126968,0.069,0.9999999999996015,11327.733993827902,1.644166761237559,331,2026-10-07 21:47:12.880243,32.6,0.01555573014405261,0.9354690308259025,0.30316386127481315
0314,cdot_cos,R,Q-R,332,66,56824,0.12901265022084246,0.12202575819192235,0.1463395872260151,0.9915965213221231,824.0,12.318902515191688,0.6628644837220252,12.077973900732141,-0.42775701500989305,0.028,0.9999999999996018,-313.49737911376064,1.649133855845317,332,2026-10-07 21:47:12.908243,32.6,0.44604401706053204,2.283029369900832,3.8634435652147303
0314,cdot_cos,S,R-S,333,66,56880,-0.004974895668753468,-0.028120647546219877,-0.13398754588959594,0.012517958765956948,824.0,12.338575740080122,0.6628783789254757,12.096403498427238,-0.0781968398986737,0.056,0.999999999999595,25156.8950649753,1.6541010342779618,333,2026-10-07 21:47:12.964243,32.6,0.01144434438648352,0.34176311617011607,0.35130758729346695
0314,cdot_cos,T,S-T,334,66,57127,-0.21652448756089124,0.050805232818167664,-0.21154959189213776,0.0010102802749890837,824.0,12.357179984202741,0.6628795003460352,12.114573152774792,-0.0740625469115036,0.247,0.9999999999995888,3686.6570284144996,1.6590687779718303,334,2026-10-07 21:47:13.211244,32.6,0.9457077952995687,0.25910245124636666,0.07532082640736378
0314,cdot_cos,P,T-P,335,67,57551,0.07531510411142017,-0.0012466751304264514,0.29183959167231144,0.999926192078828,837.0,12.466572350995827,0.6639885274023436,12.15299381613301,-0.4370321949924089,0.424,0.9999999999995882,-327.2865580837157,1.6640370530456763,335,2026-10-07 21:47:13.635243,32.6,0.43581694586889763,0.1555753830502907,0.2580008650780337
0314,cdot_cos,Q,P-Q,336,67,57627,-0.01964032997193133,-0.010542585655450548,-0.0949554340833515,0.04329130473200588,837.0,12.489107909029387,0.6640365014735216,12.17199868936781,-0.0905036862052478,0.076,0.9999999999995808,7223.245813383701,1.669004289548946,336,2026-10-07 21:47:13.711244,32.6,0.021733762772651204,0.8637368850680402,0.29652050044158185
0314,cdot_cos,R,Q-R,337,67,57652,0.11834809593905637,0.12081548832653186,0.1379884259109877,0.9889959046721974,837.0,12.59786035752617,0.6651315525539816,12.210200795416947,-0.4383422138566161,0.025,0.9999999999995806,-317.64593803719015,1.6739713738395914,337,2026-10-07 21:47:13.736243,32.6,0.45224469045131444,2.5794941281180783,4.350097939871276
0314,cdot_cos,S,R-S,338,67,57701,-0.006262428476207732,-0.02905516810598126,-0.1246105244152641,0.01691818785627055,837.0,12.618082615435291,0.6651502695492172,12.228647497552195,-0.08192550063832052,0.049,0.9999999999995738,19042.410853456313,1.6789385320209542,338,2026-10-07 21:47:13.785243,32.6,0.012900388707137195,0.3969581844989597,0.4126991410024902
